0,1
18881.904622378595,-29125.0
18881.904684875833,-29894.0
18881.90474737307,-28592.0
18881.904809870306,-23849.0
18881.904872367544,-16195.0
18881.904934864782,-8826.0
18881.90499736202,-646.0
18881.905059859255,8373.0
18881.905122356493,12984.0
18881.90518485373,15733.0
18881.90524735097,19146.0
18881.905309848204,20409.0
18881.90537234544,19577.0
18881.90543484268,17143.0
18881.905497339918,14143.0
18881.905559837152,10839.0
18881.90562233439,7175.0
18881.90568483163,4548.0
18881.905747328863,3217.0
18881.9058098261,2860.0
18881.90587232334,1614.0
18881.905934820577,-823.0
18881.905997317812,-1851.0
18881.90605981505,-2416.0
18881.906122312288,-2917.0
18881.906184809526,-2710.0
18881.90624730676,-1892.0
18881.906309804,-257.0
18881.906372301237,444.0
18881.906434798475,1100.0
18881.90649729571,3698.0
18881.906559792948,6752.0
18881.906622290186,9404.0
18881.906684787424,11509.0
18881.90674728466,13280.0
18881.906809781896,13917.0
18881.906872279134,13071.0
18881.906934776373,12011.0
18881.906997273607,11175.0
18881.907059770845,10314.0
18881.907122268083,8468.0
18881.90718476532,6000.0
18881.907247262556,4824.0
18881.907309759794,4352.0
18881.907372257032,3652.0
18881.90743475427,4098.0
18881.907497251505,6072.0
18881.907559748743,7070.0
18881.90762224598,6578.0
18881.907684743215,6704.0
18881.907747240453,7285.0
18881.90780973769,6540.0
18881.90787223493,5921.0
18881.907934732164,6655.0
18881.907997229402,6424.0
18881.90805972664,5287.0
18881.90812222388,5245.0
18881.908184721113,5907.0
18881.90824721835,5826.0
18881.90830971559,5598.0
18881.908372212827,6022.0
18881.90843471006,5790.0
18881.9084972073,4651.0
18881.908559704538,3930.0
18881.908622201776,3910.0
18881.90868469901,3864.0
18881.90874719625,3642.0
18881.908809693487,3744.0
18881.908872190725,3814.0
18881.90893468796,3606.0
18881.908997185197,3467.0
18881.909059682435,3385.0
18881.90912217967,2912.0
18881.909184676908,2075.0
18881.909247174146,672.0
18881.909309671384,-1442.0
18881.909372168622,-3680.0
18881.909434665857,-5624.0
18881.909497163095,-7675.0
18881.909559660333,-10300.0
18881.909622157567,-12512.0
18881.909684654805,-14306.0
18881.909747152044,-16813.0
18881.90980964928,-18672.0
18881.909872146516,-19598.0
18881.909934643754,-20690.0
18881.909997140992,-21754.0
18881.91005963823,-22950.0
18881.910122135465,-24591.0
18881.910184632703,-26006.0
18881.91024712994,-27284.0
18881.91030962718,-28420.0
18881.910372124414,-28799.0
18881.91043462165,-29080.0
18881.91049711889,-29889.0
18881.910559616128,-29957.0
18881.910622113362,-27601.0
18881.9106846106,-22128.0
18881.91074710784,-14477.0
18881.910809605077,-6742.0
18881.91087210231,1825.0
18881.91093459955,9999.0
18881.910997096787,13599.0
18881.911059594022,16089.0
18881.91112209126,19280.0
18881.911184588498,19411.0
18881.911247085736,17034.0
18881.91130958297,15014.0
18881.91137208021,12879.0
18881.911434577447,9046.0
18881.911497074685,5969.0
18881.91155957192,5424.0
18881.911622069158,4906.0
18881.911684566396,3663.0
18881.911747063634,2555.0
18881.91180956087,1276.0
18881.911872058106,-505.0
18881.911934555344,-1955.0
18881.911997052583,-2085.0
18881.912059549817,-1900.0
18881.912122047055,-1666.0
18881.912184544293,-476.0
18881.91224704153,815.0
18881.912309538766,2086.0
18881.912372036004,4551.0
18881.912434533242,7847.0
18881.91249703048,10094.0
18881.912559527715,11608.0
18881.912622024953,13399.0
18881.91268452219,13234.0
18881.91274701943,11707.0
18881.912809516663,11251.0
18881.9128720139,10313.0
18881.91293451114,8385.0
18881.912997008374,6962.0
18881.913059505612,5823.0
18881.91312200285,5027.0
18881.91318450009,5135.0
18881.913246997323,5812.0
18881.91330949456,6526.0
18881.9133719918,7261.0
18881.913434489037,7733.0
18881.91349698627,7502.0
18881.91355948351,6953.0
18881.913621980748,6735.0
18881.913684477986,6388.0
18881.91374697522,5649.0
18881.91380947246,5320.0
18881.913871969697,5402.0
18881.913934466935,5159.0
18881.91399696417,5059.0
18881.914059461407,5833.0
18881.914121958645,6263.0
18881.914184455884,5813.0
18881.914246953118,5741.0
18881.914309450356,5543.0
18881.914371947594,4572.0
18881.91443444483,4233.0
18881.914496942067,4590.0
18881.914559439305,4440.0
18881.914621936543,4500.0
18881.91468443378,5097.0
18881.914746931016,5164.0
18881.914809428254,4940.0
18881.91487192549,4995.0
18881.914934422726,4751.0
18881.914996919964,3801.0
18881.915059417202,2298.0
18881.91512191444,427.0
18881.915184411675,-1622.0
18881.915246908913,-3885.0
18881.91530940615,-5987.0
18881.91537190339,-7567.0
18881.915434400624,-9583.0
18881.915496897862,-12077.0
18881.9155593951,-14020.0
18881.915621892338,-15947.0
18881.915684389573,-17991.0
18881.91574688681,-19446.0
18881.91580938405,-20517.0
18881.915871881287,-21707.0
18881.91593437852,-23472.0
18881.91599687576,-24960.0
18881.916059372998,-25995.0
18881.916121870236,-27316.0
18881.91618436747,-28096.0
18881.91624686471,-28222.0
18881.916309361946,-28510.0
18881.91637185918,-29335.0
18881.91643435642,-29575.0
18881.916496853657,-27494.0
18881.916559350895,-22614.0
18881.91662184813,-14726.0
18881.916684345368,-6507.0
18881.916746842606,1446.0
18881.916809339844,9928.0
18881.91687183708,14410.0
18881.916934334316,16629.0
18881.916996831555,19741.0
18881.917059328793,20309.0
18881.917121826027,18330.0
18881.917184323265,15686.0
18881.917246820503,12721.0
18881.91730931774,9014.0
18881.917371814976,5310.0
18881.917434312214,3677.0
18881.917496809452,3027.0
18881.91755930669,2387.0
18881.917621803925,1654.0
18881.917684301163,292.0
18881.9177467984,-675.0
18881.91780929564,-1478.0
18881.917871792873,-1829.0
18881.91793429011,-1426.0
18881.91799678735,-999.0
18881.918059284588,144.0
18881.918121781822,1194.0
18881.91818427906,2379.0
18881.9182467763,5146.0
18881.918309273533,8362.0
18881.91837177077,10868.0
18881.91843426801,12877.0
18881.918496765247,14495.0
18881.91855926248,14379.0
18881.91862175972,13136.0
18881.918684256958,12313.0
18881.918746754196,10928.0
18881.91880925143,9053.0
18881.91887174867,7335.0
18881.918934245907,5704.0
18881.918996743145,4847.0
18881.91905924038,4745.0
18881.919121737617,5355.0
18881.919184234855,6751.0
18881.919246732094,7908.0
18881.919309229328,8311.0
18881.919371726566,8091.0
18881.919434223804,7492.0
18881.919496721042,6824.0
18881.919559218277,6070.0
18881.919621715515,5659.0
18881.919684212753,5577.0
18881.919746709988,5413.0
18881.919809207226,5292.0
18881.919871704464,5578.0
18881.919934201702,6335.0
18881.91999669894,6645.0
18881.920059196174,6562.0
18881.920121693413,6645.0
18881.92018419065,6060.0
18881.920246687885,4922.0
18881.920309185123,4358.0
18881.92037168236,4396.0
18881.9204341796,4405.0
18881.920496676834,4497.0
18881.920559174072,4858.0
18881.92062167131,5124.0
18881.920684168548,5099.0
18881.920746665783,5056.0
18881.92080916302,4969.0
18881.92087166026,4117.0
18881.920934157497,2369.0
18881.92099665473,477.0
18881.92105915197,-1947.0
18881.921121649208,-4867.0
18881.921184146446,-6763.0
18881.92124664368,-8452.0
18881.92130914092,-10868.0
18881.921371638156,-12582.0
18881.921434135395,-14046.0
18881.92149663263,-16083.0
18881.921559129867,-17428.0
18881.921621627105,-18057.0
18881.92168412434,-19132.0
18881.921746621578,-20270.0
18881.921809118816,-21404.0
18881.921871616054,-23221.0
18881.92193411329,-25021.0
18881.921996610527,-26060.0
18881.922059107765,-26837.0
18881.922121605003,-27491.0
18881.922184102237,-28128.0
18881.922246599475,-28947.0
18881.922309096713,-29324.0
18881.92237159395,-28382.0
18881.922434091186,-23511.0
18881.922496588424,-14778.0
18881.922559085662,-7103.0
18881.9226215829,568.0
18881.922684080135,9193.0
18881.922746577373,13855.0
18881.92280907461,15850.0
18881.92287157185,18838.0
18881.922934069084,20705.0
18881.92299656632,19391.0
18881.92305906356,16587.0
18881.923121560798,14239.0
18881.923184058032,10846.0
18881.92324655527,7035.0
18881.92330905251,5378.0
18881.923371549747,5017.0
18881.92343404698,4332.0
18881.92349654422,2758.0
18881.923559041457,775.0
18881.92362153869,-742.0
18881.92368403593,-2057.0
18881.923746533168,-2324.0
18881.923809030406,-1722.0
18881.92387152764,-1009.0
18881.92393402488,223.0
18881.923996522117,1445.0
18881.924059019355,2608.0
18881.92412151659,4935.0
18881.924184013827,8314.0
18881.924246511066,11066.0
18881.924309008304,12453.0
18881.924371505538,13659.0
18881.924434002776,13979.0
18881.924496500014,12725.0
18881.924558997252,11572.0
18881.924621494487,11265.0
18881.924683991725,10376.0
18881.924746488963,8217.0
18881.9248089862,6354.0
18881.924871483436,5545.0
18881.924933980674,4692.0
18881.924996477912,4538.0
18881.925058975146,6316.0
18881.925121472384,7959.0
18881.925183969623,7969.0
18881.92524646686,7922.0
18881.9253089641,8098.0
18881.925371461333,7660.0
18881.92543395857,6894.0
18881.92549645581,7078.0
18881.925558953044,7118.0
18881.925621450282,5702.0
18881.92568394752,4865.0
18881.92574644476,5480.0
18881.925808941993,6110.0
18881.92587143923,6364.0
18881.92593393647,7458.0
18881.925996433707,8368.0
18881.92605893094,7306.0
18881.92612142818,6260.0
18881.926183925418,6078.0
18881.926246422656,5730.0
18881.92630891989,5406.0
18881.92637141713,5630.0
18881.926433914366,5796.0
18881.926496411605,5343.0
18881.92655890884,5025.0
18881.926621406077,4843.0
18881.926683903315,4603.0
18881.926746400553,4299.0
18881.926808897788,3072.0
18881.926871395026,1176.0
18881.926933892264,-747.0
18881.9269963895,-2853.0
18881.927058886737,-4898.0
18881.927121383975,-6264.0
18881.927183881213,-7302.0
18881.92724637845,-9263.0
18881.927308875685,-11349.0
18881.927371372924,-12908.0
18881.92743387016,-15054.0
18881.927496367396,-16639.0
18881.927558864634,-17538.0
18881.927621361872,-19130.0
18881.92768385911,-20552.0
18881.927746356345,-22106.0
18881.927808853583,-24148.0
18881.92787135082,-25277.0
18881.92793384806,-25851.0
18881.927996345294,-26613.0
18881.92805884253,-27026.0
18881.92812133977,-27258.0
18881.928183837008,-28083.0
18881.928246334242,-28614.0
18881.92830883148,-27317.0
18881.92837132872,-23294.0
18881.928433825957,-16115.0
18881.92849632319,-8702.0
18881.92855882043,-1292.0
18881.928621317667,7329.0
18881.928683814906,12843.0
18881.92874631214,15658.0
18881.928808809378,19123.0
18881.928871306616,20954.0
18881.92893380385,19606.0
18881.92899630109,17034.0
18881.929058798327,14783.0
18881.929121295565,11284.0
18881.9291837928,7439.0
18881.929246290038,5598.0
18881.929308787276,4747.0
18881.929371284514,3803.0
18881.92943378175,2473.0
18881.929496278986,1036.0
18881.929558776224,25.0
18881.929621273463,-1085.0
18881.929683770697,-1504.0
18881.929746267935,-1061.0
18881.929808765173,-614.0
18881.92987126241,66.0
18881.929933759646,1149.0
18881.929996256884,2663.0
18881.930058754122,5024.0
18881.93012125136,8030.0
18881.930183748595,10829.0
18881.930246245833,12670.0
18881.93030874307,14106.0
18881.93037124031,14537.0
18881.930433737543,13596.0
18881.93049623478,12552.0
18881.93055873202,11604.0
18881.930621229258,10004.0
18881.930683726492,7912.0
18881.93074622373,6157.0
18881.93080872097,4935.0
18881.930871218203,4133.0
18881.93093371544,4483.0
18881.93099621268,5740.0
18881.931058709917,7070.0
18881.93112120715,7937.0
18881.93118370439,8193.0
18881.931246201628,7931.0
18881.931308698866,7178.0
18881.9313711961,6671.0
18881.93143369334,6615.0
18881.931496190577,6388.0
18881.931558687815,6060.0
18881.93162118505,6077.0
18881.931683682287,6560.0
18881.931746179525,6877.0
18881.931808676763,7246.0
18881.931871173998,7951.0
18881.931933671236,7925.0
18881.931996168474,7031.0
18881.932058665712,6227.0
18881.932121162947,5477.0
18881.932183660185,4711.0
18881.932246157423,4420.0
18881.932308654657,4669.0
18881.932371151895,5070.0
18881.932433649134,5232.0
18881.93249614637,5122.0
18881.93255864361,5139.0
18881.932621140844,5138.0
18881.932683638082,4534.0
18881.93274613532,3432.0
18881.932808632555,2119.0
18881.932871129793,238.0
18881.93293362703,-2207.0
18881.93299612427,-4309.0
18881.933058621504,-5606.0
18881.933121118742,-7153.0
18881.93318361598,-9235.0
18881.933246113218,-10573.0
18881.933308610453,-12053.0
18881.93337110769,-14365.0
18881.93343360493,-16001.0
18881.933496102167,-17318.0
18881.9335585994,-19005.0
18881.93362109664,-20583.0
18881.933683593878,-22328.0
18881.933746091116,-24090.0
18881.93380858835,-25436.0
18881.933871085588,-26456.0
18881.933933582826,-27182.0
18881.933996080064,-27465.0
18881.9340585773,-27343.0
18881.934121074537,-27467.0
18881.934183571775,-27874.0
18881.93424606901,-27039.0
18881.934308566248,-23633.0
18881.934371063486,-17067.0
18881.934433560724,-9876.0
18881.93449605796,-3027.0
18881.934558555196,5740.0
18881.934621052435,12148.0
18881.934683549673,14554.0
18881.934746046907,18054.0
18881.934808544145,21055.0
18881.934871041383,20130.0
18881.93493353862,17423.0
18881.934996035856,15461.0
18881.935058533094,12395.0
18881.935121030332,7751.0
18881.93518352757,4993.0
18881.935246024805,4159.0
18881.935308522043,3168.0
18881.93537101928,1948.0
18881.93543351652,843.0
18881.935496013753,336.0
18881.93555851099,-387.0
18881.93562100823,-816.0
18881.935683505468,-71.0
18881.935746002702,552.0
18881.93580849994,1103.0
18881.93587099718,1982.0
18881.935933494417,2759.0
18881.93599599165,4418.0
18881.93605848889,7103.0
18881.936120986127,9731.0
18881.93618348336,11582.0
18881.9362459806,13234.0
18881.936308477838,14266.0
18881.936370975076,13639.0
18881.93643347231,12728.0
18881.93649596955,12023.0
18881.936558466787,10386.0
18881.936620964025,8437.0
18881.93668346126,6644.0
18881.936745958497,4990.0
18881.936808455735,4008.0
18881.936870952974,4112.0
18881.936933450208,4883.0
18881.936995947446,6081.0
18881.937058444684,7865.0
18881.937120941922,9028.0
18881.937183439157,8711.0
18881.937245936395,8465.0
18881.937308433633,8656.0
18881.93737093087,7455.0
18881.937433428106,6383.0
18881.937495925344,6856.0
18881.93755842258,6414.0
18881.937620919816,5566.0
18881.937683417054,6245.0
18881.937745914292,7023.0
18881.93780841153,6822.0
18881.93787090877,6968.0
18881.937933406003,7420.0
18881.93799590324,6929.0
18881.93805840048,6002.0
18881.938120897714,5604.0
18881.938183394952,5335.0
18881.93824589219,4893.0
18881.938308389428,4784.0
18881.938370886663,5004.0
18881.9384333839,4997.0
18881.93849588114,4776.0
18881.938558378377,4664.0
18881.93862087561,4376.0
18881.93868337285,3542.0
18881.938745870088,2392.0
18881.938808367326,664.0
18881.93887086456,-1666.0
18881.9389333618,-3857.0
18881.938995859036,-5973.0
18881.939058356274,-8291.0
18881.93912085351,-10198.0
18881.939183350747,-11808.0
18881.939245847985,-13729.0
18881.939308345223,-15251.0
18881.939370842458,-16369.0
18881.939433339696,-17976.0
18881.939495836934,-19141.0
18881.93955833417,-20007.0
18881.939620831407,-21880.0
18881.939683328645,-23765.0
18881.939745825883,-24885.0
18881.939808323117,-26475.0
18881.939870820355,-28043.0
18881.939933317593,-28057.0
18881.93999581483,-28147.0
18881.940058312066,-29384.0
18881.940120809304,-29251.0
18881.940183306542,-26887.0
18881.94024580378,-22050.0
18881.940308301015,-14613.0
18881.940370798253,-6911.0
18881.94043329549,2093.0
18881.94049579273,10358.0
18881.940558289964,13749.0
18881.9406207872,17109.0
18881.94068328444,20618.0
18881.940745781678,20022.0
18881.940808278912,18225.0
18881.94087077615,16942.0
18881.94093327339,14294.0
18881.940995770627,9966.0
18881.94105826786,6892.0
18881.9411207651,5822.0
18881.941183262337,4465.0
18881.941245759575,3303.0
18881.94130825681,2403.0
18881.941370754048,1166.0
18881.941433251286,-109.0
18881.94149574852,-1299.0
18881.94155824576,-1053.0
18881.941620742997,-303.0
18881.941683240235,81.0
18881.94174573747,1489.0
18881.941808234707,2879.0
18881.941870731946,4069.0
18881.941933229184,6343.0
18881.941995726418,9176.0
18881.942058223656,11410.0
18881.942120720894,12975.0
18881.942183218132,14406.0
18881.942245715367,14383.0
18881.942308212605,13109.0
18881.942370709843,12276.0
18881.94243320708,11263.0
18881.942495704316,9352.0
18881.942558201554,7199.0
18881.942620698792,6013.0
18881.94268319603,5085.0
18881.942745693264,4255.0
18881.942808190503,5788.0
18881.94287068774,7608.0
18881.942933184975,8086.0
18881.942995682213,8943.0
18881.94305817945,9095.0
18881.94312067669,7863.0
18881.943183173928,7087.0
18881.943245671162,6975.0
18881.9433081684,6056.0
18881.94337066564,4891.0
18881.943433162873,4990.0
18881.94349566011,5176.0
18881.94355815735,5269.0
18881.943620654587,6493.0
18881.94368315182,7976.0
18881.94374564906,8219.0
18881.943808146298,7933.0
18881.943870643536,7733.0
18881.94393314077,6735.0
18881.94399563801,5668.0
18881.944058135246,5470.0
18881.944120632485,5439.0
18881.94418312972,5078.0
18881.944245626957,4827.0
18881.944308124195,5080.0
18881.944370621433,4889.0
18881.944433118668,4649.0
18881.944495615906,5081.0
18881.944558113144,4732.0
18881.944620610382,3295.0
18881.944683107617,1809.0
18881.944745604855,201.0
18881.944808102093,-2310.0
18881.944870599327,-4658.0
18881.944933096565,-5937.0
18881.944995593803,-7944.0
18881.94505809104,-10464.0
18881.94512058828,-12043.0
18881.945183085514,-13612.0
18881.945245582752,-15501.0
18881.94530807999,-16950.0
18881.945370577225,-17898.0
18881.945433074463,-19120.0
18881.9454955717,-21012.0
18881.94555806894,-22615.0
18881.945620566174,-23900.0
18881.94568306341,-25612.0
18881.94574556065,-26968.0
18881.945808057888,-27529.0
18881.945870555122,-28029.0
18881.94593305236,-28691.0
18881.9459955496,-29207.0
18881.946058046837,-28678.0
18881.94612054407,-26344.0
18881.94618304131,-21042.0
18881.946245538547,-13092.0
18881.946308035785,-5757.0
18881.94637053302,2143.0
18881.946433030258,10080.0
18881.946495527496,13851.0
18881.946558024734,16472.0
18881.94662052197,19574.0
18881.946683019207,20138.0
18881.946745516445,17986.0
18881.94680801368,15689.0
18881.946870510918,14050.0
18881.946933008156,10485.0
18881.946995505394,6986.0
18881.94705800263,6232.0
18881.947120499866,5564.0
18881.947182997104,3953.0
18881.947245494342,2351.0
18881.947307991577,1237.0
18881.947370488815,-14.0
18881.947432986053,-1611.0
18881.94749548329,-1737.0
18881.947557980526,-1087.0
18881.947620477764,-619.0
18881.947682975002,329.0
18881.94774547224,1576.0
18881.947807969475,3610.0
18881.947870466713,6223.0
18881.94793296395,8915.0
18881.94799546119,11363.0
18881.948057958423,13123.0
18881.94812045566,14278.0
18881.9481829529,14092.0
18881.948245450138,13100.0
18881.948307947372,12205.0
18881.94837044461,10714.0
18881.94843294185,8912.0
18881.948495439086,7050.0
18881.94855793632,5263.0
18881.94862043356,4220.0
18881.948682930797,3915.0
18881.94874542803,4290.0
18881.94880792527,5181.0
18881.948870422508,6593.0
18881.948932919746,7465.0
18881.94899541698,7861.0
18881.94905791422,8914.0
18881.949120411457,9052.0
18881.949182908695,8734.0
18881.94924540593,8955.0
18881.949307903167,8447.0
18881.949370400405,7731.0
18881.949432897643,7631.0
18881.949495394878,7648.0
18881.949557892116,7218.0
18881.949620389354,7246.0
18881.949682886592,7435.0
18881.949745383827,6675.0
18881.949807881065,6109.0
18881.949870378303,5925.0
18881.94993287554,5414.0
18881.949995372775,5073.0
18881.950057870014,5019.0
18881.95012036725,4850.0
18881.950182864486,4700.0
18881.950245361724,4940.0
18881.950307858962,5102.0
18881.9503703562,5022.0
18881.95043285344,5068.0
18881.950495350673,4795.0
18881.95055784791,3613.0
18881.95062034515,1986.0
18881.950682842384,368.0
18881.95074533962,-1694.0
18881.95080783686,-4262.0
18881.950870334098,-6142.0
18881.950932831332,-7826.0
18881.95099532857,-10711.0
18881.95105782581,-13048.0
18881.951120323047,-14378.0
18881.95118282028,-16512.0
18881.95124531752,-18358.0
18881.951307814757,-18978.0
18881.951370311996,-20099.0
18881.95143280923,-21849.0
18881.951495306468,-23174.0
18881.951557803706,-24767.0
18881.951620300944,-26475.0
18881.95168279818,-27587.0
18881.951745295417,-28529.0
18881.951807792655,-28956.0
18881.951870289893,-29446.0
18881.951932787128,-30326.0
18881.951995284366,-29359.0
18881.952057781604,-25774.0
18881.95212027884,-19363.0
18881.952182776076,-11185.0
18881.952245273314,-3607.0
18881.952307770553,5080.0
18881.952370267787,12154.0
18881.952432765025,14650.0
18881.952495262263,17553.0
18881.9525577595,20176.0
18881.952620256736,19372.0
18881.952682753974,17216.0
18881.952745251212,15510.0
18881.95280774845,13223.0
18881.952870245685,9625.0
18881.952932742923,7185.0
18881.95299524016,6713.0
18881.9530577374,5940.0
18881.953120234633,4184.0
18881.95318273187,2381.0
18881.95324522911,996.0
18881.953307726348,-685.0
18881.953370223582,-2020.0
18881.95343272082,-1710.0
18881.95349521806,-1066.0
18881.953557715296,-430.0
18881.95362021253,1033.0
18881.95368270977,2487.0
18881.953745207007,4378.0
18881.953807704245,7341.0
18881.95387020148,10232.0
18881.953932698718,11993.0
18881.953995195956,13487.0
18881.95405769319,14487.0
18881.95412019043,13658.0
18881.954182687667,12412.0
18881.954245184905,11732.0
18881.95430768214,10676.0
18881.954370179377,9099.0
18881.954432676615,7432.0
18881.954495173854,6366.0
18881.954557671088,5383.0
18881.954620168326,4856.0
18881.954682665564,6218.0
18881.954745162802,7654.0
18881.954807660037,7762.0
18881.954870157275,7917.0
18881.954932654513,7794.0
18881.95499515175,6441.0
18881.955057648986,5505.0
18881.955120146224,5993.0
18881.95518264346,5722.0
18881.9552451407,4680.0
18881.955307637934,5078.0
18881.955370135172,5460.0
18881.95543263241,4953.0
18881.955495129645,5951.0
18881.955557626883,7937.0
18881.95562012412,8205.0
18881.95568262136,7912.0
18881.955745118597,8093.0
18881.955807615832,7060.0
18881.95587011307,5807.0
18881.955932610308,6034.0
18881.955995107543,6324.0
18881.95605760478,5786.0
18881.95612010202,5760.0
18881.956182599257,6061.0
18881.95624509649,5247.0
18881.95630759373,4803.0
18881.956370090968,5353.0
18881.956432588206,4771.0
18881.95649508544,3088.0
18881.95655758268,1902.0
18881.956620079916,359.0
18881.956682577154,-2395.0
18881.95674507439,-4405.0
18881.956807571627,-5093.0
18881.956870068865,-6863.0
18881.956932566103,-9384.0
18881.956995063338,-10563.0
18881.957057560576,-12403.0
18881.957120057814,-15421.0
18881.957182555052,-16718.0
18881.957245052286,-17751.0
18881.957307549525,-19874.0
18881.957370046763,-21311.0
18881.957432543997,-22519.0
18881.957495041235,-24330.0
18881.957557538473,-25752.0
18881.95762003571,-26116.0
18881.957682532946,-26390.0
18881.957745030184,-27083.0
18881.957807527422,-27549.0
18881.95787002466,-28283.0
18881.957932521895,-28800.0
18881.957995019133,-26821.0
18881.95805751637,-21173.0
18881.95812001361,-13589.0
18881.958182510843,-6527.0
18881.95824500808,1689.0
18881.95830750532,9396.0
18881.958370002558,12520.0
18881.958432499792,15329.0
18881.95849499703,19327.0
18881.95855749427,19902.0
18881.958619991507,17873.0
18881.95868248874,16468.0
18881.95874498598,14512.0
18881.958807483217,10503.0
18881.958869980455,7471.0
18881.95893247769,7016.0
18881.958994974928,6323.0
18881.959057472166,4449.0
18881.959119969404,2932.0
18881.95918246664,1745.0
18881.959244963877,-82.0
18881.959307461115,-1577.0
18881.95936995835,-1396.0
18881.959432455587,-733.0
18881.959494952825,-373.0
18881.959557450064,507.0
18881.959619947298,1800.0
18881.959682444536,3514.0
18881.959744941774,6292.0
18881.959807439012,9422.0
18881.959869936247,11630.0
18881.959932433485,13321.0
18881.959994930723,14407.0
18881.96005742796,13890.0
18881.960119925196,12800.0
18881.960182422434,12214.0
18881.960244919672,11234.0
18881.96030741691,9701.0
18881.960369914144,8260.0
18881.960432411382,7028.0
18881.96049490862,5773.0
18881.96055740586,5087.0
18881.960619903093,6039.0
18881.96068240033,7363.0
18881.96074489757,8000.0
18881.960807394804,8408.0
18881.960869892042,8326.0
18881.96093238928,7559.0
18881.960994886518,6735.0
18881.961057383756,6796.0
18881.96111988099,6924.0
18881.96118237823,6355.0
18881.961244875467,6417.0
18881.9613073727,6478.0
18881.96136986994,6043.0
18881.961432367178,6367.0
18881.961494864416,7087.0
18881.96155736165,7089.0
18881.96161985889,6739.0
18881.961682356126,6336.0
18881.961744853365,5485.0
18881.9618073506,4859.0
18881.961869847837,4918.0
18881.961932345075,5047.0
18881.961994842313,5202.0
18881.962057339548,5380.0
18881.962119836786,5434.0
18881.962182334024,5319.0
18881.962244831262,5118.0
18881.962307328497,5060.0
18881.962369825735,4594.0
18881.962432322973,3285.0
18881.96249482021,1469.0
18881.962557317445,-514.0
18881.962619814683,-2557.0
18881.96268231192,-4917.0
18881.962744809156,-7130.0
18881.962807306394,-9130.0
18881.962869803632,-11461.0
18881.96293230087,-13935.0
18881.962994798105,-15734.0
18881.963057295343,-16821.0
18881.96311979258,-18525.0
18881.96318228982,-20019.0
18881.963244787054,-20656.0
18881.96330728429,-22443.0
18881.96336978153,-24458.0
18881.963432278768,-25352.0
18881.963494776002,-26282.0
18881.96355727324,-27202.0
18881.96361977048,-27756.0
18881.963682267717,-28245.0
18881.96374476495,-29115.0
18881.96380726219,-29790.0
18881.963869759427,-27948.0
18881.963932256665,-22438.0
18881.9639947539,-14946.0
18881.964057251138,-7673.0
18881.964119748376,1072.0
18881.964182245614,9120.0
18881.96424474285,12334.0
18881.964307240087,15539.0
18881.964369737325,19363.0
18881.964432234563,19817.0
18881.964494731797,18626.0
18881.964557229036,17227.0
18881.964619726274,15063.0
18881.964682223508,11306.0
18881.964744720746,8172.0
18881.964807217984,7130.0
18881.964869715222,5958.0
18881.964932212457,4412.0
18881.964994709695,2941.0
18881.965057206933,1286.0
18881.96511970417,-624.0
18881.965182201406,-2182.0
18881.965244698644,-1939.0
18881.965307195882,-1476.0
18881.96536969312,-1195.0
18881.965432190354,260.0
18881.965494687593,1374.0
18881.96555718483,2482.0
18881.96561968207,5172.0
18881.965682179303,8440.0
18881.96574467654,10861.0
18881.96580717378,12525.0
18881.965869671018,14260.0
18881.965932168252,14503.0
18881.96599466549,13242.0
18881.96605716273,12346.0
18881.966119659963,11718.0
18881.9661821572,10416.0
18881.96624465444,8402.0
18881.966307151677,7002.0
18881.966369648915,5823.0
18881.96643214615,4303.0
18881.966494643388,4189.0
18881.966557140626,5308.0
18881.96661963786,6142.0
18881.9666821351,6641.0
18881.966744632336,7474.0
18881.966807129575,7594.0
18881.96686962681,6554.0
18881.966932124047,6483.0
18881.966994621285,7052.0
18881.967057118523,6428.0
18881.967119615758,6072.0
18881.967182112996,6772.0
18881.967244610234,6681.0
18881.967307107472,5919.0
18881.967369604707,6396.0
18881.967432101945,7202.0
18881.967494599183,6492.0
18881.96755709642,5760.0
18881.967619593655,5912.0
18881.967682090894,5265.0
18881.96774458813,4376.0
18881.96780708537,4598.0
18881.967869582604,5023.0
18881.967932079842,5007.0
18881.96799457708,5241.0
18881.968057074315,5609.0
18881.968119571553,5362.0
18881.96818206879,5202.0
18881.96824456603,5080.0
18881.968307063267,3986.0
18881.9683695605,2531.0
18881.96843205774,943.0
18881.968494554978,-1432.0
18881.968557052212,-3894.0
18881.96861954945,-5652.0
18881.96868204669,-7497.0
18881.968744543927,-9993.0
18881.96880704116,-12091.0
18881.9688695384,-13762.0
18881.968932035637,-15912.0
18881.968994532876,-17739.0
18881.96905703011,-18756.0
18881.969119527348,-19709.0
18881.969182024586,-21197.0
18881.969244521824,-22757.0
18881.96930701906,-23735.0
18881.969369516297,-25102.0
18881.969432013535,-26551.0
18881.969494510773,-26818.0
18881.969557008008,-27095.0
18881.969619505246,-27874.0
18881.969682002484,-28410.0
18881.969744499722,-28589.0
18881.969806996956,-27755.0
18881.969869494194,-23585.0
18881.969931991433,-15674.0
18881.969994488667,-8295.0
18881.970056985905,-785.0
18881.970119483143,7864.0
18881.97018198038,12562.0
18881.970244477616,15174.0
18881.970306974854,18278.0
18881.970369472092,19820.0
18881.97043196933,19079.0
18881.970494466565,16426.0
18881.970556963803,14142.0
18881.97061946104,11150.0
18881.97068195828,7458.0
18881.970744455513,5805.0
18881.97080695275,5220.0
18881.97086944999,4666.0
18881.970931947228,3083.0
18881.970994444462,1467.0
18881.9710569417,542.0
18881.97111943894,-1109.0
18881.971181936176,-1290.0
18881.97124443341,-644.0
18881.97130693065,-449.0
18881.971369427887,685.0
18881.971431925125,1700.0
18881.97149442236,2979.0
18881.971556919598,5397.0
18881.971619416836,8419.0
18881.971681914074,11007.0
18881.97174441131,12593.0
18881.971806908547,14212.0
18881.971869405785,14189.0
18881.97193190302,12569.0
18881.971994400257,11784.0
18881.972056897495,10739.0
18881.972119394733,9012.0
18881.972181891968,7492.0
18881.972244389206,6124.0
18881.972306886444,4952.0
18881.972369383682,4583.0
18881.972431880917,5742.0
18881.972494378155,6820.0
18881.972556875393,7242.0
18881.97261937263,8229.0
18881.972681869865,8524.0
18881.972744367104,7325.0
18881.97280686434,6749.0
18881.97286936158,7413.0
18881.972931858814,6631.0
18881.972994356052,5421.0
18881.97305685329,6241.0
18881.97311935053,6260.0
18881.973181847763,5142.0
18881.973244345,5814.0
18881.97330684224,7037.0
18881.973369339474,6395.0
18881.973431836712,5734.0
18881.97349433395,6231.0
18881.973556831188,5453.0
18881.973619328426,4264.0
18881.97368182566,4803.0
18881.9737443229,5256.0
18881.973806820137,4674.0
18881.97386931737,4799.0
18881.97393181461,5469.0
18881.973994311847,5257.0
18881.974056809086,5251.0
18881.97411930632,5869.0
18881.974181803558,5091.0
18881.974244300796,3342.0
18881.974306798034,2060.0
18881.97436929527,68.0
18881.974431792507,-2693.0
18881.974494289745,-4567.0
18881.974556786983,-6024.0
18881.974619284218,-8669.0
18881.974681781456,-11381.0
18881.974744278694,-12797.0
18881.974806775932,-14951.0
18881.974869273166,-17444.0
18881.974931770405,-18245.0
18881.974994267643,-18969.0
18881.97505676488,-20590.0
18881.975119262115,-22103.0
18881.975181759353,-23357.0
18881.97524425659,-24828.0
18881.975306753826,-26122.0
18881.975369251064,-26701.0
18881.975431748302,-27034.0
18881.97549424554,-27584.0
18881.975556742775,-28501.0
18881.975619240013,-28623.0
18881.97568173725,-27455.0
18881.97574423449,-24708.0
18881.975806731723,-17847.0
18881.97586922896,-9506.0
18881.9759317262,-3067.0
18881.975994223438,5016.0
18881.976056720672,12196.0
18881.97611921791,14678.0
18881.97618171515,17150.0
18881.976244212387,19931.0
18881.97630670962,19537.0
18881.97636920686,16598.0
18881.976431704097,14193.0
18881.976494201335,11736.0
18881.97655669857,7782.0
18881.976619195808,5425.0
18881.976681693046,4988.0
18881.976744190284,4532.0
18881.97680668752,3450.0
18881.976869184757,1969.0
18881.976931681995,1373.0
18881.976994179233,170.0
18881.977056676467,-1040.0
18881.977119173705,-457.0
18881.977181670944,-111.0
18881.977244168178,50.0
18881.977306665416,1191.0
18881.977369162654,2620.0
18881.977431659892,4494.0
18881.977494157127,7236.0
18881.977556654365,10292.0
18881.977619151603,12318.0
18881.97768164884,13840.0
18881.977744146076,14613.0
18881.977806643314,13696.0
18881.97786914055,12591.0
18881.97793163779,11401.0
18881.977994135024,9731.0
18881.978056632262,8136.0
18881.9781191295,6447.0
18881.97818162674,5313.0
18881.978244123973,4943.0
18881.97830662121,5033.0
18881.97836911845,5583.0
18881.978431615687,6796.0
18881.978494112922,7987.0
18881.97855661016,8180.0
18881.978619107398,7991.0
18881.978681604633,7859.0
18881.97874410187,7493.0
18881.97880659911,6640.0
18881.978869096347,6286.0
18881.978931593585,6864.0
18881.97899409082,6478.0
18881.979056588058,5849.0
18881.979119085296,6599.0
18881.97918158253,6878.0
18881.97924407977,6046.0
18881.979306577006,5998.0
18881.979369074244,6330.0
18881.97943157148,5462.0
18881.979494068717,4497.0
18881.979556565955,4550.0
18881.979619063193,4620.0
18881.979681560428,4462.0
18881.979744057666,4852.0
18881.979806554904,5496.0
18881.979869052142,5720.0
18881.979931549376,5732.0
18881.979994046615,5601.0
18881.980056543853,4957.0
18881.98011904109,3850.0
18881.980181538325,2307.0
18881.980244035563,121.0
18881.9803065328,-2251.0
18881.98036903004,-4456.0
18881.980431527274,-6604.0
18881.980494024512,-9023.0
18881.98055652175,-11005.0
18881.980619018985,-12290.0
18881.980681516223,-14326.0
18881.98074401346,-16161.0
18881.9808065107,-16990.0
18881.980869007934,-18566.0
18881.98093150517,-20427.0
18881.98099400241,-21391.0
18881.981056499648,-23041.0
18881.981118996882,-25113.0
18881.98118149412,-25774.0
18881.98124399136,-26784.0
18881.981306488597,-28259.0
18881.98136898583,-28466.0
18881.98143148307,-29011.0
18881.981493980307,-30336.0
18881.981556477545,-29760.0
18881.98161897478,-25924.0
18881.981681472018,-18992.0
18881.981743969256,-10805.0
18881.981806466494,-2180.0
18881.98186896373,7200.0
18881.981931460967,13467.0
18881.981993958205,16611.0
18881.982056455443,19779.0
18881.982118952677,21067.0
18881.982181449916,20057.0
18881.982243947154,17765.0
18881.98230644439,14743.0
18881.982368941626,11096.0
18881.982431438864,7474.0
18881.982493936102,5440.0
18881.982556433337,4225.0
18881.982618930575,3612.0
18881.982681427813,3456.0
18881.98274392505,1800.0
18881.982806422286,31.0
18881.982868919524,-777.0
18881.982931416762,-1465.0
18881.982993914,-1869.0
18881.983056411234,-1473.0
18881.983118908473,-119.0
18881.98318140571,948.0
18881.98324390295,1830.0
18881.983306400183,4451.0
18881.98336889742,7736.0
18881.98343139466,10417.0
18881.983493891898,12594.0
18881.983556389132,14410.0
18881.98361888637,15175.0
18881.98368138361,14063.0
18881.983743880846,12636.0
18881.98380637808,11817.0
18881.98386887532,10254.0
18881.983931372557,8233.0
18881.98399386979,6497.0
18881.98405636703,5194.0
18881.984118864268,4266.0
18881.984181361506,4305.0
18881.984243858744,5431.0
18881.98430635598,6664.0
18881.984368853216,7568.0
18881.984431350455,7905.0
18881.98449384769,7496.0
18881.984556344927,6751.0
18881.984618842165,6483.0
18881.984681339403,6508.0
18881.984743836638,6047.0
18881.984806333876,6055.0
18881.984868831114,6594.0
18881.984931328352,6352.0
18881.984993825587,6282.0
18881.985056322825,7377.0
18881.985118820063,7941.0
18881.9851813173,7209.0
18881.985243814535,6780.0
18881.985306311773,6556.0
18881.98536880901,5120.0
18881.98543130625,4087.0
18881.985493803484,4397.0
18881.985556300722,4561.0
18881.98561879796,4400.0
18881.9856812952,4745.0
18881.985743792433,5275.0
18881.98580628967,5212.0
18881.98586878691,5141.0
18881.985931284144,5316.0
18881.98599378138,4663.0
18881.98605627862,3121.0
18881.986118775858,1406.0
18881.986181273092,-651.0
18881.98624377033,-3234.0
18881.98630626757,-5079.0
18881.986368764807,-6637.0
18881.98643126204,-9187.0
18881.98649375928,-11248.0
18881.986556256517,-12785.0
18881.986618753755,-15060.0
18881.98668125099,-16878.0
18881.986743748228,-18010.0
18881.986806245466,-19560.0
18881.986868742704,-21439.0
18881.98693123994,-23236.0
18881.986993737177,-25014.0
18881.987056234415,-26532.0
18881.987118731653,-27341.0
18881.987181228887,-27587.0
18881.987243726126,-27386.0
18881.987306223364,-27264.0
18881.9873687206,-28021.0
18881.987431217836,-28435.0
18881.987493715074,-27311.0
18881.987556212312,-23227.0
18881.98761870955,-14995.0
18881.987681206785,-6999.0
18881.987743704023,262.0
18881.98780620126,9228.0
18881.987868698496,14340.0
18881.987931195734,16049.0
18881.987993692972,19620.0
18881.98805619021,22142.0
18881.988118687445,20488.0
18881.988181184683,17157.0
18881.98824368192,14765.0
18881.98830617916,11103.0
18881.988368676393,6057.0
18881.98843117363,3794.0
18881.98849367087,3828.0
18881.988556168108,2894.0
18881.988618665342,988.0
18881.98868116258,-286.0
18881.98874365982,-629.0
18881.988806157056,-1692.0
18881.98886865429,-2024.0
18881.98893115153,-546.0
18881.988993648767,331.0
18881.989056146005,760.0
18881.98911864324,1719.0
18881.989181140478,3047.0
18881.989243637716,5177.0
18881.98930613495,8284.0
18881.98936863219,11208.0
18881.989431129427,12893.0
18881.989493626665,14292.0
18881.989556123903,14854.0
18881.989618621137,13682.0
18881.989681118375,12429.0
18881.989743615613,11875.0
18881.989806112848,10674.0
18881.989868610086,8261.0
18881.989931107324,6019.0
18881.989993604562,5046.0
18881.990056101797,4571.0
18881.990118599035,4533.0
18881.990181096273,5522.0
18881.99024359351,7340.0
18881.990306090745,8089.0
18881.990368587984,7152.0
18881.99043108522,6939.0
18881.99049358246,7614.0
18881.990556079694,7035.0
18881.990618576932,6048.0
18881.99068107417,6659.0
18881.99074357141,6995.0
18881.990806068643,5470.0
18881.99086856588,5346.0
18881.99093106312,6829.0
18881.990993560357,6982.0
18881.99105605759,6673.0
18881.99111855483,7364.0
18881.991181052068,7420.0
18881.991243549302,6034.0
18881.99130604654,5314.0
18881.99136854378,5694.0
18881.991431041017,5435.0
18881.991493538255,4928.0
18881.99155603549,5175.0
18881.991618532727,5297.0
18881.991681029966,4688.0
18881.9917435272,4693.0
18881.991806024438,5009.0
18881.991868521676,4322.0
18881.991931018914,3313.0
18881.99199351615,1924.0
18881.992056013387,-497.0
18881.992118510625,-2863.0
18881.992181007863,-4743.0
18881.992243505098,-7161.0
18881.992306002336,-9839.0
18881.992368499574,-11784.0
18881.992430996812,-13936.0
18881.992493494046,-16324.0
18881.992555991284,-17690.0
18881.992618488523,-18437.0
18881.99268098576,-19525.0
18881.992743482995,-20918.0
18881.992805980233,-22255.0
18881.99286847747,-23398.0
18881.99293097471,-25030.0
18881.992993471944,-26795.0
18881.993055969182,-27188.0
18881.99311846642,-27351.0
18881.993180963655,-28725.0
18881.993243460893,-29586.0
18881.99330595813,-28984.0
18881.99336845537,-27423.0
18881.993430952603,-22235.0
18881.99349344984,-13438.0
18881.99355594708,-6012.0
18881.993618444318,2057.0
18881.993680941552,10775.0
18881.99374343879,14673.0
18881.99380593603,17559.0
18881.993868433266,21247.0
18881.9939309305,21278.0
18881.99399342774,18909.0
18881.994055924977,16659.0
18881.994118422215,13434.0
18881.99418091945,9184.0
18881.994243416688,5958.0
18881.994305913926,4517.0
18881.994368411164,3673.0
18881.9944309084,2690.0
18881.994493405637,1434.0
18881.994555902875,357.0
18881.994618400113,-584.0
18881.994680897347,-1645.0
18881.994743394585,-1427.0
18881.994805891823,-637.0
18881.99486838906,-529.0
18881.994930886296,538.0
18881.994993383534,2092.0
18881.995055880772,3484.0
18881.995118378007,6053.0
18881.995180875245,9365.0
18881.995243372483,11739.0
18881.99530586972,13291.0
18881.995368366956,14541.0
18881.995430864194,14692.0
18881.99549336143,13575.0
18881.99555585867,12315.0
18881.995618355904,11128.0
18881.995680853142,9308.0
18881.99574335038,6995.0
18881.99580584762,5263.0
18881.995868344853,4248.0
18881.99593084209,3648.0
18881.99599333933,4254.0
18881.996055836567,5764.0
18881.996118333802,6701.0
18881.99618083104,7516.0
18881.996243328278,8284.0
18881.996305825516,7874.0
18881.99636832275,7660.0
18881.99643081999,8131.0
18881.996493317227,7213.0
18881.99655581446,6212.0
18881.9966183117,6615.0
18881.996680808938,6361.0
18881.996743306176,5668.0
18881.996805803414,6435.0
18881.99686830065,7439.0
18881.996930797886,7118.0
18881.996993295124,6718.0
18881.99705579236,7094.0
18881.997118289597,6457.0
18881.997180786835,4993.0
18881.997243284073,4857.0
18881.997305781308,5060.0
18881.997368278546,4236.0
18881.997430775784,3884.0
18881.997493273022,4471.0
18881.997555770256,4498.0
18881.997618267495,4203.0
18881.997680764733,4472.0
18881.99774326197,4246.0
18881.997805759205,2943.0
18881.997868256443,1470.0
18881.99793075368,-385.0
18881.99799325092,-2833.0
18881.998055748154,-4890.0
18881.998118245392,-7196.0
18881.99818074263,-10041.0
18881.99824323987,-12169.0
18881.998305737103,-14156.0
18881.99836823434,-16608.0
18881.99843073158,-18266.0
18881.998493228813,-19148.0
18881.99855572605,-20612.0
18881.99861822329,-22124.0
18881.998680720528,-23125.0
18881.998743217762,-24555.0
18881.998805715,-25966.0
18881.99886821224,-26673.0
18881.998930709477,-27125.0
18881.99899320671,-27560.0
18881.99905570395,-28119.0
18881.999118201187,-28610.0
18881.999180698425,-28171.0
18881.99924319566,-25953.0
18881.999305692898,-20107.0
18881.999368190136,-12307.0
18881.999430687374,-5682.0
18881.99949318461,2888.0
18881.999555681847,10931.0
18881.999618179085,14170.0
18881.999680676323,17101.0
18881.999743173557,20105.0
18881.999805670795,20042.0
18881.999868168034,17536.0
18881.99993066527,15226.0
18881.999993162506,12774.0
18882.000055659744,8708.0
18882.000118156982,5845.0
18882.00018065422,4851.0
18882.000243151455,4015.0
18882.000305648693,2993.0
18882.00036814593,1621.0
18882.000430643166,580.0
18882.000493140404,-672.0
18882.00055563764,-1842.0
18882.00061813488,-1565.0
18882.000680632114,-1201.0
18882.000743129352,-669.0
18882.00080562659,863.0
18882.00086812383,2241.0
18882.000930621063,3789.0
18882.0009931183,6492.0
18882.00105561554,9709.0
18882.001118112777,11812.0
18882.001180610012,13342.0
18882.00124310725,14610.0
18882.001305604488,14195.0
18882.001368101726,12938.0
18882.00143059896,11937.0
18882.0014930962,10692.0
18882.001555593437,8963.0
18882.001618090675,7001.0
18882.00168058791,5673.0
18882.001743085148,4955.0
18882.001805582386,4451.0
18882.00186807962,5021.0
18882.00193057686,6443.0
18882.001993074096,7283.0
18882.002055571334,7428.0
18882.002118068573,7301.0
18882.002180565807,7008.0
18882.002243063045,6262.0
18882.002305560283,5603.0
18882.002368057518,5733.0
18882.002430554756,5694.0
18882.002493051994,5098.0
18882.002555549232,5120.0
18882.002618046467,5909.0
18882.002680543705,6267.0
18882.002743040943,6437.0
18882.00280553818,7102.0
18882.002868035415,7194.0
18882.002930532653,6387.0
18882.00299302989,5729.0
18882.00305552713,5447.0
18882.003118024364,5044.0
18882.003180521602,4839.0
18882.00324301884,5000.0
18882.00330551608,5094.0
18882.003368013313,5112.0
18882.00343051055,5134.0
18882.00349300779,5060.0
18882.003555505027,4826.0
18882.00361800226,4254.0
18882.0036804995,2853.0
18882.003742996738,681.0
18882.003805493972,-1522.0
18882.00386799121,-4019.0
18882.00393048845,-6528.0
18882.003992985687,-8300.0
18882.00405548292,-10453.0
18882.00411798016,-12603.0
18882.004180477397,-14097.0
18882.004242974635,-16036.0
18882.00430547187,-17456.0
18882.004367969108,-18005.0
18882.004430466346,-18954.0
18882.004492963584,-20117.0
18882.00455546082,-21349.0
18882.004617958057,-22914.0
18882.004680455295,-24714.0
18882.004742952533,-26078.0
18882.004805449767,-26933.0
18882.004867947006,-27540.0
18882.004930444244,-27822.0
18882.00499294148,-28302.0
18882.005055438716,-28259.0
18882.005117935954,-26359.0
18882.005180433192,-21603.0
18882.00524293043,-14201.0
18882.005305427665,-6935.0
18882.005367924903,648.0
18882.00543042214,8408.0
18882.00549291938,12642.0
18882.005555416614,15169.0
18882.005617913852,18437.0
18882.00568041109,19733.0
18882.005742908324,17937.0
18882.005805405563,15636.0
18882.0058679028,13613.0
18882.00593040004,10073.0
18882.005992897273,6687.0
18882.00605539451,5462.0
18882.00611789175,4872.0
18882.006180388988,3844.0
18882.006242886222,2277.0
18882.00630538346,1051.0
18882.0063678807,241.0
18882.006430377936,-957.0
18882.00649287517,-1064.0
18882.00655537241,-99.0
18882.006617869647,582.0
18882.006680366885,1361.0
18882.00674286412,2553.0
18882.006805361358,4206.0
18882.006867858596,6280.0
18882.006930355834,8923.0
18882.00699285307,11273.0
18882.007055350306,12637.0
18882.007117847545,13628.0
18882.00718034478,13499.0
18882.007242842017,12467.0
18882.007305339255,11624.0
18882.007367836493,10592.0
18882.00743033373,8989.0
18882.007492830966,7067.0
18882.007555328204,5698.0
18882.007617825442,4795.0
18882.007680322677,4396.0
18882.007742819915,5146.0
18882.007805317153,6015.0
18882.00786781439,7011.0
18882.007930311625,7974.0
18882.007992808863,7822.0
18882.0080553061,7516.0
18882.00811780334,7721.0
18882.008180300574,7532.0
18882.008242797812,6666.0
18882.00830529505,6570.0
18882.00836779229,6835.0
18882.008430289523,6135.0
18882.00849278676,6138.0
18882.008555284,6905.0
18882.008617781237,7038.0
18882.00868027847,6865.0
18882.00874277571,6795.0
18882.008805272948,6487.0
18882.008867770186,5656.0
18882.00893026742,5128.0
18882.00899276466,5255.0
18882.009055261897,5093.0
18882.00911775913,4756.0
18882.00918025637,4938.0
18882.009242753607,5236.0
18882.009305250846,4991.0
18882.00936774808,4870.0
18882.009430245318,5191.0
18882.009492742556,4565.0
18882.009555239794,2977.0
18882.00961773703,1713.0
18882.009680234267,-85.0
18882.009742731505,-2840.0
18882.009805228743,-4995.0
18882.009867725978,-6464.0
18882.009930223216,-8984.0
18882.009992720454,-11626.0
18882.010055217692,-12818.0
18882.010117714926,-14554.0
18882.010180212164,-16735.0
18882.010242709403,-17676.0
18882.01030520664,-18627.0
18882.010367703875,-20390.0
18882.010430201113,-22069.0
18882.01049269835,-23115.0
18882.01055519559,-24694.0
18882.010617692824,-26439.0
18882.010680190062,-26822.0
18882.0107426873,-27040.0
18882.01080518454,-27839.0
18882.010867681773,-28462.0
18882.01093017901,-28450.0
18882.01099267625,-27756.0
18882.011055173483,-24642.0
18882.01111767072,-16868.0
18882.01118016796,-8729.0
18882.011242665198,-1623.0
18882.011305162432,7707.0
18882.01136765967,14123.0
18882.01143015691,16458.0
18882.011492654146,19655.0
18882.01155515138,21583.0
18882.01161764862,20166.0
18882.011680145857,17001.0
18882.011742643095,13957.0
18882.01180514033,10552.0
18882.011867637568,6212.0
18882.011930134806,3710.0
18882.011992632044,3249.0
18882.01205512928,2761.0
18882.012117626517,1747.0
18882.012180123755,694.0
18882.012242620993,229.0
18882.012305118227,-698.0
18882.012367615465,-1251.0
18882.012430112703,-356.0
18882.012492609938,166.0
18882.012555107176,765.0
18882.012617604414,2000.0
18882.012680101652,3159.0
18882.01274259889,5260.0
18882.012805096125,8198.0
18882.012867593363,10800.0
18882.0129300906,12804.0
18882.012992587835,14561.0
18882.013055085074,14932.0
18882.01311758231,13814.0
18882.01318007955,13038.0
18882.013242576784,11837.0
18882.013305074022,9567.0
18882.01336757126,7695.0
18882.0134300685,5990.0
18882.013492565733,4204.0
18882.01355506297,3799.0
18882.01361756021,5062.0
18882.013680057447,5707.0
18882.01374255468,6700.0
18882.01380505192,8849.0
18882.013867549158,8533.0
18882.013930046396,7350.0
18882.01399254363,8191.0
18882.01405504087,7862.0
18882.014117538107,6079.0
18882.014180035345,6176.0
18882.01424253258,6746.0
18882.014305029817,5293.0
18882.014367527056,5038.0
18882.01443002429,6821.0
18882.014492521528,7085.0
18882.014555018766,6693.0
18882.014617516004,7601.0
18882.014680013242,7668.0
18882.014742510477,5925.0
18882.014805007715,4927.0
18882.014867504953,5116.0
18882.014930002188,4441.0
18882.014992499426,3629.0
18882.015054996664,4202.0
18882.015117493902,4716.0
18882.015179991136,4306.0
18882.015242488374,4621.0
18882.015304985613,5306.0
18882.01536748285,4765.0
18882.015429980085,3467.0
18882.015492477323,1884.0
18882.01555497456,-494.0
18882.0156174718,-3384.0
18882.015679969034,-5875.0
18882.015742466272,-7770.0
18882.01580496351,-10035.0
18882.01586746075,-12391.0
18882.015929957983,-14147.0
18882.01599245522,-16032.0
18882.01605495246,-17785.0
18882.016117449697,-18661.0
18882.01617994693,-19334.0
18882.01624244417,-20489.0
18882.016304941408,-21941.0
18882.016367438642,-23448.0
18882.01642993588,-25456.0
18882.01649243312,-27265.0
18882.016554930357,-28015.0
18882.01661742759,-28418.0
18882.01667992483,-29117.0
18882.016742422067,-29926.0
18882.016804919305,-29740.0
18882.01686741654,-28008.0
18882.016929913778,-23089.0
18882.016992411016,-14421.0
18882.017054908254,-6231.0
18882.01711740549,2192.0
18882.017179902727,10741.0
18882.017242399965,14484.0
18882.017304897203,16798.0
18882.017367394437,19911.0
18882.017429891675,20119.0
18882.017492388914,17946.0
18882.01755488615,15917.0
18882.017617383386,13669.0
18882.017679880624,9427.0
18882.017742377862,6013.0
18882.0178048751,5161.0
18882.017867372335,4305.0
18882.017929869573,3053.0
18882.01799236681,1918.0
18882.01805486405,851.0
18882.018117361284,-732.0
18882.01817985852,-2550.0
18882.01824235576,-2452.0
18882.018304852994,-1586.0
18882.018367350232,-1130.0
18882.01842984747,228.0
18882.01849234471,2080.0
18882.018554841943,3871.0
18882.01861733918,6329.0
18882.01867983642,9363.0
18882.018742333657,11736.0
18882.018804830892,13305.0
18882.01886732813,14440.0
18882.018929825368,13940.0
18882.018992322606,12547.0
18882.01905481984,11581.0
18882.01911731708,10278.0
18882.019179814317,8388.0
18882.019242311555,6683.0
18882.01930480879,5641.0
18882.019367306028,4480.0
18882.019429803266,3979.0
18882.019492300504,4785.0
18882.01955479774,5582.0
18882.019617294976,6583.0
18882.019679792214,6999.0
18882.01974228945,6970.0
18882.019804786687,7049.0
18882.019867283925,6387.0
18882.019929781163,6244.0
18882.0199922784,6517.0
18882.020054775636,6284.0
18882.020117272874,6151.0
18882.020179770112,6210.0
18882.020242267346,6367.0
18882.020304764585,6708.0
18882.020367261823,7160.0
18882.02042975906,7270.0
18882.020492256295,7089.0
18882.020554753533,6710.0
18882.02061725077,5894.0
18882.02067974801,5177.0
18882.020742245244,5047.0
18882.020804742482,4893.0
18882.02086723972,4630.0
18882.02092973696,4711.0
18882.020992234193,4820.0
18882.02105473143,4545.0
18882.02111722867,4408.0
18882.021179725907,4477.0
18882.02124222314,3831.0
18882.02130472038,2441.0
18882.021367217618,723.0
18882.021429714856,-1473.0
18882.02149221209,-3903.0
18882.02155470933,-6023.0
18882.021617206567,-7813.0
18882.0216797038,-9838.0
18882.02174220104,-11806.0
18882.021804698277,-13605.0
18882.021867195515,-15739.0
18882.02192969275,-17417.0
18882.021992189988,-18641.0
18882.022054687226,-19874.0
18882.022117184464,-20710.0
18882.0221796817,-22097.0
18882.022242178937,-23877.0
18882.022304676175,-25119.0
18882.022367173413,-26652.0
18882.022429670647,-28129.0
18882.022492167886,-28720.0
18882.022554665124,-29216.0
18882.02261716236,-30236.0
18882.022679659596,-30509.0
18882.022742156834,-28583.0
18882.022804654072,-23619.0
18882.02286715131,-15936.0
18882.022929648545,-8167.0
18882.022992145783,311.0
18882.02305464302,8691.0
18882.02311714026,13084.0
18882.023179637494,16339.0
18882.023242134732,19655.0
18882.02330463197,20441.0
18882.023367129208,19072.0
18882.023429626443,16707.0
18882.02349212368,13916.0
18882.02355462092,9899.0
18882.023617118153,6382.0
18882.02367961539,4797.0
18882.02374211263,3654.0
18882.023804609868,2909.0
18882.023867107102,1770.0
18882.02392960434,412.0
18882.02399210158,-604.0
18882.024054598816,-1787.0
18882.02411709605,-1674.0
18882.02417959329,-926.0
18882.024242090527,-318.0
18882.024304587765,988.0
18882.024367085,2128.0
18882.024429582238,3572.0
18882.024492079476,5993.0
18882.024554576714,8895.0
18882.02461707395,11492.0
18882.024679571186,13296.0
18882.024742068425,14607.0
18882.024804565663,14390.0
18882.024867062897,13115.0
18882.024929560135,12139.0
18882.024992057373,10712.0
18882.025054554608,8740.0
18882.025117051846,6683.0
18882.025179549084,5109.0
18882.025242046322,3652.0
18882.02530454356,2388.0
18882.025367040795,3337.0
18882.025429538033,4664.0
18882.02549203527,5087.0
18882.025554532505,6684.0
18882.025617029743,7806.0
18882.02567952698,7171.0
18882.02574202422,6865.0
18882.025804521454,7435.0
18882.025867018692,7301.0
18882.02592951593,6342.0
18882.02599201317,6508.0
18882.026054510403,7028.0
18882.02611700764,6491.0
18882.02617950488,6460.0
18882.026242002117,7437.0
18882.02630449935,7804.0
18882.02636699659,7143.0
18882.026429493828,6840.0
18882.026491991066,6578.0
18882.0265544883,5456.0
18882.02661698554,4784.0
18882.026679482777,4818.0
18882.026741980015,4724.0
18882.02680447725,4538.0
18882.026866974487,4685.0
18882.026929471725,4903.0
18882.02699196896,4890.0
18882.027054466198,4918.0
18882.027116963436,4518.0
18882.027179460674,3512.0
18882.02724195791,2251.0
18882.027304455147,439.0
18882.027366952385,-2056.0
18882.027429449623,-4454.0
18882.027491946857,-6131.0
18882.027554444096,-8309.0
18882.027616941334,-10861.0
18882.02767943857,-12363.0
18882.027741935806,-13882.0
18882.027804433044,-16003.0
18882.027866930282,-17166.0
18882.02792942752,-17746.0
18882.027991924755,-18941.0
18882.028054421993,-20434.0
18882.02811691923,-21771.0
18882.02817941647,-23135.0
18882.028241913704,-24969.0
18882.028304410942,-26414.0
18882.02836690818,-26958.0
18882.028429405418,-27948.0
18882.028491902653,-29169.0
18882.02855439989,-29902.0
18882.02861689713,-30042.0
18882.028679394367,-28592.0
18882.0287418916,-23449.0
18882.02880438884,-14909.0
18882.028866886078,-7181.0
18882.028929383312,559.0
18882.02899188055,9057.0
18882.02905437779,13596.0
18882.029116875026,16056.0
18882.02917937226,19289.0
18882.0292418695,20392.0
18882.029304366737,18777.0
18882.029366863975,16047.0
18882.02942936121,12988.0
18882.029491858448,9492.0
18882.029554355686,6319.0
18882.029616852924,4867.0
18882.02967935016,4310.0
18882.029741847397,3693.0
18882.029804344635,2407.0
18882.029866841873,867.0
18882.029929339107,-85.0
18882.029991836345,-922.0
18882.030054333583,-892.0
18882.03011683082,-180.0
18882.030179328056,257.0
18882.030241825294,1148.0
18882.030304322532,2240.0
18882.030366819767,3679.0
18882.030429317005,6159.0
18882.030491814243,9292.0
18882.03055431148,11744.0
18882.03061680872,13261.0
18882.030679305954,14357.0
18882.03074180319,14110.0
18882.03080430043,12835.0
18882.030866797664,11736.0
18882.030929294902,10433.0
18882.03099179214,8460.0
18882.03105428938,6057.0
18882.031116786613,4097.0
18882.03117928385,2952.0
18882.03124178109,3026.0
18882.031304278327,4134.0
18882.03136677556,5425.0
18882.0314292728,7793.0
18882.031491770038,9272.0
18882.031554267276,8769.0
18882.03161676451,8921.0
18882.03167926175,8982.0
18882.031741758987,8093.0
18882.031804256225,7122.0
18882.03186675346,6580.0
18882.031929250697,6164.0
18882.031991747936,5183.0
18882.032054245174,4914.0
18882.032116742408,5751.0
18882.032179239646,6454.0
18882.032241736884,6392.0
18882.03230423412,6525.0
18882.032366731357,6756.0
18882.032429228595,5746.0
18882.032491725833,4941.0
18882.032554223068,5279.0
18882.032616720306,5329.0
18882.032679217544,4932.0
18882.032741714782,5124.0
18882.032804212016,5461.0
18882.032866709254,5111.0
18882.032929206493,5072.0
18882.03299170373,5476.0
18882.033054200965,4571.0
18882.033116698203,2819.0
18882.03317919544,1375.0
18882.03324169268,-1039.0
18882.033304189914,-4038.0
18882.033366687152,-5624.0
18882.03342918439,-7033.0
18882.03349168163,-9847.0
18882.033554178863,-11948.0
18882.0336166761,-13068.0
18882.03367917334,-15446.0
18882.033741670577,-17433.0
18882.03380416781,-17705.0
18882.03386666505,-18532.0
18882.033929162288,-20284.0
18882.033991659526,-21720.0
18882.03405415676,-22887.0
18882.034116654,-24753.0
18882.034179151236,-26989.0
18882.03424164847,-27893.0
18882.03430414571,-28180.0
18882.034366642947,-29432.0
18882.034429140185,-30409.0
18882.03449163742,-30393.0
18882.034554134658,-29739.0
18882.034616631896,-25774.0
18882.034679129134,-17278.0
18882.03474162637,-9008.0
18882.034804123607,-1384.0
18882.034866620845,7782.0
18882.034929118083,13612.0
18882.034991615317,15918.0
18882.035054112555,19309.0
18882.035116609793,21406.0
18882.03517910703,19895.0
18882.035241604266,17212.0
18882.035304101504,14649.0
18882.035366598742,10772.0
18882.03542909598,6660.0
18882.035491593215,4901.0
18882.035554090453,4227.0
18882.03561658769,3219.0
18882.035679084926,1967.0
18882.035741582164,750.0
18882.0358040794,-382.0
18882.03586657664,-1830.0
18882.035929073878,-1998.0
18882.035991571112,-1129.0
18882.03605406835,-938.0
18882.03611656559,-140.0
18882.036179062823,1288.0
18882.03624156006,2504.0
18882.0363040573,4798.0
18882.036366554537,8159.0
18882.036429051772,10989.0
18882.03649154901,12858.0
18882.036554046248,14424.0
18882.036616543486,14694.0
18882.03667904072,13430.0
18882.03674153796,12489.0
18882.036804035197,11577.0
18882.036866532435,9540.0
18882.03692902967,7125.0
18882.036991526908,5435.0
18882.037054024146,4508.0
18882.037116521384,3918.0
18882.03717901862,4672.0
18882.037241515856,6497.0
18882.037304013094,7980.0
18882.037366510333,8654.0
18882.037429007567,8782.0
18882.037491504805,8536.0
18882.037554002043,7679.0
18882.037616499278,7041.0
18882.037678996516,6508.0
18882.037741493754,5621.0
18882.037803990992,5130.0
18882.03786648823,4864.0
18882.037928985465,4844.0
18882.037991482703,5467.0
18882.03805397994,6281.0
18882.038116477175,6786.0
18882.038178974413,7036.0
18882.03824147165,6960.0
18882.03830396889,6205.0
18882.038366466124,5320.0
18882.038428963362,5047.0
18882.0384914606,4794.0
18882.03855395784,4433.0
18882.038616455073,4560.0
18882.03867895231,4554.0
18882.03874144955,4431.0
18882.038803946787,4580.0
18882.03886644402,4527.0
18882.03892894126,3782.0
18882.038991438498,2676.0
18882.039053935736,1222.0
18882.03911643297,-1305.0
18882.03917893021,-3969.0
18882.039241427447,-6045.0
18882.039303924685,-8310.0
18882.03936642192,-10913.0
18882.039428919157,-12753.0
18882.039491416395,-13902.0
18882.03955391363,-15780.0
18882.039616410868,-17215.0
18882.039678908106,-17993.0
18882.039741405344,-19524.0
18882.03980390258,-20835.0
18882.039866399817,-22184.0
18882.039928897055,-23846.0
18882.039991394293,-25180.0
18882.040053891527,-26602.0
18882.040116388765,-27911.0
18882.040178886004,-28468.0
18882.04024138324,-28607.0
18882.040303880476,-29205.0
18882.040366377714,-29064.0
18882.040428874952,-26992.0
18882.04049137219,-23094.0
18882.040553869425,-16103.0
18882.040616366663,-8198.0
18882.0406788639,-893.0
18882.04074136114,7095.0
18882.040803858374,11900.0
18882.04086635561,14089.0
18882.04092885285,17475.0
18882.040991350088,18819.0
18882.041053847322,17330.0
18882.04111634456,15804.0
18882.0411788418,13945.0
18882.041241339037,10260.0
18882.04130383627,6707.0
18882.04136633351,5399.0
18882.041428830747,4188.0
18882.041491327982,2642.0
18882.04155382522,1797.0
18882.041616322458,773.0
18882.041678819696,-618.0
18882.04174131693,-1776.0
18882.04180381417,-1677.0
18882.041866311407,-589.0
18882.041928808645,135.0
18882.04199130588,1226.0
18882.042053803118,2596.0
18882.042116300356,3757.0
18882.042178797594,5635.0
18882.04224129483,8193.0
18882.042303792066,10496.0
18882.042366289304,12007.0
18882.042428786543,13173.0
18882.042491283777,13557.0
18882.042553781015,12681.0
18882.042616278253,11745.0
18882.04267877549,10851.0
18882.042741272726,9479.0
18882.042803769964,7558.0
18882.042866267202,5856.0
18882.042928764437,4886.0
18882.042991261675,3963.0
18882.043053758913,3662.0
18882.04311625615,4596.0
18882.04317875339,5819.0
18882.043241250623,6459.0
18882.04330374786,6973.0
18882.0433662451,7479.0
18882.043428742334,7096.0
18882.043491239572,6864.0
18882.04355373681,7303.0
18882.04361623405,7013.0
18882.043678731283,6684.0
18882.04374122852,7054.0
18882.04380372576,6862.0
18882.043866222997,6579.0
18882.04392872023,7225.0
18882.04399121747,7527.0
18882.044053714708,6803.0
18882.044116211946,6474.0
18882.04417870918,6374.0
18882.04424120642,5368.0
18882.044303703657,4722.0
18882.044366200895,4913.0
18882.04442869813,4812.0
18882.044491195367,4662.0
18882.044553692605,4802.0
18882.044616189844,4957.0
18882.044678687078,4828.0
18882.044741184316,4498.0
18882.044803681554,3936.0
18882.04486617879,2910.0
18882.044928676027,1641.0
18882.044991173265,-189.0
18882.045053670503,-2483.0
18882.045116167737,-4294.0
18882.045178664976,-6034.0
18882.045241162214,-8249.0
18882.04530365945,-10265.0
18882.045366156686,-12166.0
18882.045428653924,-14189.0
18882.045491151162,-16142.0
18882.0455536484,-17667.0
18882.045616145635,-18762.0
18882.045678642873,-19977.0
18882.04574114011,-21322.0
18882.04580363735,-22670.0
18882.045866134584,-24017.0
18882.045928631822,-25342.0
18882.04599112906,-26232.0
18882.046053626298,-26502.0
18882.046116123533,-27006.0
18882.04617862077,-27701.0
18882.04624111801,-28309.0
18882.046303615247,-28721.0
18882.04636611248,-27510.0
18882.04642860972,-22533.0
18882.046491106958,-14866.0
18882.046553604196,-7955.0
18882.04661610143,-236.0
18882.04667859867,8016.0
18882.046741095906,12108.0
18882.04680359314,14851.0
18882.04686609038,19097.0
18882.046928587617,20359.0
18882.046991084855,18427.0
18882.04705358209,16649.0
18882.047116079328,13986.0
18882.047178576566,9662.0
18882.047241073804,6305.0
18882.04730357104,4894.0
18882.047366068276,3717.0
18882.047428565515,2530.0
18882.047491062753,1418.0
18882.047553559987,214.0
18882.047616057225,-540.0
18882.047678554463,-1125.0
18882.0477410517,-849.0
18882.047803548936,168.0
18882.047866046174,670.0
18882.047928543412,1344.0
18882.04799104065,2160.0
18882.048053537885,3243.0
18882.048116035123,5534.0
18882.04817853236,8419.0
18882.048241029595,10602.0
18882.048303526833,12430.0
18882.04836602407,13978.0
18882.04842852131,13988.0
18882.048491018548,12995.0
18882.048553515782,12471.0
18882.04861601302,11657.0
18882.04867851026,9814.0
18882.048741007493,7679.0
18882.04880350473,6016.0
18882.04886600197,5092.0
18882.048928499207,4991.0
18882.04899099644,5320.0
18882.04905349368,6324.0
18882.049115990918,7892.0
18882.049178488156,8186.0
18882.04924098539,7615.0
18882.04930348263,8053.0
18882.049365979867,8229.0
18882.049428477105,7085.0
18882.04949097434,6411.0
18882.049553471577,6609.0
18882.049615968815,5750.0
18882.049678466054,4681.0
18882.049740963288,5396.0
18882.049803460526,6395.0
18882.049865957764,6461.0
18882.049928455002,6816.0
18882.049990952237,7366.0
18882.050053449475,6898.0
18882.050115946713,6007.0
18882.050178443948,5724.0
18882.050240941186,5454.0
18882.050303438424,4900.0
18882.050365935662,4572.0
18882.050428432896,4350.0
18882.050490930134,4073.0
18882.050553427373,4135.0
18882.05061592461,4433.0
18882.050678421845,4295.0
18882.050740919083,3697.0
18882.05080341632,2637.0
18882.05086591356,691.0
18882.050928410794,-1845.0
18882.050990908032,-3966.0
18882.05105340527,-5692.0
18882.051115902508,-8108.0
18882.051178399743,-10477.0
18882.05124089698,-11870.0
18882.05130339422,-13868.0
18882.051365891457,-16207.0
18882.05142838869,-16822.0
18882.05149088593,-17501.0
18882.051553383168,-19292.0
18882.051615880406,-20215.0
18882.05167837764,-21359.0
18882.05174087488,-23334.0
18882.051803372116,-24896.0
18882.051865869355,-26116.0
18882.05192836659,-26779.0
18882.051990863827,-27325.0
18882.052053361065,-27986.0
18882.0521158583,-28391.0
18882.052178355538,-28610.0
18882.052240852776,-27243.0
18882.052303350014,-22490.0
18882.05236584725,-15102.0
18882.052428344487,-7873.0
18882.052490841725,-269.0
18882.052553338963,7645.0
18882.052615836197,11956.0
18882.052678333435,14901.0
18882.052740830673,18829.0
18882.05280332791,19905.0
18882.052865825146,18333.0
18882.052928322384,16601.0
18882.052990819622,13813.0
18882.05305331686,9500.0
18882.053115814095,6045.0
18882.053178311333,4909.0
18882.05324080857,3802.0
18882.05330330581,2130.0
18882.053365803044,1446.0
18882.05342830028,698.0
18882.05349079752,-732.0
18882.053553294754,-1417.0
18882.053615791992,-636.0
18882.05367828923,238.0
18882.05374078647,371.0
18882.053803283707,1271.0
18882.05386578094,2318.0
18882.05392827818,3174.0
18882.053990775417,5214.0
18882.05405327265,7948.0
18882.05411576989,10417.0
18882.054178267128,12239.0
18882.054240764366,13291.0
18882.0543032616,13584.0
18882.05436575884,13063.0
18882.054428256077,12332.0
18882.054490753315,11545.0
18882.05455325055,10242.0
18882.054615747787,8401.0
18882.054678245026,6535.0
18882.054740742264,5158.0
18882.054803239498,4331.0
18882.054865736736,4659.0
18882.054928233974,5761.0
18882.054990731212,6801.0
18882.055053228447,7766.0
18882.055115725685,7998.0
18882.055178222923,7535.0
18882.05524072016,7335.0
18882.055303217396,7019.0
18882.055365714634,5931.0
18882.055428211872,5055.0
18882.055490709106,4639.0
18882.055553206344,3960.0
18882.055615703583,4250.0
18882.05567820082,5473.0
18882.055740698055,6320.0
18882.055803195293,7258.0
18882.05586569253,7861.0
18882.05592818977,7446.0
18882.055990687004,6716.0
18882.056053184242,6194.0
18882.05611568148,5593.0
18882.05617817872,4970.0
18882.056240675953,4849.0
18882.05630317319,4772.0
18882.05636567043,4394.0
18882.056428167667,4370.0
18882.0564906649,4640.0
18882.05655316214,4486.0
18882.056615659378,3942.0
18882.056678156616,3097.0
18882.05674065385,1678.0
18882.05680315109,-361.0
18882.056865648326,-2574.0
18882.056928145565,-4315.0
18882.0569906428,-5867.0
18882.057053140037,-7727.0
18882.057115637275,-9602.0
18882.057178134513,-11125.0
18882.057240631748,-12775.0
18882.057303128986,-14420.0
18882.057365626224,-15626.0
18882.05742812346,-17080.0
18882.057490620697,-18396.0
18882.057553117935,-19961.0
18882.057615615173,-22336.0
18882.057678112407,-23922.0
18882.057740609645,-24979.0
18882.057803106884,-26353.0
18882.05786560412,-27052.0
18882.057928101356,-27250.0
18882.057990598594,-27872.0
18882.058053095832,-28620.0
18882.05811559307,-28261.0
18882.058178090305,-26190.0
18882.058240587543,-21554.0
18882.05830308478,-14276.0
18882.05836558202,-7443.0
18882.058428079254,-828.0
18882.05849057649,6044.0
18882.05855307373,9931.0
18882.058615570968,12822.0
18882.058678068202,16523.0
18882.05874056544,18239.0
18882.05880306268,17585.0
18882.058865559913,16230.0
18882.05892805715,14220.0
18882.05899055439,10800.0
18882.059053051627,7843.0
18882.059115548866,6470.0
18882.0591780461,4910.0
18882.059240543338,3059.0
18882.059303040576,1325.0
18882.05936553781,-376.0
18882.05942803505,-1675.0
18882.059490532287,-2181.0
18882.059553029525,-1627.0
18882.05961552676,-568.0
18882.059678023998,318.0
18882.059740521236,1328.0
18882.059803018474,2227.0
18882.05986551571,3532.0
18882.059928012946,5811.0
18882.059990510184,8443.0
18882.060053007423,10573.0
18882.060115504657,12028.0
18882.060178001895,12930.0
18882.060240499133,12983.0
18882.06030299637,12384.0
18882.060365493606,11905.0
18882.060427990844,11263.0
18882.060490488082,9971.0
18882.06055298532,7996.0
18882.060615482555,6144.0
18882.060677979793,4664.0
18882.06074047703,3863.0
18882.060802974265,4322.0
18882.060865471503,5321.0
18882.06092796874,6735.0
18882.06099046598,7892.0
18882.061052963218,7982.0
18882.061115460452,8473.0
18882.06117795769,8787.0
18882.06124045493,8224.0
18882.061302952163,7965.0
18882.0613654494,7914.0
18882.06142794664,7070.0
18882.061490443877,5916.0
18882.06155294111,5775.0
18882.06161543835,5941.0
18882.061677935588,5694.0
18882.061740432826,5933.0
18882.06180293006,6269.0
18882.0618654273,5882.0
18882.061927924537,5471.0
18882.061990421775,5534.0
18882.06205291901,5361.0
18882.062115416247,5084.0
18882.062177913485,5330.0
18882.062240410723,5315.0
18882.062302907958,4739.0
18882.062365405196,4496.0
18882.062427902434,4661.0
18882.062490399672,4317.0
18882.062552896907,3554.0
18882.062615394145,2873.0
18882.062677891383,1611.0
18882.062740388617,-478.0
18882.062802885855,-2666.0
18882.062865383094,-4650.0
18882.06292788033,-6646.0
18882.062990377566,-9086.0
18882.063052874804,-11565.0
18882.063115372042,-13561.0
18882.06317786928,-15459.0
18882.063240366515,-17170.0
18882.063302863753,-18229.0
18882.06336536099,-18781.0
18882.06342785823,-19971.0
18882.063490355464,-21826.0
18882.063552852702,-23009.0
18882.06361534994,-24176.0
18882.063677847178,-25792.0
18882.063740344413,-26738.0
18882.06380284165,-27237.0
18882.06386533889,-28060.0
18882.063927836127,-29128.0
18882.06399033336,-29361.0
18882.0640528306,-27874.0
18882.064115327837,-23344.0
18882.064177825076,-15275.0
18882.06424032231,-7804.0
18882.064302819548,-624.0
18882.064365316786,7843.0
18882.064427814024,12958.0
18882.06449031126,15583.0
18882.064552808497,18742.0
18882.064615305735,20149.0
18882.06467780297,18485.0
18882.064740300208,15523.0
18882.064802797446,12780.0
18882.064865294684,9171.0
18882.06492779192,5634.0
18882.064990289156,4131.0
18882.065052786395,3513.0
18882.065115283633,2633.0
18882.065177780867,1328.0
18882.065240278105,295.0
18882.065302775343,-438.0
18882.06536527258,-1413.0
18882.065427769816,-1190.0
18882.065490267054,-286.0
18882.065552764292,112.0
18882.06561526153,922.0
18882.065677758765,1754.0
18882.065740256003,3067.0
18882.06580275324,5483.0
18882.06586525048,8297.0
18882.065927747713,10803.0
18882.06599024495,12684.0
18882.06605274219,14030.0
18882.066115239424,14229.0
18882.066177736662,13470.0
18882.0662402339,12538.0
18882.06630273114,11243.0
18882.066365228377,9625.0
18882.06642772561,7404.0
18882.06649022285,5142.0
18882.066552720087,3961.0
18882.06661521732,3695.0
18882.06667771456,3923.0
18882.066740211798,4898.0
18882.066802709036,6765.0
18882.06686520627,7699.0
18882.06692770351,7390.0
18882.066990200747,7784.0
18882.067052697985,8169.0
18882.06711519522,7366.0
18882.067177692457,6479.0
18882.067240189695,6408.0
18882.067302686934,6145.0
18882.067365184168,5276.0
18882.067427681406,5250.0
18882.067490178644,6095.0
18882.067552675882,6385.0
18882.067615173117,6334.0
18882.067677670355,6498.0
18882.067740167593,6341.0
18882.06780266483,5681.0
18882.067865162066,5157.0
18882.067927659304,5076.0
18882.06799015654,4874.0
18882.068052653776,4644.0
18882.068115151014,4723.0
18882.068177648252,4635.0
18882.06824014549,4658.0
18882.068302642725,5045.0
18882.068365139963,5064.0
18882.0684276372,4613.0
18882.06849013444,3905.0
18882.068552631674,2383.0
18882.068615128912,177.0
18882.06867762615,-2004.0
18882.068740123388,-4141.0
18882.068802620623,-6322.0
18882.06886511786,-8181.0
18882.0689276151,-9970.0
18882.068990112337,-11654.0
18882.06905260957,-12831.0
18882.06911510681,-14152.0
18882.069177604048,-15491.0
18882.069240101286,-16192.0
18882.06930259852,-17041.0
18882.06936509576,-18970.0
18882.069427592996,-20831.0
18882.069490090234,-22061.0
18882.06955258747,-24189.0
18882.069615084707,-26043.0
18882.069677581945,-26605.0
18882.069740079183,-27306.0
18882.069802576418,-28307.0
18882.069865073656,-29034.0
18882.069927570894,-29405.0
18882.06999006813,-28913.0
18882.070052565366,-25985.0
18882.070115062605,-19151.0
18882.070177559843,-11137.0
18882.070240057077,-4165.0
18882.070302554315,4042.0
18882.070365051553,11022.0
18882.07042754879,14376.0
18882.070490046026,17294.0
18882.070552543264,19925.0
18882.070615040502,20032.0
18882.07067753774,17440.0
18882.070740034975,14532.0
18882.070802532213,11641.0
18882.07086502945,7657.0
18882.07092752669,4926.0
18882.070990023924,4084.0
18882.07105252116,3237.0
18882.0711150184,1765.0
18882.071177515638,146.0
18882.071240012872,-724.0
18882.07130251011,-1548.0
18882.07136500735,-2361.0
18882.071427504583,-1638.0
18882.07149000182,-458.0
18882.07155249906,-77.0
18882.071614996297,584.0
18882.071677493535,2190.0
18882.07173999077,4463.0
18882.071802488008,7056.0
18882.071864985246,10016.0
18882.07192748248,12391.0
18882.07198997972,13673.0
18882.072052476957,14254.0
18882.072114974195,13723.0
18882.07217747143,12629.0
18882.072239968667,11729.0
18882.072302465906,10332.0
18882.072364963144,8140.0
18882.072427460378,5803.0
18882.072489957616,4130.0
18882.072552454854,2799.0
18882.072614952092,2543.0
18882.072677449327,3960.0
18882.072739946565,5497.0
18882.072802443803,7230.0
18882.07286494104,8939.0
18882.072927438276,9316.0
18882.072989935514,9365.0
18882.073052432752,9509.0
18882.07311492999,8896.0
18882.073177427224,7718.0
18882.073239924463,7106.0
18882.0733024217,6505.0
18882.073364918935,5030.0
18882.073427416173,4559.0
18882.07348991341,5230.0
18882.07355241065,5093.0
18882.073614907884,4833.0
18882.073677405122,5346.0
18882.07373990236,5394.0
18882.0738023996,4471.0
18882.073864896833,4158.0
18882.07392739407,4614.0
18882.07398989131,4561.0
18882.074052388547,4542.0
18882.07411488578,5099.0
18882.07417738302,5288.0
18882.074239880258,5196.0
18882.074302377496,5458.0
18882.07436487473,5368.0
18882.07442737197,4380.0
18882.074489869206,2968.0
18882.074552366445,1047.0
18882.07461486368,-1682.0
18882.074677360917,-4411.0
18882.074739858155,-6350.0
18882.074802355393,-8286.0
18882.074864852628,-10525.0
18882.074927349866,-12074.0
18882.074989847104,-13456.0
18882.075052344342,-15193.0
18882.075114841577,-16215.0
18882.075177338815,-16899.0
18882.075239836053,-17964.0
18882.075302333287,-18976.0
18882.075364830525,-20602.0
18882.075427327763,-22613.0
18882.075489825,-24059.0
18882.075552322236,-25729.0
18882.075614819474,-27180.0
18882.075677316712,-27304.0
18882.07573981395,-27631.0
18882.075802311185,-28779.0
18882.075864808423,-28427.0
18882.07592730566,-26735.0
18882.0759898029,-23595.0
18882.076052300134,-16613.0
18882.07611479737,-9181.0
18882.07617729461,-3094.0
18882.076239791848,4389.0
18882.076302289082,9822.0
18882.07636478632,12423.0
18882.07642728356,15671.0
18882.076489780797,17916.0
18882.07655227803,17763.0
18882.07661477527,16095.0
18882.076677272507,13611.0
18882.076739769742,10917.0
18882.07680226698,7955.0
18882.076864764218,5616.0
18882.076927261456,4656.0
18882.076989758694,3744.0
18882.07705225593,1835.0
18882.077114753167,123.0
18882.077177250405,-632.0
18882.07723974764,-1561.0
18882.077302244878,-1913.0
18882.077364742116,-930.0
18882.077427239354,-33.0
18882.077489736588,584.0
18882.077552233826,1459.0
18882.077614731064,2926.0
18882.077677228302,5239.0
18882.077739725537,7888.0
18882.077802222775,10245.0
18882.077864720013,11920.0
18882.07792721725,13080.0
18882.077989714486,13272.0
18882.078052211724,12572.0
18882.078114708962,11889.0
18882.0781772062,11143.0
18882.078239703435,9767.0
18882.078302200673,7668.0
18882.07836469791,5821.0
18882.07842719515,4524.0
18882.078489692383,3014.0
18882.07855218962,2607.0
18882.07861468686,3833.0
18882.078677184094,4806.0
18882.078739681332,5294.0
18882.07880217857,6102.0
18882.07886467581,6823.0
18882.078927173046,7350.0
18882.07898967028,7620.0
18882.07905216752,7931.0
18882.079114664757,8574.0
18882.07917716199,8455.0
18882.07923965923,7660.0
18882.079302156468,7643.0
18882.079364653706,7792.0
18882.07942715094,7292.0
18882.07948964818,6954.0
18882.079552145417,6820.0
18882.079614642655,6180.0
18882.07967713989,5099.0
18882.079739637127,4385.0
18882.079802134365,4282.0
18882.079864631603,4090.0
18882.079927128838,3922.0
18882.079989626076,4269.0
18882.080052123314,4654.0
18882.080114620552,4416.0
18882.080177117787,4233.0
18882.080239615025,4522.0
18882.080302112263,4434.0
18882.0803646095,3934.0
18882.080427106735,3231.0
18882.080489603974,2059.0
18882.08055210121,473.0
18882.080614598446,-1556.0
18882.080677095684,-3636.0
18882.080739592922,-5176.0
18882.08080209016,-7080.0
18882.080864587395,-9703.0
18882.080927084633,-11633.0
18882.08098958187,-13211.0
18882.08105207911,-15344.0
18882.081114576344,-16658.0
18882.08117707358,-17358.0
18882.08123957082,-18506.0
18882.081302068058,-19532.0
18882.081364565292,-21003.0
18882.08142706253,-22424.0
18882.08148955977,-23366.0
18882.081552057007,-24705.0
18882.08161455424,-25370.0
18882.08167705148,-25385.0
18882.081739548717,-26031.0
18882.081802045956,-26981.0
18882.08186454319,-27507.0
18882.081927040428,-27466.0
18882.081989537666,-25163.0
18882.082052034904,-18583.0
18882.08211453214,-10958.0
18882.082177029377,-4394.0
18882.082239526615,3381.0
18882.082302023853,9564.0
18882.082364521088,12616.0
18882.082427018326,16382.0
18882.082489515564,19376.0
18882.0825520128,19358.0
18882.082614510036,18201.0
18882.082677007274,15917.0
18882.082739504513,12009.0
18882.082802001747,8125.0
18882.082864498985,5936.0
18882.082926996223,4565.0
18882.08298949346,3047.0
18882.083051990696,1988.0
18882.083114487934,805.0
18882.083176985172,-680.0
18882.08323948241,-1706.0
18882.083301979645,-1697.0
18882.083364476883,-731.0
18882.08342697412,-248.0
18882.08348947136,93.0
18882.083551968593,1120.0
18882.08361446583,2006.0
18882.08367696307,3575.0
18882.083739460308,6592.0
18882.083801957542,9585.0
18882.08386445478,11532.0
18882.08392695202,13080.0
18882.083989449253,13972.0
18882.08405194649,13373.0
18882.08411444373,12468.0
18882.084176940967,11791.0
18882.084239438205,10227.0
18882.08430193544,8104.0
18882.084364432678,6242.0
18882.084426929916,4686.0
18882.08448942715,3706.0
18882.08455192439,3930.0
18882.084614421627,5033.0
18882.084676918865,6284.0
18882.0847394161,7736.0
18882.084801913337,8659.0
18882.084864410575,8491.0
18882.084926907813,8224.0
18882.084989405048,7908.0
18882.085051902286,7121.0
18882.085114399524,6282.0
18882.085176896762,5655.0
18882.085239393997,5195.0
18882.085301891235,4862.0
18882.085364388473,4815.0
18882.08542688571,5270.0
18882.085489382946,5889.0
18882.085551880184,5931.0
18882.08561437742,5747.0
18882.08567687466,5837.0
18882.085739371894,5373.0
18882.085801869132,4681.0
18882.08586436637,4584.0
18882.085926863605,4607.0
18882.085989360843,4450.0
18882.08605185808,4352.0
18882.08611435532,4611.0
18882.086176852554,4837.0
18882.086239349792,4770.0
18882.08630184703,4734.0
18882.086364344268,4328.0
18882.086426841503,3282.0
18882.08648933874,1810.0
18882.08655183598,-155.0
18882.086614333217,-2480.0
18882.08667683045,-4758.0
18882.08673932769,-6594.0
18882.086801824928,-8407.0
18882.086864322166,-10449.0
18882.0869268194,-11834.0
18882.08698931664,-13058.0
18882.087051813876,-14714.0
18882.087114311114,-15828.0
18882.08717680835,-16633.0
18882.087239305587,-17911.0
18882.087301802825,-19326.0
18882.087364300063,-20585.0
18882.087426797298,-22043.0
18882.087489294536,-23722.0
18882.087551791774,-24850.0
18882.087614289012,-25618.0
18882.087676786246,-26178.0
18882.087739283485,-26556.0
18882.087801780723,-27326.0
18882.087864277957,-27975.0
18882.087926775195,-27708.0
18882.087989272433,-24505.0
18882.08805176967,-17343.0
18882.088114266906,-10414.0
18882.088176764144,-3496.0
18882.088239261382,5356.0
18882.08830175862,10852.0
18882.088364255855,13362.0
18882.088426753093,17127.0
18882.08848925033,19428.0
18882.08855174757,18451.0
18882.088614244803,16502.0
18882.08867674204,14311.0
18882.08873923928,10598.0
18882.088801736518,6597.0
18882.088864233752,4799.0
18882.08892673099,3909.0
18882.08898922823,2740.0
18882.089051725467,1768.0
18882.0891142227,779.0
18882.08917671994,-325.0
18882.089239217177,-1392.0
18882.08930171441,-1392.0
18882.08936421165,-494.0
18882.089426708888,29.0
18882.089489206126,661.0
18882.089551703364,1267.0
18882.0896142006,2294.0
18882.089676697837,4505.0
18882.089739195075,7178.0
18882.08980169231,9590.0
18882.089864189547,11757.0
18882.089926686785,13346.0
18882.089989184024,13426.0
18882.090051681258,12460.0
18882.090114178496,11554.0
18882.090176675734,10550.0
18882.090239172972,9091.0
18882.090301670207,7153.0
18882.090364167445,5444.0
18882.090426664683,4303.0
18882.09048916192,3579.0
18882.090551659156,4017.0
18882.090614156394,5500.0
18882.09067665363,7181.0
18882.09073915087,8417.0
18882.090801648104,8807.0
18882.090864145342,8795.0
18882.09092664258,8388.0
18882.09098913982,7814.0
18882.091051637053,7329.0
18882.09111413429,6546.0
18882.09117663153,5899.0
18882.091239128764,5255.0
18882.091301626002,4487.0
18882.09136412324,4473.0
18882.091426620478,5077.0
18882.091489117713,5475.0
18882.09155161495,5336.0
18882.09161411219,5253.0
18882.091676609427,5005.0
18882.09173910666,4253.0
18882.0918016039,3924.0
18882.091864101138,4182.0
18882.091926598376,4414.0
18882.09198909561,4226.0
18882.09205159285,4130.0
18882.092114090086,4628.0
18882.092176587325,4720.0
18882.09223908456,4654.0
18882.092301581797,5257.0
18882.092364079035,5104.0
18882.092426576273,3596.0
18882.092489073508,1909.0
18882.092551570746,-97.0
18882.092614067984,-2644.0
18882.092676565222,-4896.0
18882.092739062457,-6638.0
18882.092801559695,-8934.0
18882.092864056933,-11257.0
18882.09292655417,-12805.0
18882.092989051405,-14757.0
18882.093051548643,-16355.0
18882.09311404588,-16757.0
18882.093176543116,-17704.0
18882.093239040354,-19242.0
18882.093301537592,-20516.0
18882.09336403483,-22052.0
18882.093426532065,-23642.0
18882.093489029303,-24622.0
18882.09355152654,-25501.0
18882.09361402378,-25910.0
18882.093676521014,-26193.0
18882.09373901825,-27359.0
18882.09380151549,-28069.0
18882.093864012728,-27930.0
18882.093926509962,-26951.0
18882.0939890072,-21924.0
18882.09405150444,-13973.0
18882.094114001677,-7387.0
18882.09417649891,259.0
18882.09423899615,8519.0
18882.094301493387,12802.0
18882.094363990625,15442.0
18882.09442648786,19035.0
18882.094488985098,20535.0
18882.094551482336,18701.0
18882.09461397957,16076.0
18882.09467647681,13257.0
18882.094738974047,9142.0
18882.094801471285,5283.0
18882.094863968523,3516.0
18882.094926465757,2845.0
18882.094988962996,1623.0
18882.095051460234,294.0
18882.095113957468,-208.0
18882.095176454706,-1011.0
18882.095238951944,-1931.0
18882.095301449182,-1321.0
18882.095363946417,-288.0
18882.095426443655,176.0
18882.095488940893,693.0
18882.09555143813,1580.0
18882.095613935366,3150.0
18882.095676432604,5599.0
18882.095738929842,8508.0
18882.09580142708,10956.0
18882.095863924314,13079.0
18882.095926421553,14330.0
18882.09598891879,13676.0
18882.09605141603,12545.0
18882.096113913263,11820.0
18882.0961764105,10465.0
18882.09623890774,8189.0
18882.096301404978,5824.0
18882.096363902212,4048.0
18882.09642639945,2497.0
18882.09648889669,1776.0
18882.096551393923,2711.0
18882.09661389116,4538.0
18882.0966763884,6052.0
18882.096738885637,7236.0
18882.09680138287,8392.0
18882.09686388011,8867.0
18882.096926377348,8902.0
18882.096988874586,9036.0
18882.09705137182,8694.0
18882.09711386906,7920.0
18882.097176366296,6824.0
18882.097238863535,5529.0
18882.09730136077,5059.0
18882.097363858007,5315.0
18882.097426355245,5323.0
18882.097488852483,5436.0
18882.097551349718,5793.0
18882.097613846956,5456.0
18882.097676344194,4591.0
18882.097738841432,4334.0
18882.097801338667,4422.0
18882.097863835905,4264.0
18882.097926333143,4372.0
18882.09798883038,4758.0
18882.098051327615,4924.0
18882.098113824853,4997.0
18882.09817632209,5451.0
18882.09823881933,5825.0
18882.098301316564,5360.0
18882.098363813802,4357.0
18882.09842631104,2994.0
18882.098488808275,937.0
18882.098551305513,-1675.0
18882.09861380275,-3989.0
18882.09867629999,-5693.0
18882.098738797224,-7630.0
18882.09880129446,-9881.0
18882.0988637917,-11648.0
18882.098926288938,-13222.0
18882.098988786172,-14954.0
18882.09905128341,-16224.0
18882.09911378065,-16932.0
18882.099176277887,-17879.0
18882.09923877512,-19370.0
18882.09930127236,-20739.0
18882.099363769597,-22094.0
18882.099426266836,-23760.0
18882.09948876407,-24854.0
18882.099551261308,-25352.0
18882.099613758546,-25673.0
18882.099676255784,-26103.0
18882.09973875302,-27041.0
18882.099801250257,-27909.0
18882.099863747495,-27857.0
18882.09992624473,-25359.0
18882.099988741968,-18916.0
18882.100051239206,-11418.0
18882.100113736444,-4298.0
18882.100176233682,3909.0
18882.100238730916,10082.0
18882.100301228154,13262.0
18882.100363725393,16582.0
18882.100426222627,19392.0
18882.100488719865,19417.0
18882.100551217103,17283.0
18882.10061371434,14891.0
18882.100676211576,11443.0
18882.100738708814,7229.0
18882.100801206052,4984.0
18882.10086370329,4077.0
18882.100926200525,2995.0
18882.100988697763,1724.0
18882.101051195,564.0
18882.10111369224,-438.0
18882.101176189473,-1703.0
18882.10123868671,-1986.0
18882.10130118395,-844.0
18882.101363681188,-192.0
18882.101426178422,284.0
18882.10148867566,1287.0
18882.1015511729,2508.0
18882.101613670136,4544.0
18882.10167616737,7415.0
18882.10173866461,10121.0
18882.101801161847,12000.0
18882.10186365908,13213.0
18882.10192615632,13500.0
18882.101988653558,12548.0
18882.102051150796,11536.0
18882.102113648034,10758.0
18882.10217614527,9172.0
18882.102238642507,7056.0
18882.102301139745,5269.0
18882.10236363698,3588.0
18882.102426134217,2020.0
18882.102488631455,1687.0
18882.102551128693,2599.0
18882.102613625928,4625.0
18882.102676123166,6357.0
18882.102738620404,7277.0
18882.102801117642,9278.0
18882.102863614877,10248.0
18882.102926112115,9442.0
18882.102988609353,9395.0
18882.10305110659,9387.0
18882.103113603825,8146.0
18882.103176101064,6377.0
18882.1032385983,5894.0
18882.10330109554,5922.0
18882.103363592774,4812.0
18882.103426090012,4655.0
18882.10348858725,5630.0
18882.10355108449,5124.0
18882.103613581723,4178.0
18882.10367607896,4355.0
18882.1037385762,4190.0
18882.103801073434,3344.0
18882.103863570672,3498.0
18882.10392606791,4384.0
18882.103988565148,4598.0
18882.104051062382,4831.0
18882.10411355962,5634.0
18882.10417605686,6037.0
18882.104238554097,6032.0
18882.10430105133,5835.0
18882.10436354857,4845.0
18882.104426045807,3109.0
18882.104488543046,1026.0
18882.10455104028,-1436.0
18882.104613537518,-3903.0
18882.104676034756,-6109.0
18882.104738531994,-7935.0
18882.10480102923,-9717.0
18882.104863526467,-11740.0
18882.104926023705,-13233.0
18882.104988520943,-14527.0
18882.105051018178,-16077.0
18882.105113515416,-16943.0
18882.105176012654,-17583.0
18882.105238509892,-18909.0
18882.105301007126,-20529.0
18882.105363504365,-21821.0
18882.105426001603,-22930.0
18882.10548849884,-24350.0
18882.105550996075,-25341.0
18882.105613493313,-25346.0
18882.10567599055,-25985.0
18882.105738487786,-27656.0
18882.105800985024,-28156.0
18882.105863482262,-27511.0
18882.1059259795,-26318.0
18882.105988476735,-20883.0
18882.106050973973,-12372.0
18882.10611347121,-5594.0
18882.10617596845,1829.0
18882.106238465683,9540.0
18882.10630096292,13802.0
18882.10636346016,16432.0
18882.106425957398,19012.0
18882.106488454632,19743.0
18882.10655095187,18028.0
18882.10661344911,15225.0
18882.106675946347,11881.0
18882.10673844358,8460.0
18882.10680094082,5739.0
18882.106863438057,3694.0
18882.106925935295,2693.0
18882.10698843253,1835.0
18882.107050929768,191.0
18882.107113427006,-963.0
18882.10717592424,-1571.0
18882.10723842148,-2062.0
18882.107300918717,-1637.0
18882.107363415955,-707.0
18882.107425913193,111.0
18882.107488410427,1100.0
18882.107550907665,2312.0
18882.107613404904,4102.0
18882.107675902138,6742.0
18882.107738399376,9370.0
18882.107800896614,11291.0
18882.107863393852,12668.0
18882.107925891087,13238.0
18882.107988388325,12799.0
18882.108050885563,11799.0
18882.1081133828,10776.0
18882.108175880036,9665.0
18882.108238377274,7825.0
18882.10830087451,5725.0
18882.10836337175,4123.0
18882.108425868984,2790.0
18882.108488366222,2386.0
18882.10855086346,2734.0
18882.1086133607,3336.0
18882.108675857933,5099.0
18882.10873835517,6359.0
18882.10880085241,6487.0
18882.108863349647,7612.0
18882.108925846882,8440.0
18882.10898834412,8133.0
18882.109050841358,8245.0
18882.109113338593,8543.0
18882.10917583583,7945.0
18882.10923833307,7107.0
18882.109300830307,6995.0
18882.10936332754,6678.0
18882.10942582478,6275.0
18882.109488322018,6167.0
18882.109550819256,5651.0
18882.10961331649,5253.0
18882.10967581373,4936.0
18882.109738310966,4270.0
18882.109800808204,3968.0
18882.10986330544,4062.0
18882.109925802677,4058.0
18882.109988299915,4066.0
18882.110050797153,4342.0
18882.110113294388,4742.0
18882.110175791626,4760.0
18882.110238288864,4485.0
18882.110300786102,4338.0
18882.110363283336,3858.0
18882.110425780575,2484.0
18882.110488277813,857.0
18882.11055077505,-650.0
18882.110613272285,-2764.0
18882.110675769523,-5275.0
18882.11073826676,-6993.0
18882.110800764,-8781.0
18882.110863261234,-11411.0
18882.110925758472,-13201.0
18882.11098825571,-14635.0
18882.111050752945,-16792.0
18882.111113250183,-17881.0
18882.11117574742,-18448.0
18882.11123824466,-19544.0
18882.111300741894,-20253.0
18882.11136323913,-20983.0
18882.11142573637,-21904.0
18882.111488233608,-22934.0
18882.111550730842,-23837.0
18882.11161322808,-24100.0
18882.11167572532,-24640.0
18882.111738222557,-25661.0
18882.11180071979,-26573.0
18882.11186321703,-26937.0
18882.111925714267,-25998.0
18882.111988211505,-22130.0
18882.11205070874,-15238.0
18882.112113205978,-8639.0
18882.112175703216,-1359.0
18882.112238200454,6788.0
18882.11230069769,11353.0
18882.112363194927,14333.0
18882.112425692165,17846.0
18882.1124881894,19198.0
18882.112550686637,17883.0
18882.112613183876,15394.0
18882.112675681114,12768.0
18882.11273817835,8911.0
18882.112800675586,4946.0
18882.112863172824,3488.0
18882.112925670062,2781.0
18882.112988167297,1664.0
18882.113050664535,920.0
18882.113113161773,598.0
18882.11317565901,55.0
18882.113238156246,-806.0
18882.113300653484,-411.0
18882.113363150722,497.0
18882.11342564796,734.0
18882.113488145194,1237.0
18882.113550642433,1934.0
18882.11361313967,3231.0
18882.11367563691,5284.0
18882.113738134143,7653.0
18882.11380063138,9920.0
18882.11386312862,11704.0
18882.113925625858,12751.0
18882.113988123092,12538.0
18882.11405062033,11695.0
18882.11411311757,10890.0
18882.114175614806,9685.0
18882.11423811204,7972.0
18882.11430060928,5978.0
18882.114363106517,4452.0
18882.11442560375,3008.0
18882.11448810099,1695.0
18882.114550598228,1975.0
18882.114613095466,3580.0
18882.1146755927,4974.0
18882.11473808994,6465.0
18882.114800587176,8458.0
18882.114863084415,9630.0
18882.11492558165,9673.0
18882.114988078887,9323.0
18882.115050576125,8961.0
18882.115113073363,8382.0
18882.115175570598,7036.0
18882.115238067836,5963.0
18882.115300565074,5768.0
18882.115363062312,5424.0
18882.115425559547,5078.0
18882.115488056785,5327.0
18882.115550554023,5431.0
18882.11561305126,5169.0
18882.115675548495,4835.0
18882.115738045733,4305.0
18882.11580054297,3788.0
18882.11586304021,3534.0
18882.115925537444,3613.0
18882.115988034682,4029.0
18882.11605053192,4656.0
18882.11611302916,5195.0
18882.116175526393,5475.0
18882.11623802363,5691.0
18882.11630052087,5586.0
18882.116363018104,4903.0
18882.11642551534,3850.0
18882.11648801258,2334.0
18882.116550509818,218.0
18882.116613007052,-2106.0
18882.11667550429,-4615.0
18882.11673800153,-6664.0
18882.116800498767,-8208.0
18882.116862996,-10399.0
18882.11692549324,-12308.0
18882.116987990477,-13584.0
18882.117050487715,-15396.0
18882.11711298495,-16933.0
18882.117175482188,-17771.0
18882.117237979426,-18680.0
18882.117300476664,-19879.0
18882.1173629739,-21163.0
18882.117425471137,-22449.0
18882.117487968375,-23723.0
18882.117550465613,-24654.0
18882.117612962847,-25044.0
18882.117675460086,-25212.0
18882.117737957324,-25621.0
18882.117800454558,-26618.0
18882.117862951796,-27283.0
18882.117925449034,-26875.0
18882.117987946272,-23888.0
18882.11805044351,-16722.0
18882.118112940745,-9146.0
18882.118175437983,-2229.0
18882.11823793522,5846.0
18882.118300432456,11343.0
18882.118362929694,14089.0
18882.118425426932,17300.0
18882.11848792417,19541.0
18882.118550421405,19036.0
18882.118612918643,16967.0
18882.11867541588,14198.0
18882.11873791312,10164.0
18882.118800410353,6256.0
18882.11886290759,4362.0
18882.11892540483,3390.0
18882.118987902068,2458.0
18882.119050399302,1580.0
18882.11911289654,500.0
18882.11917539378,-633.0
18882.119237891016,-1594.0
18882.11930038825,-1338.0
18882.11936288549,-277.0
18882.119425382727,223.0
18882.119487879965,900.0
18882.1195503772,1817.0
18882.119612874438,2752.0
18882.119675371676,4457.0
18882.11973786891,7122.0
18882.11980036615,9833.0
18882.119862863387,11715.0
18882.119925360625,12923.0
18882.11998785786,13202.0
18882.120050355097,12405.0
18882.120112852335,11490.0
18882.120175349573,10599.0
18882.120237846808,9194.0
18882.120300344046,7167.0
18882.120362841284,5175.0
18882.120425338522,3673.0
18882.120487835757,3052.0
18882.120550332995,3427.0
18882.120612830233,4528.0
18882.12067532747,6600.0
18882.120737824705,8302.0
18882.120800321944,8543.0
18882.12086281918,8767.0
18882.12092531642,9026.0
18882.120987813654,8435.0
18882.121050310892,7601.0
18882.12111280813,7233.0
18882.12117530537,6778.0
18882.121237802603,5512.0
18882.12130029984,4818.0
18882.12136279708,5328.0
18882.121425294317,5597.0
18882.12148779155,5670.0
18882.12155028879,5943.0
18882.121612786028,5867.0
18882.121675283262,5112.0
18882.1217377805,4302.0
18882.12180027774,4013.0
18882.121862774977,4035.0
18882.12192527221,4231.0
18882.12198776945,4336.0
18882.122050266687,4703.0
18882.122112763926,5206.0
18882.12217526116,5316.0
18882.122237758398,5461.0
18882.122300255636,5632.0
18882.122362752874,4966.0
18882.12242525011,3248.0
18882.122487747347,1359.0
18882.122550244585,-784.0
18882.122612741823,-3408.0
18882.122675239058,-5766.0
18882.122737736296,-7458.0
18882.122800233534,-9234.0
18882.122862730772,-11669.0
18882.122925228006,-13423.0
18882.122987725244,-14521.0
18882.123050222483,-16119.0
18882.123112719717,-17222.0
18882.123175216955,-17500.0
18882.123237714193,-18386.0
18882.12330021143,-20369.0
18882.12336270867,-21757.0
18882.123425205904,-22573.0
18882.123487703142,-24456.0
18882.12355020038,-25437.0
18882.123612697615,-24817.0
18882.123675194853,-25479.0
18882.12373769209,-26645.0
18882.12380018933,-26720.0
18882.123862686563,-26617.0
18882.1239251838,-25848.0
18882.12398768104,-21409.0
18882.124050178278,-13505.0
18882.124112675512,-7287.0
18882.12417517275,-1032.0
18882.12423766999,6652.0
18882.124300167226,10817.0
18882.12436266446,14162.0
18882.1244251617,18574.0
18882.124487658937,20042.0
18882.124550156175,19193.0
18882.12461265341,17476.0
18882.124675150648,14221.0
18882.124737647886,10050.0
18882.124800145124,6726.0
18882.12486264236,4926.0
18882.124925139597,3263.0
18882.124987636835,1666.0
18882.12505013407,596.0
18882.125112631307,-584.0
18882.125175128545,-1537.0
18882.125237625783,-1489.0
18882.12530012302,-333.0
18882.125362620256,614.0
18882.125425117494,978.0
18882.125487614732,1793.0
18882.125550111967,2399.0
18882.125612609205,3277.0
18882.125675106443,5503.0
18882.12573760368,8064.0
18882.125800100916,9793.0
18882.125862598154,11134.0
18882.12592509539,12230.0
18882.12598759263,12130.0
18882.126050089864,11292.0
18882.126112587102,10946.0
18882.12617508434,10382.0
18882.12623758158,8759.0
18882.126300078813,6587.0
18882.12636257605,4787.0
18882.12642507329,3137.0
18882.126487570527,1714.0
18882.126550067762,1847.0
18882.126612565,3093.0
18882.126675062238,3781.0
18882.126737559476,5254.0
18882.12680005671,7827.0
18882.12686255395,8824.0
18882.126925051187,9974.0
18882.12698754842,11811.0
18882.12705004566,11275.0
18882.127112542898,10134.0
18882.127175040136,9605.0
18882.12723753737,7931.0
18882.12730003461,6068.0
18882.127362531846,5755.0
18882.127425029084,5757.0
18882.12748752632,4966.0
18882.127550023557,4580.0
18882.127612520795,4764.0
18882.127675018033,4448.0
18882.127737515268,3917.0
18882.127800012506,4119.0
18882.127862509744,4334.0
18882.127925006982,3927.0
18882.127987504216,3772.0
18882.128050001455,4096.0
18882.128112498693,4285.0
18882.12817499593,4441.0
18882.128237493165,4819.0
18882.128299990403,4772.0
18882.12836248764,3939.0
18882.12842498488,2788.0
18882.128487482114,1353.0
18882.128549979352,-795.0
18882.12861247659,-3229.0
18882.12867497383,-5608.0
18882.128737471063,-8114.0
18882.1287999683,-11138.0
18882.12886246554,-13739.0
18882.128924962773,-15250.0
18882.12898746001,-17145.0
18882.12904995725,-18936.0
18882.129112454488,-19120.0
18882.129174951722,-19667.0
18882.12923744896,-21250.0
18882.1292999462,-21841.0
18882.129362443437,-22168.0
18882.12942494067,-23962.0
18882.12948743791,-25513.0
18882.129549935147,-25674.0
18882.129612432385,-26795.0
18882.12967492962,-28535.0
18882.129737426858,-28819.0
18882.129799924096,-28742.0
18882.129862421334,-27426.0
18882.12992491857,-22050.0
18882.129987415807,-14354.0
18882.130049913045,-7262.0
18882.130112410283,880.0
18882.130174907517,8875.0
18882.130237404755,13056.0
18882.130299901994,15953.0
18882.130362399228,18873.0
18882.130424896466,19369.0
18882.130487393704,17553.0
18882.130549890942,14641.0
18882.13061238818,11742.0
18882.130674885415,8271.0
18882.130737382653,4613.0
18882.13079987989,3485.0
18882.130862377126,3406.0
18882.130924874364,2213.0
18882.1309873716,1127.0
18882.13104986884,782.0
18882.131112366074,-162.0
18882.131174863312,-1564.0
18882.13123736055,-1353.0
18882.13129985779,-446.0
18882.131362355023,-457.0
18882.13142485226,84.0
18882.1314873495,1454.0
18882.131549846737,3320.0
18882.131612343972,5774.0
18882.13167484121,8394.0
18882.131737338448,11121.0
18882.131799835686,12930.0
18882.13186233292,13324.0
18882.13192483016,13027.0
18882.131987327397,12079.0
18882.132049824635,10936.0
18882.13211232187,9365.0
18882.132174819108,7284.0
18882.132237316346,5439.0
18882.13229981358,3756.0
18882.13236231082,2303.0
18882.132424808056,1960.0
18882.132487305294,2792.0
18882.13254980253,3998.0
18882.132612299767,4974.0
18882.132674797005,5698.0
18882.132737294243,6543.0
18882.132799791478,6968.0
18882.132862288716,6870.0
18882.132924785954,7566.0
18882.132987283192,8575.0
18882.133049780427,8434.0
18882.133112277665,8024.0
18882.133174774903,8461.0
18882.13323727214,8450.0
18882.133299769375,7754.0
18882.133362266613,7816.0
18882.13342476385,7784.0
18882.13348726109,6680.0
18882.133549758324,5636.0
18882.133612255562,4929.0
18882.1336747528,4037.0
18882.13373725004,3465.0
18882.133799747273,3469.0
18882.13386224451,3663.0
18882.13392474175,3921.0
18882.133987238987,4201.0
18882.13404973622,4658.0
18882.13411223346,5091.0
18882.134174730698,4951.0
18882.134237227932,4568.0
18882.13429972517,3970.0
18882.13436222241,2581.0
18882.134424719647,822.0
18882.13448721688,-936.0
18882.13454971412,-3059.0
18882.134612211357,-5226.0
18882.134674708595,-6828.0
18882.13473720583,-8628.0
18882.134799703068,-10981.0
18882.134862200306,-12757.0
18882.134924697544,-14092.0
18882.13498719478,-15836.0
18882.135049692017,-17256.0
18882.135112189255,-18066.0
18882.135174686493,-19156.0
18882.135237183727,-20694.0
18882.135299680966,-22099.0
18882.135362178204,-23127.0
18882.13542467544,-24355.0
18882.135487172676,-25561.0
18882.135549669914,-25982.0
18882.135612167152,-26286.0
18882.135674664387,-27167.0
18882.135737161625,-27938.0
18882.135799658863,-27801.0
18882.1358621561,-26232.0
18882.13592465334,-21457.0
18882.135987150574,-13800.0
18882.136049647812,-6644.0
18882.13611214505,1086.0
18882.136174642284,8705.0
18882.136237139523,12301.0
18882.13629963676,15070.0
18882.136362134,18675.0
18882.136424631233,19211.0
18882.13648712847,17381.0
18882.13654962571,15909.0
18882.136612122948,13183.0
18882.136674620182,8615.0
18882.13673711742,5756.0
18882.13679961466,4836.0
18882.136862111896,3387.0
18882.13692460913,2137.0
18882.13698710637,1369.0
18882.137049603607,269.0
18882.137112100845,-1166.0
18882.13717459808,-1992.0
18882.137237095318,-1330.0
18882.137299592556,-704.0
18882.137362089794,-330.0
18882.13742458703,729.0
18882.137487084266,1683.0
18882.137549581505,3018.0
18882.13761207874,5513.0
18882.137674575977,8346.0
18882.137737073215,10427.0
18882.137799570453,12064.0
18882.137862067688,13144.0
18882.137924564926,12510.0
18882.137987062164,11496.0
18882.138049559402,11041.0
18882.138112056637,9723.0
18882.138174553875,7922.0
18882.138237051113,6319.0
18882.13829954835,4898.0
18882.138362045585,3411.0
18882.138424542823,2387.0
18882.13848704006,3059.0
18882.1385495373,4092.0
18882.138612034534,4430.0
18882.138674531772,5675.0
18882.13873702901,7667.0
18882.13879952625,8134.0
18882.138862023483,8342.0
18882.13892452072,9767.0
18882.13898701796,9549.0
18882.139049515197,8353.0
18882.13911201243,8600.0
18882.13917450967,8231.0
18882.139237006908,7044.0
18882.139299504146,7104.0
18882.13936200138,7247.0
18882.13942449862,6280.0
18882.139486995857,5648.0
18882.13954949309,5434.0
18882.13961199033,4651.0
18882.139674487567,4040.0
18882.139736984805,4076.0
18882.13979948204,4039.0
18882.139861979278,3789.0
18882.139924476516,3998.0
18882.139986973754,4583.0
18882.14004947099,4754.0
18882.140111968227,4843.0
18882.140174465465,5111.0
18882.140236962703,4601.0
18882.140299459938,3470.0
18882.140361957176,2312.0
18882.140424454414,742.0
18882.140486951652,-1287.0
18882.140549448886,-3334.0
18882.140611946124,-5415.0
18882.140674443363,-7327.0
18882.1407369406,-9081.0
18882.140799437835,-11277.0
18882.140861935073,-13109.0
18882.14092443231,-14293.0
18882.140986929546,-16000.0
18882.141049426784,-17447.0
18882.141111924022,-18181.0
18882.14117442126,-19233.0
18882.141236918498,-20547.0
18882.141299415733,-21592.0
18882.14136191297,-22423.0
18882.14142441021,-23447.0
18882.141486907443,-24342.0
18882.14154940468,-24986.0
18882.14161190192,-25593.0
18882.141674399158,-26354.0
18882.141736896392,-27484.0
18882.14179939363,-27360.0
18882.14186189087,-25223.0
18882.141924388106,-20593.0
18882.14198688534,-13159.0
18882.14204938258,-5845.0
18882.142111879817,1541.0
18882.142174377055,8769.0
18882.14223687429,12895.0
18882.142299371528,16084.0
18882.142361868766,19135.0
18882.142424366004,19481.0
18882.14248686324,17676.0
18882.142549360477,15238.0
18882.142611857715,12164.0
18882.142674354953,8127.0
18882.142736852187,5200.0
18882.142799349425,4276.0
18882.142861846663,3298.0
18882.142924343898,2111.0
18882.142986841136,1220.0
18882.143049338374,380.0
18882.143111835612,-786.0
18882.143174332847,-1609.0
18882.143236830085,-963.0
18882.143299327323,-359.0
18882.14336182456,-233.0
18882.143424321795,739.0
18882.143486819034,1893.0
18882.14354931627,3328.0
18882.14361181351,5899.0
18882.143674310744,8857.0
18882.143736807982,11091.0
18882.14379930522,12521.0
18882.14386180246,13275.0
18882.143924299693,12803.0
18882.14398679693,11792.0
18882.14404929417,10968.0
18882.144111791407,9678.0
18882.14417428864,7920.0
18882.14423678588,5943.0
18882.144299283118,4294.0
18882.144361780356,3023.0
18882.14442427759,2530.0
18882.14448677483,3276.0
18882.144549272067,4582.0
18882.144611769305,5834.0
18882.14467426654,6393.0
18882.144736763777,6983.0
18882.144799261016,7375.0
18882.14486175825,6930.0
18882.144924255488,7294.0
18882.144986752726,8011.0
18882.145049249964,8002.0
18882.1451117472,7799.0
18882.145174244437,7977.0
18882.145236741675,8446.0
18882.145299238913,8299.0
18882.145361736148,8175.0
18882.145424233386,8508.0
18882.145486730624,7915.0
18882.145549227862,6516.0
18882.145611725096,5544.0
18882.145674222334,4863.0
18882.145736719573,4007.0
18882.14579921681,3578.0
18882.145861714045,3761.0
18882.145924211283,3771.0
18882.14598670852,3645.0
18882.14604920576,3894.0
18882.146111702994,4181.0
18882.146174200232,4301.0
18882.14623669747,4170.0
18882.146299194705,3754.0
18882.146361691943,2857.0
18882.14642418918,1276.0
18882.14648668642,-362.0
18882.146549183657,-2185.0
18882.14661168089,-4258.0
18882.14667417813,-6030.0
18882.146736675368,-7959.0
18882.146799172602,-10374.0
18882.14686166984,-12316.0
18882.14692416708,-13932.0
18882.146986664317,-16064.0
18882.14704916155,-17265.0
18882.14711165879,-18213.0
18882.147174156027,-20011.0
18882.147236653265,-20944.0
18882.1472991505,-21814.0
18882.147361647738,-23058.0
18882.147424144976,-23703.0
18882.147486642214,-24379.0
18882.14754913945,-25084.0
18882.147611636687,-25325.0
18882.147674133925,-25870.0
18882.147736631163,-27104.0
18882.147799128397,-27515.0
18882.147861625635,-26476.0
18882.147924122874,-22906.0
18882.14798662011,-15932.0
18882.148049117346,-9321.0
18882.148111614584,-2315.0
18882.148174111822,6152.0
18882.148236609057,10846.0
18882.148299106295,13916.0
18882.148361603533,17968.0
18882.14842410077,19623.0
18882.14848659801,18799.0
18882.148549095244,17054.0
18882.14861159248,14858.0
18882.14867408972,11211.0
18882.148736586954,7374.0
18882.148799084192,5781.0
18882.14886158143,4459.0
18882.14892407867,2854.0
18882.148986575903,1613.0
18882.14904907314,355.0
18882.14911157038,-651.0
18882.149174067617,-1701.0
18882.149236564852,-1739.0
18882.14929906209,-718.0
18882.149361559328,-342.0
18882.149424056566,349.0
18882.1494865538,1383.0
18882.14954905104,2545.0
18882.149611548277,4687.0
18882.149674045515,7299.0
18882.14973654275,9602.0
18882.149799039988,11389.0
18882.149861537226,12603.0
18882.149924034464,12658.0
18882.1499865317,11898.0
18882.150049028936,11454.0
18882.150111526174,10640.0
18882.15017402341,9110.0
18882.150236520647,7370.0
18882.150299017885,6006.0
18882.150361515123,4568.0
18882.150424012358,3010.0
18882.150486509596,3109.0
18882.150549006834,4655.0
18882.150611504072,6072.0
18882.150674001306,7322.0
18882.150736498545,8839.0
18882.150798995783,9435.0
18882.15086149302,8814.0
18882.150923990255,8697.0
18882.150986487493,8485.0
18882.15104898473,7568.0
18882.15111148197,7080.0
18882.151173979204,6661.0
18882.151236476442,5859.0
18882.15129897368,5646.0
18882.15136147092,5935.0
18882.151423968153,5855.0
18882.15148646539,5716.0
18882.15154896263,5823.0
18882.151611459867,5267.0
18882.1516739571,4271.0
18882.15173645434,4113.0
18882.151798951578,4200.0
18882.151861448816,4101.0
18882.15192394605,4520.0
18882.15198644329,5144.0
18882.152048940527,5227.0
18882.15211143776,4942.0
18882.152173935,4862.0
18882.152236432237,4593.0
18882.152298929475,3786.0
18882.15236142671,2560.0
18882.152423923948,1195.0
18882.152486421186,-577.0
18882.152548918424,-2943.0
18882.15261141566,-4926.0
18882.152673912897,-6495.0
18882.152736410135,-8469.0
18882.152798907373,-10465.0
18882.152861404607,-11819.0
18882.152923901845,-13417.0
18882.152986399084,-15354.0
18882.15304889632,-16422.0
18882.153111393556,-17403.0
18882.153173890794,-18749.0
18882.153236388032,-19761.0
18882.15329888527,-20936.0
18882.153361382505,-22264.0
18882.153423879743,-23264.0
18882.15348637698,-24403.0
18882.153548874216,-25387.0
18882.153611371454,-25638.0
18882.153673868692,-26393.0
18882.15373636593,-27523.0
18882.153798863168,-27649.0
18882.153861360403,-26927.0
18882.15392385764,-23817.0
18882.15398635488,-16758.0
18882.154048852113,-9178.0
18882.15411134935,-1723.0
18882.15417384659,6759.0
18882.154236343828,12258.0
18882.154298841062,15371.0
18882.1543613383,19011.0
18882.15442383554,20588.0
18882.154486332776,19585.0
18882.15454883001,17755.0
18882.15461132725,14904.0
18882.154673824487,10746.0
18882.154736321725,7107.0
18882.15479881896,5238.0
18882.154861316198,3859.0
18882.154923813436,2471.0
18882.154986310674,1495.0
18882.15504880791,520.0
18882.155111305146,-782.0
18882.155173802385,-1641.0
18882.155236299623,-1228.0
18882.155298796857,-401.0
18882.155361294095,28.0
18882.155423791333,830.0
18882.155486288568,1841.0
18882.155548785806,2863.0
18882.155611283044,4979.0
18882.155673780282,7836.0
18882.155736277517,10185.0
18882.155798774755,12091.0
18882.155861271993,13522.0
18882.15592376923,13582.0
18882.155986266465,12782.0
18882.156048763703,12262.0
18882.15611126094,11442.0
18882.15617375818,9763.0
18882.156236255414,7712.0
18882.156298752652,5872.0
18882.15636124989,4167.0
18882.15642374713,2841.0
18882.156486244363,3153.0
18882.1565487416,4639.0
18882.15661123884,5949.0
18882.156673736077,7142.0
18882.15673623331,8115.0
18882.15679873055,8506.0
18882.156861227788,8461.0
18882.156923725026,8121.0
18882.15698622226,7574.0
18882.1570487195,7052.0
18882.157111216737,5975.0
18882.157173713975,4510.0
18882.15723621121,4498.0
18882.157298708447,5622.0
18882.157361205685,5822.0
18882.15742370292,6357.0
18882.157486200158,7666.0
18882.157548697396,7064.0
18882.157611194634,5908.0
18882.15767369187,6057.0
18882.157736189107,5756.0
18882.157798686345,4936.0
18882.157861183583,4975.0
18882.157923680817,5312.0
18882.157986178056,4851.0
18882.158048675294,4481.0
18882.15811117253,4888.0
18882.158173669766,5233.0
18882.158236167004,4903.0
18882.158298664242,4297.0
18882.15836116148,3396.0
18882.158423658715,1729.0
18882.158486155953,-172.0
18882.15854865319,-2048.0
18882.15861115043,-4067.0
18882.158673647664,-5795.0
18882.158736144902,-7349.0
18882.15879864214,-9683.0
18882.158861139374,-11708.0
18882.158923636613,-12651.0
18882.15898613385,-14131.0
18882.15904863109,-15608.0
18882.159111128327,-15790.0
18882.15917362556,-16417.0
18882.1592361228,-18332.0
18882.159298620038,-19364.0
18882.159361117272,-20155.0
18882.15942361451,-22337.0
18882.15948611175,-23817.0
18882.159548608986,-24269.0
18882.15961110622,-25389.0
18882.15967360346,-26789.0
18882.159736100697,-27531.0
18882.159798597935,-27736.0
18882.15986109517,-27796.0
18882.159923592408,-25914.0
18882.159986089646,-19619.0
18882.160048586884,-11947.0
18882.16011108412,-5848.0
18882.160173581357,1872.0
18882.160236078595,9457.0
18882.160298575833,13036.0
18882.160361073067,15876.0
18882.160423570305,19395.0
18882.160486067543,20124.0
18882.16054856478,17860.0
18882.160611062016,15642.0
18882.160673559254,13211.0
18882.160736056492,9067.0
18882.160798553727,6037.0
18882.160861050965,5261.0
18882.160923548203,3989.0
18882.16098604544,2175.0
18882.161048542675,1062.0
18882.161111039914,104.0
18882.16117353715,-1322.0
18882.16123603439,-1980.0
18882.161298531624,-983.0
18882.161361028862,-363.0
18882.1614235261,-279.0
18882.16148602334,952.0
18882.161548520573,2404.0
18882.16161101781,3855.0
18882.16167351505,6303.0
18882.161736012287,9229.0
18882.16179850952,11236.0
18882.16186100676,12271.0
18882.161923503998,12984.0
18882.161986001236,12743.0
18882.16204849847,11732.0
18882.16211099571,11076.0
18882.162173492947,10242.0
18882.162235990185,8537.0
18882.16229848742,6730.0
18882.162360984657,5599.0
18882.162423481896,4671.0
18882.162485979134,4108.0
18882.162548476368,4894.0
18882.162610973606,6466.0
18882.162673470844,7409.0
18882.16273596808,8258.0
18882.162798465317,8995.0
18882.162860962555,8777.0
18882.162923459793,8445.0
18882.162985957028,8236.0
18882.163048454266,7369.0
18882.163110951504,6483.0
18882.163173448742,6044.0
18882.163235945976,5343.0
18882.163298443214,4996.0
18882.163360940453,5361.0
18882.16342343769,5361.0
18882.163485934925,5180.0
18882.163548432163,5305.0
18882.1636109294,5172.0
18882.16367342664,4648.0
18882.163735923874,4514.0
18882.163798421112,4551.0
18882.16386091835,4439.0
18882.16392341559,4681.0
18882.163985912823,5033.0
18882.16404841006,5060.0
18882.1641109073,5216.0
18882.164173404533,5348.0
18882.16423590177,4876.0
18882.16429839901,4278.0
18882.164360896248,3612.0
18882.164423393486,2121.0
18882.16448589072,-45.0
18882.16454838796,-2121.0
18882.164610885196,-4267.0
18882.16467338243,-6670.0
18882.16473587967,-8560.0
18882.164798376907,-10347.0
18882.164860874145,-12341.0
18882.16492337138,-13767.0
18882.164985868618,-15165.0
18882.165048365856,-16593.0
18882.165110863094,-17502.0
18882.16517336033,-18608.0
18882.165235857567,-20064.0
18882.165298354805,-21278.0
18882.165360852043,-22600.0
18882.165423349277,-23833.0
18882.165485846515,-24429.0
18882.165548343753,-24825.0
18882.16561084099,-24931.0
18882.165673338226,-25167.0
18882.165735835464,-25862.0
18882.165798332702,-26077.0
18882.16586082994,-25619.0
18882.165923327175,-22997.0
18882.165985824413,-16406.0
18882.16604832165,-9181.0
18882.166110818885,-2770.0
18882.166173316124,4699.0
18882.16623581336,10662.0
18882.1662983106,13990.0
18882.166360807834,17148.0
18882.166423305072,19781.0
18882.16648580231,19523.0
18882.16654829955,17059.0
18882.166610796783,14468.0
18882.16667329402,10836.0
18882.16673579126,6868.0
18882.166798288497,4843.0
18882.166860785732,3806.0
18882.16692328297,2683.0
18882.166985780208,1576.0
18882.167048277446,589.0
18882.16711077468,-287.0
18882.16717327192,-1056.0
18882.167235769157,-868.0
18882.167298266395,106.0
18882.16736076363,589.0
18882.167423260868,979.0
18882.167485758106,1895.0
18882.167548255344,2959.0
18882.16761075258,4619.0
18882.167673249816,7419.0
18882.167735747054,10127.0
18882.167798244292,11701.0
18882.167860741527,12820.0
18882.167923238765,13443.0
18882.167985736003,12853.0
18882.168048233238,11961.0
18882.168110730476,11333.0
18882.168173227714,10104.0
18882.168235724952,8126.0
18882.168298222186,6234.0
18882.168360719425,4572.0
18882.168423216663,3266.0
18882.1684857139,2833.0
18882.168548211135,3890.0
18882.168610708373,5878.0
18882.16867320561,6584.0
18882.16873570285,7078.0
18882.168798200084,7974.0
18882.168860697322,7599.0
18882.16892319456,7536.0
18882.1689856918,8117.0
18882.169048189033,7972.0
18882.16911068627,7721.0
18882.16917318351,7247.0
18882.169235680747,6539.0
18882.16929817798,6405.0
18882.16936067522,6676.0
18882.169423172458,6640.0
18882.169485669692,6378.0
18882.16954816693,6014.0
18882.16961066417,5090.0
18882.169673161407,3949.0
18882.169735658645,3412.0
18882.16979815588,3357.0
18882.169860653117,3354.0
18882.169923150355,3495.0
18882.16998564759,3732.0
18882.170048144828,3710.0
18882.170110642066,3649.0
18882.170173139304,4125.0
18882.17023563654,4403.0
18882.170298133777,3900.0
18882.170360631015,3114.0
18882.170423128253,1776.0
18882.170485625487,-565.0
18882.170548122725,-2901.0
18882.170610619964,-4580.0
18882.1706731172,-6574.0
18882.170735614436,-8953.0
18882.170798111674,-10858.0
18882.170860608912,-12771.0
18882.17092310615,-14897.0
18882.170985603385,-16354.0
18882.171048100623,-17315.0
18882.17111059786,-18456.0
18882.1711730951,-19602.0
18882.171235592334,-20912.0
18882.17129808957,-22406.0
18882.17136058681,-23827.0
18882.171423084044,-24894.0
18882.171485581282,-25355.0
18882.17154807852,-25585.0
18882.17161057576,-25943.0
18882.171673072997,-26878.0
18882.17173557023,-27863.0
18882.17179806747,-27610.0
18882.171860564707,-25593.0
18882.171923061942,-19542.0
18882.17198555918,-11412.0
18882.172048056418,-4776.0
18882.172110553656,3050.0
18882.17217305089,10004.0
18882.17223554813,13478.0
18882.172298045367,16861.0
18882.172360542605,19738.0
18882.17242303984,19869.0
18882.172485537078,17854.0
18882.172548034316,15248.0
18882.172610531554,11874.0
18882.17267302879,7760.0
18882.172735526026,5421.0
18882.172798023264,4405.0
18882.172860520503,3102.0
18882.172923017737,1787.0
18882.172985514975,580.0
18882.173048012213,-532.0
18882.17311050945,-1707.0
18882.173173006686,-1825.0
18882.173235503924,-683.0
18882.173298001162,-231.0
18882.173360498397,136.0
18882.173422995635,1274.0
18882.173485492873,2507.0
18882.17354799011,4235.0
18882.173610487345,6951.0
18882.173672984583,9756.0
18882.17373548182,11613.0
18882.17379797906,13040.0
18882.173860476294,13483.0
18882.173922973532,12739.0
18882.17398547077,12304.0
18882.17404796801,11410.0
18882.174110465243,9638.0
18882.17417296248,7916.0
18882.17423545972,5975.0
18882.174297956957,4325.0
18882.17436045419,3120.0
18882.17442295143,2698.0
18882.174485448668,3928.0
18882.174547945906,5676.0
18882.17461044314,6708.0
18882.17467294038,7983.0
18882.174735437617,9133.0
18882.174797934855,8783.0
18882.17486043209,8597.0
18882.174922929327,8855.0
18882.174985426565,7793.0
18882.175047923804,6742.0
18882.175110421038,6408.0
18882.175172918276,5639.0
18882.175235415514,5067.0
18882.17529791275,5433.0
18882.175360409987,5718.0
18882.175422907225,5566.0
18882.175485404463,5628.0
18882.175547901697,5283.0
18882.175610398936,4378.0
18882.175672896174,3769.0
18882.17573539341,3518.0
18882.175797890646,3294.0
18882.175860387884,3175.0
18882.175922885122,3439.0
18882.17598538236,3908.0
18882.176047879595,3958.0
18882.176110376833,4148.0
18882.17617287407,4615.0
18882.17623537131,4328.0
18882.176297868544,3379.0
18882.176360365782,2212.0
18882.17642286302,428.0
18882.176485360258,-2096.0
18882.176547857493,-4567.0
18882.17661035473,-6404.0
18882.17667285197,-8586.0
18882.176735349203,-11161.0
18882.17679784644,-13024.0
18882.17686034368,-14698.0
18882.176922840918,-16760.0
18882.176985338156,-17994.0
18882.17704783539,-18611.0
18882.17711033263,-19855.0
18882.177172829866,-20877.0
18882.1772353271,-21783.0
18882.17729782434,-22978.0
18882.177360321577,-23847.0
18882.177422818815,-24737.0
18882.17748531605,-25263.0
18882.177547813288,-25452.0
18882.177610310526,-26070.0
18882.177672807764,-26571.0
18882.177735305,-26439.0
18882.177797802236,-25145.0
18882.177860299475,-20578.0
18882.177922796713,-12901.0
18882.177985293947,-6309.0
18882.178047791185,343.0
18882.178110288423,7993.0
18882.17817278566,11894.0
18882.178235282896,14035.0
18882.178297780134,17339.0
18882.178360277372,18428.0
18882.17842277461,17037.0
18882.178485271845,15024.0
18882.178547769083,12463.0
18882.17861026632,9161.0
18882.178672763555,6071.0
18882.178735260793,4882.0
18882.17879775803,4301.0
18882.17886025527,3052.0
18882.178922752504,1834.0
18882.178985249742,858.0
18882.17904774698,-122.0
18882.17911024422,-1139.0
18882.179172741453,-786.0
18882.17923523869,288.0
18882.17929773593,354.0
18882.179360233167,985.0
18882.1794227304,2110.0
18882.17948522764,3174.0
18882.179547724878,5373.0
18882.179610222116,8140.0
18882.17967271935,10171.0
18882.17973521659,11560.0
18882.179797713827,12429.0
18882.179860211065,12131.0
18882.1799227083,11156.0
18882.179985205537,10753.0
18882.180047702775,10002.0
18882.180110200014,8338.0
18882.180172697248,6527.0
18882.180235194486,4984.0
18882.180297691724,3809.0
18882.180360188962,2765.0
18882.180422686197,2930.0
18882.180485183435,4403.0
18882.180547680673,5346.0
18882.180610177908,5894.0
18882.180672675146,6841.0
18882.180735172384,7862.0
18882.180797669622,7951.0
18882.180860166856,7961.0
18882.180922664094,8503.0
18882.180985161333,7955.0
18882.18104765857,6932.0
18882.181110155805,6579.0
18882.181172653043,6583.0
18882.18123515028,6542.0
18882.18129764752,6408.0
18882.181360144754,6387.0
18882.181422641992,5933.0
18882.18148513923,4943.0
18882.181547636468,4089.0
18882.181610133703,3590.0
18882.18167263094,3374.0
18882.18173512818,3196.0
18882.181797625417,3038.0
18882.18186012265,3234.0
18882.18192261989,3668.0
18882.181985117128,4058.0
18882.182047614362,4552.0
18882.1821101116,4930.0
18882.18217260884,4869.0
18882.182235106076,4237.0
18882.182297603315,3112.0
18882.18236010055,1637.0
18882.182422597787,31.0
18882.182485095025,-1889.0
18882.18254759226,-4280.0
18882.182610089498,-5991.0
18882.182672586736,-7674.0
18882.182735083974,-10444.0
18882.18279758121,-12561.0
18882.182860078447,-14013.0
18882.182922575685,-16094.0
18882.182985072923,-17817.0
18882.183047570157,-18929.0
18882.183110067395,-20152.0
18882.183172564633,-21535.0
18882.18323506187,-23009.0
18882.183297559106,-24139.0
18882.183360056344,-24949.0
18882.183422553582,-25965.0
18882.18348505082,-26378.0
18882.183547548055,-26385.0
18882.183610045293,-27184.0
18882.18367254253,-27914.0
18882.18373503977,-27726.0
18882.183797537004,-26149.0
18882.18386003424,-20489.0
18882.18392253148,-11989.0
18882.183985028714,-4998.0
18882.184047525952,2658.0
18882.18411002319,10534.0
18882.18417252043,14024.0
18882.184235017663,16223.0
18882.1842975149,19491.0
18882.18436001214,20315.0
18882.184422509377,18178.0
18882.18448500661,15381.0
18882.18454750385,12365.0
18882.184610001088,8379.0
18882.184672498326,4801.0
18882.18473499556,3378.0
18882.1847974928,2889.0
18882.184859990037,1398.0
18882.184922487275,-333.0
18882.18498498451,-1088.0
18882.185047481747,-1927.0
18882.185109978986,-2842.0
18882.185172476224,-1965.0
18882.185234973458,-570.0
18882.185297470696,-89.0
18882.185359967934,613.0
18882.185422465172,1963.0
18882.185484962407,3819.0
18882.185547459645,6273.0
18882.185609956883,9147.0
18882.18567245412,11483.0
18882.185734951356,12812.0
18882.185797448594,13346.0
18882.185859945832,12771.0
18882.185922443066,11714.0
18882.185984940304,10904.0
18882.186047437543,9748.0
18882.18610993478,7964.0
18882.186172432015,5903.0
18882.186234929253,4199.0
18882.18629742649,3142.0
18882.18635992373,2556.0
18882.186422420964,2942.0
18882.186484918202,4501.0
18882.18654741544,5845.0
18882.18660991268,6214.0
18882.186672409913,6768.0
18882.18673490715,7481.0
18882.18679740439,7441.0
18882.186859901627,7505.0
18882.18692239886,8203.0
18882.1869848961,8221.0
18882.187047393338,7340.0
18882.187109890576,6901.0
18882.18717238781,6860.0
18882.18723488505,6481.0
18882.187297382286,6207.0
18882.18735987952,6086.0
18882.18742237676,5451.0
18882.187484873997,4499.0
18882.187547371235,3819.0
18882.187609868473,3334.0
18882.187672365708,3002.0
18882.187734862946,3125.0
18882.187797360184,3468.0
18882.18785985742,3459.0
18882.187922354657,3577.0
18882.187984851895,4090.0
18882.188047349133,4270.0
18882.188109846367,4147.0
18882.188172343605,4179.0
18882.188234840844,3483.0
18882.18829733808,1686.0
18882.188359835316,-91.0
18882.188422332554,-1622.0
18882.188484829792,-3740.0
18882.18854732703,-5996.0
18882.188609824265,-7321.0
18882.188672321503,-9197.0
18882.18873481874,-12037.0
18882.18879731598,-13892.0
18882.188859813214,-15603.0
18882.18892231045,-17545.0
18882.18898480769,-18477.0
18882.189047304928,-19305.0
18882.189109802162,-20524.0
18882.1891722994,-21938.0
18882.18923479664,-23127.0
18882.189297293873,-24130.0
18882.18935979111,-25481.0
18882.18942228835,-25883.0
18882.189484785587,-26095.0
18882.189547282826,-27262.0
18882.18960978006,-27931.0
18882.189672277298,-28107.0
18882.189734774536,-27423.0
18882.18979727177,-23229.0
18882.18985976901,-15305.0
18882.189922266247,-8093.0
18882.189984763485,-1304.0
18882.19004726072,7113.0
18882.190109757958,12086.0
18882.190172255196,14488.0
18882.190234752434,17962.0
18882.19029724967,19453.0
18882.190359746906,18193.0
18882.190422244144,15776.0
18882.190484741383,12928.0
18882.190547238617,9474.0
18882.190609735855,5972.0
