0,1,2,3,4
14089.980602191747,0.8882619142532349,1.1416571140289307,1.1881263256072998,1.3982906341552734
14089.982602251808,0.889071524143219,1.1416571140289307,1.18764066696167,1.397804856300354
14089.984602311868,0.889233410358429,1.1414951086044312,1.1884502172470093,1.397966742515564
14089.986602371928,0.8897191882133484,1.1416571140289307,1.1894216537475586,1.397966742515564
14089.98860243199,0.8898810744285583,1.1414951086044312,1.190231204032898,1.3989382982254028
14089.99060249205,0.8897191882133484,1.1413332223892212,1.189907431602478,1.3994239568710327
14089.99260255211,0.8887476921081543,1.1414951086044312,1.1895835399627686,1.3992620706558228
14089.99460261217,0.889233410358429,1.1416571140289307,1.190231204032898,1.3987764120101929
14089.99660267223,0.8900430202484131,1.1419808864593506,1.1908788681030273,1.3992620706558228
14089.998602732292,0.8893953561782837,1.14230477809906,1.1921741962432861,1.3992620706558228
14090.000602792352,0.8900430202484131,1.14279043674469,1.1939553022384644,1.3999097347259521
14090.002602852412,0.8919859528541565,1.14262855052948,1.1936314105987549,1.3999097347259521
14090.004602912473,0.8926336169242859,1.1429524421691895,1.1949267387390137,1.3999097347259521
14090.006602972533,0.8919859528541565,1.14262855052948,1.1947648525238037,1.4002336263656616
14090.008603032595,0.8932812809944153,1.1432762145996094,1.1952505111694336,1.4003955125808716
14090.010603092654,0.8926336169242859,1.1440857648849487,1.1952505111694336,1.4003955125808716
14090.012603152714,0.8919859528541565,1.144895315170288,1.1962220668792725,1.4005573987960815
14090.014603212776,0.8929574489593506,1.144895315170288,1.1971935033798218,1.400881290435791
14090.016603272836,0.8932812809944153,1.145866870880127,1.1971935033798218,1.401205062866211
14090.018603332896,0.8927955031394958,1.1465145349502563,1.1971935033798218,1.4018527269363403
14090.020603392957,0.89360511302948,1.1466764211654663,1.1978411674499512,1.4029861688613892
14090.022603453017,0.8953861594200134,1.1461906433105469,1.1984888315200806,1.4028241634368896
14090.024603513077,0.8961957097053528,1.1463525295257568,1.19913649559021,1.403471827507019
14090.026603573138,0.8955480456352234,1.1468383073806763,1.19929838180542,1.4029861688613892
14090.028603633198,0.8965195417404175,1.1468383073806763,1.19913649559021,1.4037957191467285
14090.03060369326,0.8961957097053528,1.1466764211654663,1.19929838180542,1.4039576053619385
14090.03260375332,0.8953861594200134,1.146028757095337,1.1997841596603394,1.4037957191467285
14090.03460381338,0.8953861594200134,1.145866870880127,1.2007555961608887,1.403471827507019
14090.036603873441,0.8953861594200134,1.1465145349502563,1.2002699375152588,1.4036338329315186
14090.0386039335,0.8958718776702881,1.1470001935958862,1.1996222734451294,1.4036338329315186
14090.04060399356,0.8965195417404175,1.1471621990203857,1.1999460458755493,1.4042813777923584
14090.042604053622,0.8968433737754822,1.1466764211654663,1.1997841596603394,1.4046052694320679
14090.044604113682,0.8973290920257568,1.1465145349502563,1.2001079320907593,1.4041194915771484
14090.046604173742,0.8968433737754822,1.1468383073806763,1.2007555961608887,1.404443383216858
14090.048604233803,0.8983005881309509,1.1471621990203857,1.2010794878005981,1.4041194915771484
14090.050604293863,0.8974910378456116,1.1466764211654663,1.2018890380859375,1.4037957191467285
14090.052604353925,0.8961957097053528,1.1466764211654663,1.2002699375152588,1.4036338329315186
14090.054604413985,0.8963576555252075,1.1471621990203857,1.1996222734451294,1.4037957191467285
14090.056604474044,0.8963576555252075,1.1461906433105469,1.1996222734451294,1.4036338329315186
14090.058604534106,0.8953861594200134,1.146028757095337,1.2002699375152588,1.4025003910064697
14090.060604594166,0.8960338234901428,1.1461906433105469,1.2002699375152588,1.4026622772216797
14090.062604654227,0.8966814279556274,1.1453810930252075,1.1997841596603394,1.4025003910064697
14090.064604714287,0.8971672058105469,1.1455429792404175,1.1997841596603394,1.4025003910064697
14090.066604774347,0.8973290920257568,1.1455429792404175,1.198974609375,1.4025003910064697
14090.068604834409,0.898138701915741,1.1455429792404175,1.198974609375,1.403471827507019
14090.070604894468,0.8966814279556274,1.1442476511001587,1.1986507177352905,1.4031480550765991
14090.072604954528,0.8950623273849487,1.1429524421691895,1.1980030536651611,1.4028241634368896
14090.07460501459,0.8953861594200134,1.1437619924545288,1.1971935033798218,1.4025003910064697
14090.07660507465,0.8957099914550781,1.1442476511001587,1.1971935033798218,1.4023385047912598
14090.07860513471,0.8945765495300293,1.1435999870300293,1.1963839530944824,1.401205062866211
14090.080605194771,0.894738495349884,1.14246666431427,1.1968697309494019,1.401205062866211
14090.082605254831,0.8953861594200134,1.14246666431427,1.1968697309494019,1.401366949081421
14090.084605314893,0.8955480456352234,1.1432762145996094,1.1965458393096924,1.4007192850112915
14090.086605374952,0.8952242136001587,1.1444096565246582,1.1965458393096924,1.4002336263656616
14090.088605435012,0.8957099914550781,1.1435999870300293,1.196707844734192,1.4007192850112915
14090.090605495074,0.8950623273849487,1.1434381008148193,1.1965458393096924,1.400071620941162
14090.092605555134,0.8937669992446899,1.1421427726745605,1.1949267387390137,1.3999097347259521
14090.094605615193,0.89360511302948,1.1414951086044312,1.1947648525238037,1.3994239568710327
14090.096605675255,0.8940908312797546,1.1410094499588013,1.1950886249542236,1.3992620706558228
14090.098605735315,0.8932812809944153,1.1411713361740112,1.1949267387390137,1.3987764120101929
14090.100605795375,0.8934431672096252,1.1413332223892212,1.1946029663085938,1.3995859622955322
14090.102605855436,0.8940908312797546,1.1413332223892212,1.1942790746688843,1.3987764120101929
14090.104605915496,0.8944146633148193,1.1408475637435913,1.1939553022384644,1.3992620706558228
14090.106605975558,0.8927955031394958,1.1403617858886719,1.1936314105987549,1.3992620706558228
14090.108606035617,0.8944146633148193,1.140199899673462,1.193307638168335,1.3999097347259521
14090.110606095677,0.89360511302948,1.140199899673462,1.1941171884536743,1.3989382982254028
14090.112606155739,0.8927955031394958,1.1395522356033325,1.1946029663085938,1.3981287479400635
14090.114606215799,0.8931193351745605,1.139228343963623,1.1937932968139648,1.397481083869934
14090.116606275858,0.8931193351745605,1.1389045715332031,1.1928218603134155,1.397804856300354
14090.11860633592,0.8918240666389465,1.1384187936782837,1.1928218603134155,1.3971571922302246
14090.12060639598,0.8926336169242859,1.1379330158233643,1.1928218603134155,1.3969953060150146
14090.122606456041,0.8945765495300293,1.1377711296081543,1.1921741962432861,1.3971571922302246
14090.124606516101,0.8939289450645447,1.1377711296081543,1.192336082458496,1.397642970085144
14090.126606576161,0.8937669992446899,1.1380950212478638,1.1926599740982056,1.3982906341552734
14090.128606636223,0.8945765495300293,1.1389045715332031,1.1929837465286255,1.3981287479400635
14090.130606696282,0.8934431672096252,1.1384187936782837,1.1929837465286255,1.3963476419448853
14090.132606756342,0.8921478986740112,1.1382569074630737,1.193469524383545,1.3956999778747559
14090.134606816404,0.8915002346038818,1.1387425661087036,1.1929837465286255,1.3963476419448853
14090.136606876464,0.8918240666389465,1.1379330158233643,1.1931456327438354,1.3960238695144653
14090.138606936525,0.8913382887840271,1.1379330158233643,1.1941171884536743,1.3961857557296753
14090.140606996585,0.8931193351745605,1.1387425661087036,1.193307638168335,1.3965095281600952
14090.142607056645,0.894738495349884,1.139228343963623,1.1936314105987549,1.3966715335845947
14090.144607116707,0.8945765495300293,1.1389045715332031,1.1939553022384644,1.397481083869934
14090.146607176766,0.894738495349884,1.1387425661087036,1.1946029663085938,1.3981287479400635
14090.148607236826,0.8960338234901428,1.1380950212478638,1.1952505111694336,1.3973190784454346
14090.150607296888,0.8945765495300293,1.1385806798934937,1.1952505111694336,1.3968334197998047
14090.152607356948,0.8934431672096252,1.1385806798934937,1.195412516593933,1.3966715335845947
14090.154607417007,0.8940908312797546,1.1380950212478638,1.1960601806640625,1.3973190784454346
14090.156607477069,0.8945765495300293,1.139066457748413,1.1963839530944824,1.3966715335845947
14090.158607537129,0.8937669992446899,1.1405236721038818,1.196707844734192,1.3963476419448853
14090.16060759719,0.894738495349884,1.1403617858886719,1.1968697309494019,1.3965095281600952
14090.16260765725,0.8965195417404175,1.1398760080337524,1.1971935033798218,1.3963476419448853
14090.16460771731,0.8961957097053528,1.1398760080337524,1.1975173950195312,1.3965095281600952
14090.166607777372,0.8955480456352234,1.1395522356033325,1.1983269453048706,1.397642970085144
14090.168607837431,0.8966814279556274,1.139228343963623,1.19913649559021,1.397966742515564
14090.170607897491,0.8958718776702881,1.1384187936782837,1.1997841596603394,1.3981287479400635
14090.172607957553,0.8953861594200134,1.1397141218185425,1.19929838180542,1.397481083869934
14090.174608017613,0.8958718776702881,1.1400378942489624,1.198974609375,1.3965095281600952
14090.176608077672,0.8970052599906921,1.1395522356033325,1.1996222734451294,1.3965095281600952
14090.178608137734,0.8963576555252075,1.139066457748413,1.1996222734451294,1.395538091659546
14090.180608197794,0.8973290920257568,1.1395522356033325,1.1994602680206299,1.395376205444336
14090.182608257855,0.898138701915741,1.140199899673462,1.2002699375152588,1.3956999778747559
14090.184608317915,0.8970052599906921,1.140199899673462,1.2010794878005981,1.3958618640899658
14090.186608377975,0.8966814279556274,1.1395522356033325,1.2009176015853882,1.3958618640899658
14090.188608438037,0.8978148698806763,1.139228343963623,1.2002699375152588,1.395538091659546
14090.190608498096,0.8974910378456116,1.1379330158233643,1.2001079320907593,1.395538091659546
14090.192608558156,0.8963576555252075,1.1380950212478638,1.2009176015853882,1.3950523138046265
14090.194608618218,0.8965195417404175,1.1385806798934937,1.2010794878005981,1.3947285413742065
14090.196608678278,0.8973290920257568,1.1384187936782837,1.2015652656555176,1.3956999778747559
14090.19860873834,0.8963576555252075,1.1379330158233643,1.2017271518707275,1.3958618640899658
14090.2006087984,0.8968433737754822,1.1379330158233643,1.2015652656555176,1.3956999778747559
14090.202608858459,0.8979767560958862,1.1382569074630737,1.2020509243011475,1.3950523138046265
14090.20460891852,0.8979767560958862,1.1384187936782837,1.2028604745864868,1.3947285413742065
14090.20660897858,0.898138701915741,1.1387425661087036,1.2028604745864868,1.395376205444336
14090.20860903864,0.8987863659858704,1.1389045715332031,1.2030224800109863,1.395376205444336
14090.210609098702,0.8978148698806763,1.1384187936782837,1.2031843662261963,1.394566535949707
14090.212609158762,0.8971672058105469,1.1372853517532349,1.2033462524414062,1.394242763519287
14090.214609218823,0.8978148698806763,1.136799693107605,1.2036701440811157,1.3935950994491577
14090.216609278883,0.8983005881309509,1.1366376876831055,1.2036701440811157,1.3935950994491577
14090.218609338943,0.8971672058105469,1.1372853517532349,1.2031843662261963,1.3927855491638184
14090.220609399004,0.8974910378456116,1.1385806798934937,1.2030224800109863,1.3927855491638184
14090.222609459064,0.8978148698806763,1.1387425661087036,1.2036701440811157,1.3931093215942383
14090.224609519124,0.8976529240608215,1.1377711296081543,1.2031843662261963,1.3924616575241089
14090.226609579186,0.8983005881309509,1.1372853517532349,1.2031843662261963,1.3911664485931396
14090.228609639245,0.898138701915741,1.1366376876831055,1.2026985883712769,1.392137885093689
14090.230609699305,0.8976529240608215,1.1359901428222656,1.2030224800109863,1.391975998878479
14090.232609759367,0.8968433737754822,1.1366376876831055,1.2038320302963257,1.3931093215942383
14090.234609819427,0.8978148698806763,1.136799693107605,1.2033462524414062,1.3931093215942383
14090.236609879488,0.8970052599906921,1.136961579322815,1.2028604745864868,1.392137885093689
14090.238609939548,0.8961957097053528,1.1358281373977661,1.2030224800109863,1.3906806707382202
14090.240609999608,0.8978148698806763,1.1358281373977661,1.2031843662261963,1.3911664485931396
14090.24261005967,0.8986244201660156,1.1363139152526855,1.2028604745864868,1.3913283348083496
14090.24461011973,0.8968433737754822,1.1356662511825562,1.2031843662261963,1.3906806707382202
14090.246610179789,0.8966814279556274,1.1351804733276367,1.2020509243011475,1.3911664485931396
14090.24861023985,0.8974910378456116,1.1351804733276367,1.2030224800109863,1.391975998878479
14090.25061029991,0.8966814279556274,1.1358281373977661,1.2030224800109863,1.3914902210235596
14090.25261035997,0.8965195417404175,1.1364758014678955,1.2035081386566162,1.3906806707382202
14090.254610420032,0.898138701915741,1.1358281373977661,1.2039939165115356,1.3898711204528809
14090.256610480092,0.8984625339508057,1.1350185871124268,1.2039939165115356,1.3893853425979614
14090.258610540153,0.8974910378456116,1.1353424787521362,1.2041558027267456,1.3890615701675415
14090.260610600213,0.898138701915741,1.1350185871124268,1.2035081386566162,1.389709234237671
14090.262610660273,0.8984625339508057,1.1353424787521362,1.2030224800109863,1.3906806707382202
14090.264610720335,0.8983005881309509,1.1355043649673462,1.2035081386566162,1.3906806707382202
14090.266610780394,0.8978148698806763,1.1358281373977661,1.2041558027267456,1.3913283348083496
14090.268610840456,0.899433970451355,1.1358281373977661,1.2038320302963257,1.391975998878479
14090.270610900516,0.8987863659858704,1.137123465538025,1.2038320302963257,1.3906806707382202
14090.272610960576,0.8976529240608215,1.1372853517532349,1.2038320302963257,1.3903567790985107
14090.274611020637,0.8979767560958862,1.1374473571777344,1.2043176889419556,1.3906806707382202
14090.276611080697,0.898138701915741,1.1372853517532349,1.2036701440811157,1.3906806707382202
14090.278611140757,0.8966814279556274,1.136799693107605,1.2038320302963257,1.3900330066680908
14090.280611200818,0.8978148698806763,1.1363139152526855,1.2039939165115356,1.392137885093689
14090.282611260878,0.8983005881309509,1.1364758014678955,1.2043176889419556,1.391975998878479
14090.284611320938,0.8986244201660156,1.137123465538025,1.204479694366455,1.3913283348083496
14090.286611381,0.8983005881309509,1.136961579322815,1.2041558027267456,1.3913283348083496
14090.28861144106,0.8989482522010803,1.136799693107605,1.2039939165115356,1.392137885093689
14090.290611501121,0.8986244201660156,1.137123465538025,1.204479694366455,1.3916521072387695
14090.29261156118,0.8983005881309509,1.137123465538025,1.2052892446517944,1.3914902210235596
14090.29461162124,0.8986244201660156,1.1364758014678955,1.2052892446517944,1.3913283348083496
14090.296611681302,0.8979767560958862,1.137123465538025,1.204965353012085,1.3908425569534302
14090.298611741362,0.8973290920257568,1.1382569074630737,1.204803466796875,1.3908425569534302
14090.300611801422,0.8984625339508057,1.1377711296081543,1.204479694366455,1.3908425569534302
14090.302611861483,0.899272084236145,1.1377711296081543,1.204965353012085,1.391814112663269
14090.304611921543,0.8983005881309509,1.1382569074630737,1.204803466796875,1.391975998878479
14090.306611981603,0.8976529240608215,1.1382569074630737,1.204965353012085,1.391975998878479
14090.308612041665,0.8989482522010803,1.1379330158233643,1.2051273584365845,1.392137885093689
14090.310612101724,0.8983005881309509,1.1379330158233643,1.2052892446517944,1.3911664485931396
14090.312612161786,0.8979767560958862,1.1376092433929443,1.204641580581665,1.3916521072387695
14090.314612221846,0.8984625339508057,1.1382569074630737,1.204803466796875,1.391975998878479
14090.316612281906,0.898138701915741,1.1385806798934937,1.204803466796875,1.3911664485931396
14090.318612341967,0.8971672058105469,1.1385806798934937,1.2052892446517944,1.3911664485931396
14090.320612402027,0.8989482522010803,1.1380950212478638,1.2057750225067139,1.392299771308899
14090.322612462087,0.899433970451355,1.1385806798934937,1.2057750225067139,1.3913283348083496
14090.324612522149,0.8987863659858704,1.139066457748413,1.2054511308670044,1.3914902210235596
14090.326612582208,0.8989482522010803,1.1384187936782837,1.2054511308670044,1.3926236629486084
14090.32861264227,0.9002435803413391,1.1379330158233643,1.2051273584365845,1.3931093215942383
14090.33061270233,0.8987863659858704,1.1380950212478638,1.2054511308670044,1.392299771308899
14090.33261276239,0.8984625339508057,1.139066457748413,1.2051273584365845,1.3929474353790283
14090.334612822451,0.898138701915741,1.1395522356033325,1.204803466796875,1.3926236629486084
14090.336612882511,0.898138701915741,1.139066457748413,1.2054511308670044,1.392299771308899
14090.33861294257,0.8974910378456116,1.1387425661087036,1.204803466796875,1.3924616575241089
14090.340613002632,0.8987863659858704,1.1385806798934937,1.2051273584365845,1.3932713270187378
14090.342613062692,0.8999197483062744,1.139066457748413,1.2052892446517944,1.3934332132339478
14090.344613122754,0.8997578024864197,1.139390230178833,1.2060987949371338,1.3932713270187378
14090.346613182814,0.9000816345214844,1.139228343963623,1.2052892446517944,1.3940808773040771
14090.348613242873,0.9015388488769531,1.139228343963623,1.204965353012085,1.394242763519287
14090.350613302935,0.8999197483062744,1.139390230178833,1.2056130170822144,1.3932713270187378
14090.352613362995,0.8991101384162903,1.1395522356033325,1.2056130170822144,1.3929474353790283
14090.354613423055,0.899433970451355,1.139228343963623,1.2064225673675537,1.3929474353790283
14090.356613483116,0.8995959162712097,1.139390230178833,1.2054511308670044,1.3931093215942383
14090.358613543176,0.898138701915741,1.1389045715332031,1.204479694366455,1.3927855491638184
14090.360613603236,0.8987863659858704,1.139228343963623,1.204803466796875,1.3934332132339478
14090.362613663297,0.8995959162712097,1.1398760080337524,1.2052892446517944,1.3935950994491577
14090.364613723357,0.9002435803413391,1.1395522356033325,1.2059369087219238,1.3947285413742065
14090.366613783419,0.9007292985916138,1.139390230178833,1.2056130170822144,1.3940808773040771
14090.368613843479,0.9008912444114685,1.1395522356033325,1.2059369087219238,1.3937569856643677
14090.370613903538,0.8995959162712097,1.140199899673462,1.2054511308670044,1.3940808773040771
14090.3726139636,0.8983005881309509,1.140199899673462,1.2043176889419556,1.3948904275894165
14090.37461402366,0.8987863659858704,1.1400378942489624,1.204479694366455,1.3939189910888672
14090.37661408372,0.8995959162712097,1.1406855583190918,1.2051273584365845,1.3937569856643677
14090.378614143781,0.8984625339508057,1.1398760080337524,1.204641580581665,1.3939189910888672
14090.380614203841,0.8989482522010803,1.1400378942489624,1.2039939165115356,1.3947285413742065
14090.3826142639,0.9005674123764038,1.1406855583190918,1.204803466796875,1.3950523138046265
14090.384614323963,0.8995959162712097,1.1398760080337524,1.2051273584365845,1.3940808773040771
14090.386614384022,0.8997578024864197,1.1403617858886719,1.204803466796875,1.3937569856643677
14090.388614444084,0.8999197483062744,1.1400378942489624,1.204803466796875,1.3950523138046265
14090.390614504144,0.898138701915741,1.140199899673462,1.2041558027267456,1.395376205444336
14090.392614564204,0.8978148698806763,1.1406855583190918,1.2031843662261963,1.3952142000198364
14090.394614624265,0.8984625339508057,1.1400378942489624,1.2030224800109863,1.394566535949707
14090.396614684325,0.8987863659858704,1.1395522356033325,1.2026985883712769,1.394404649734497
14090.398614744387,0.8976529240608215,1.1405236721038818,1.2030224800109863,1.3937569856643677
14090.400614804446,0.8984625339508057,1.140199899673462,1.2033462524414062,1.3947285413742065
14090.402614864506,0.899433970451355,1.140199899673462,1.202536702156067,1.3952142000198364
14090.404614924568,0.8991101384162903,1.139066457748413,1.202374815940857,1.3948904275894165
14090.406614984628,0.8986244201660156,1.139228343963623,1.2030224800109863,1.395376205444336
14090.408615044687,0.8989482522010803,1.140199899673462,1.2035081386566162,1.3956999778747559
14090.410615104749,0.8979767560958862,1.140199899673462,1.2020509243011475,1.394242763519287
14090.412615164809,0.8978148698806763,1.1400378942489624,1.201241374015808,1.394566535949707
14090.414615224869,0.8984625339508057,1.1398760080337524,1.201241374015808,1.394566535949707
14090.41661528493,0.8983005881309509,1.139228343963623,1.2009176015853882,1.3947285413742065
14090.41861534499,0.8965195417404175,1.1385806798934937,1.2010794878005981,1.3948904275894165
14090.420615405052,0.8976529240608215,1.1382569074630737,1.201241374015808,1.395538091659546
14090.422615465111,0.8978148698806763,1.1387425661087036,1.201403260231018,1.3950523138046265
14090.424615525171,0.8978148698806763,1.1384187936782837,1.2017271518707275,1.3940808773040771
14090.426615585233,0.8974910378456116,1.1387425661087036,1.2010794878005981,1.3932713270187378
14090.428615645293,0.8984625339508057,1.1385806798934937,1.2007555961608887,1.394566535949707
14090.430615705352,0.8978148698806763,1.1387425661087036,1.1999460458755493,1.3947285413742065
14090.432615765414,0.8973290920257568,1.139228343963623,1.2001079320907593,1.395376205444336
14090.434615825474,0.8974910378456116,1.1380950212478638,1.1996222734451294,1.395538091659546
14090.436615885534,0.8976529240608215,1.1377711296081543,1.1996222734451294,1.3948904275894165
14090.438615945595,0.8965195417404175,1.1380950212478638,1.19929838180542,1.3947285413742065
14090.440616005655,0.8966814279556274,1.1389045715332031,1.198974609375,1.3947285413742065
14090.442616065717,0.8971672058105469,1.1382569074630737,1.198974609375,1.3940808773040771
14090.444616125777,0.8968433737754822,1.1372853517532349,1.1981650590896606,1.394242763519287
14090.446616185836,0.8963576555252075,1.1374473571777344,1.1983269453048706,1.3947285413742065
14090.448616245898,0.8978148698806763,1.1377711296081543,1.1981650590896606,1.394404649734497
14090.450616305958,0.8974910378456116,1.1376092433929443,1.1983269453048706,1.3934332132339478
14090.452616366018,0.8963576555252075,1.136961579322815,1.1983269453048706,1.3935950994491577
14090.45461642608,0.8966814279556274,1.1374473571777344,1.1975173950195312,1.3947285413742065
14090.456616486139,0.8966814279556274,1.1372853517532349,1.1975173950195312,1.3940808773040771
14090.4586165462,0.8953861594200134,1.1364758014678955,1.1980030536651611,1.3939189910888672
14090.46061660626,0.8960338234901428,1.137123465538025,1.1975173950195312,1.394566535949707
14090.46261666632,0.8966814279556274,1.1372853517532349,1.1971935033798218,1.3948904275894165
14090.464616726382,0.8971672058105469,1.1380950212478638,1.1981650590896606,1.394566535949707
14090.466616786442,0.8974910378456116,1.1379330158233643,1.19913649559021,1.3947285413742065
14090.468616846501,0.8979767560958862,1.1374473571777344,1.1983269453048706,1.394242763519287
14090.470616906563,0.8961957097053528,1.136961579322815,1.1986507177352905,1.3934332132339478
14090.472616966623,0.8952242136001587,1.137123465538025,1.1981650590896606,1.394404649734497
14090.474617026684,0.8955480456352234,1.1364758014678955,1.198974609375,1.3937569856643677
14090.476617086744,0.8965195417404175,1.137123465538025,1.19913649559021,1.3950523138046265
14090.478617146804,0.8957099914550781,1.1379330158233643,1.1984888315200806,1.395376205444336
14090.480617206866,0.8971672058105469,1.1380950212478638,1.1981650590896606,1.3952142000198364
14090.482617266925,0.898138701915741,1.1377711296081543,1.1973553895950317,1.3952142000198364
14090.484617326985,0.8986244201660156,1.1379330158233643,1.1971935033798218,1.3958618640899658
14090.486617387047,0.898138701915741,1.1379330158233643,1.1976792812347412,1.395538091659546
14090.488617447107,0.8986244201660156,1.1374473571777344,1.1984888315200806,1.395376205444336
14090.490617507166,0.8976529240608215,1.136799693107605,1.1996222734451294,1.3947285413742065
14090.492617567228,0.8976529240608215,1.1366376876831055,1.1996222734451294,1.394566535949707
14090.494617627288,0.8973290920257568,1.1366376876831055,1.1996222734451294,1.3940808773040771
14090.49661768735,0.8971672058105469,1.1379330158233643,1.19929838180542,1.394404649734497
14090.49861774741,0.8960338234901428,1.1376092433929443,1.1976792812347412,1.394242763519287
14090.50061780747,0.8965195417404175,1.1376092433929443,1.1978411674499512,1.3947285413742065
14090.50261786753,0.8957099914550781,1.136799693107605,1.1986507177352905,1.394404649734497
14090.50461792759,0.8963576555252075,1.1372853517532349,1.1983269453048706,1.3947285413742065
14090.50661798765,0.8955480456352234,1.1366376876831055,1.1971935033798218,1.3948904275894165
14090.508618047712,0.8973290920257568,1.136961579322815,1.1978411674499512,1.395376205444336
14090.510618107772,0.8973290920257568,1.1366376876831055,1.1983269453048706,1.3940808773040771
14090.512618167832,0.8971672058105469,1.136961579322815,1.1975173950195312,1.3940808773040771
14090.514618227893,0.8974910378456116,1.1363139152526855,1.195898175239563,1.394566535949707
14090.516618287953,0.8974910378456116,1.136799693107605,1.1963839530944824,1.394566535949707
14090.518618348015,0.8961957097053528,1.1356662511825562,1.1971935033798218,1.3939189910888672
14090.520618408074,0.8971672058105469,1.1361520290374756,1.1976792812347412,1.395538091659546
14090.522618468134,0.8974910378456116,1.1359901428222656,1.1981650590896606,1.395376205444336
14090.524618528196,0.8976529240608215,1.1353424787521362,1.1978411674499512,1.394242763519287
14090.526618588256,0.898138701915741,1.1346948146820068,1.1971935033798218,1.394404649734497
14090.528618648315,0.8986244201660156,1.1343709230422974,1.1970316171646118,1.3950523138046265
14090.530618708377,0.8965195417404175,1.1346948146820068,1.1986507177352905,1.394404649734497
14090.532618768437,0.8963576555252075,1.1345328092575073,1.198974609375,1.394404649734497
14090.534618828498,0.8976529240608215,1.1348567008972168,1.198974609375,1.394242763519287
14090.536618888558,0.898138701915741,1.1346948146820068,1.1975173950195312,1.394242763519287
14090.538618948618,0.8970052599906921,1.133723258972168,1.1975173950195312,1.3947285413742065
14090.54061900868,0.898138701915741,1.1345328092575073,1.1975173950195312,1.3947285413742065
14090.54261906874,0.899272084236145,1.1343709230422974,1.1978411674499512,1.3947285413742065
14090.5446191288,0.8987863659858704,1.1343709230422974,1.1983269453048706,1.3940808773040771
14090.54661918886,0.898138701915741,1.1345328092575073,1.1980030536651611,1.3940808773040771
14090.54861924892,0.8991101384162903,1.1342090368270874,1.1975173950195312,1.3950523138046265
14090.550619308982,0.8986244201660156,1.1343709230422974,1.1986507177352905,1.394242763519287
14090.552619369042,0.8983005881309509,1.133561372756958,1.1994602680206299,1.3940808773040771
14090.554619429102,0.8978148698806763,1.133399486541748,1.198974609375,1.3947285413742065
14090.556619489163,0.8978148698806763,1.133237600326538,1.1986507177352905,1.3948904275894165
14090.558619549223,0.8970052599906921,1.133237600326538,1.1986507177352905,1.394566535949707
14090.560619609283,0.8984625339508057,1.133399486541748,1.1980030536651611,1.394404649734497
14090.562619669345,0.8991101384162903,1.133399486541748,1.1983269453048706,1.394242763519287
14090.564619729405,0.899433970451355,1.133723258972168,1.1994602680206299,1.394404649734497
14090.566619789464,0.899272084236145,1.1340471506118774,1.19913649559021,1.3948904275894165
14090.568619849526,0.8999197483062744,1.1342090368270874,1.19929838180542,1.3950523138046265
14090.570619909586,0.8995959162712097,1.133561372756958,1.1996222734451294,1.3948904275894165
14090.572619969647,0.8991101384162903,1.1340471506118774,1.2002699375152588,1.3950523138046265
14090.574620029707,0.8984625339508057,1.133723258972168,1.1994602680206299,1.3952142000198364
14090.576620089767,0.899433970451355,1.133561372756958,1.1994602680206299,1.394404649734497
14090.578620149829,0.8983005881309509,1.133237600326538,1.1999460458755493,1.394566535949707
14090.580620209888,0.8991101384162903,1.133723258972168,1.1999460458755493,1.3958618640899658
14090.582620269948,0.9002435803413391,1.133561372756958,1.1999460458755493,1.3958618640899658
14090.58462033001,0.9010531306266785,1.1338852643966675,1.2001079320907593,1.3963476419448853
14090.58662039007,0.9008912444114685,1.1340471506118774,1.2004318237304688,1.3965095281600952
14090.588620450131,0.9021865129470825,1.1327518224716187,1.2005937099456787,1.3961857557296753
14090.590620510191,0.9013769626617432,1.133237600326538,1.2005937099456787,1.3956999778747559
14090.59262057025,0.9000816345214844,1.133237600326538,1.1996222734451294,1.395376205444336
14090.594620630312,0.8999197483062744,1.1329137086868286,1.2001079320907593,1.3948904275894165
14090.596620690372,0.9010531306266785,1.133237600326538,1.2002699375152588,1.3950523138046265
14090.598620750432,0.9005674123764038,1.1327518224716187,1.2004318237304688,1.3952142000198364
14090.600620810494,0.9018626809120178,1.1330755949020386,1.2001079320907593,1.3960238695144653
14090.602620870553,0.902672290802002,1.1327518224716187,1.2005937099456787,1.3958618640899658
14090.604620930615,0.9021865129470825,1.1325899362564087,1.2007555961608887,1.3960238695144653
14090.606620990675,0.9028341770172119,1.1325899362564087,1.1997841596603394,1.3961857557296753
14090.608621050735,0.9036437273025513,1.1325899362564087,1.2001079320907593,1.3965095281600952
14090.610621110796,0.9021865129470825,1.1330755949020386,1.2005937099456787,1.3952142000198364
14090.612621170856,0.9018626809120178,1.1325899362564087,1.2009176015853882,1.3952142000198364
14090.614621230916,0.9025103449821472,1.1329137086868286,1.2004318237304688,1.3958618640899658
14090.616621290977,0.9028341770172119,1.133399486541748,1.2002699375152588,1.3968334197998047
14090.618621351037,0.9028341770172119,1.133561372756958,1.2022128105163574,1.3958618640899658
14090.620621411097,0.9047771692276001,1.1340471506118774,1.202536702156067,1.3968334197998047
14090.622621471159,0.9054247736930847,1.1340471506118774,1.2020509243011475,1.3966715335845947
14090.624621531219,0.9049390554428101,1.1345328092575073,1.2018890380859375,1.3966715335845947
14090.62662159128,0.9046152234077454,1.1342090368270874,1.2022128105163574,1.3971571922302246
14090.62862165134,0.9060724377632141,1.133723258972168,1.202536702156067,1.3982906341552734
14090.6306217114,0.9055867195129395,1.1327518224716187,1.202374815940857,1.397642970085144
14090.632621771461,0.9052628874778748,1.1329137086868286,1.2026985883712769,1.397642970085144
14090.634621831521,0.9063962697982788,1.1324279308319092,1.2035081386566162,1.3981287479400635
14090.636621891581,0.9073677659034729,1.1321041584014893,1.2033462524414062,1.397966742515564
14090.638621951643,0.9057486057281494,1.133561372756958,1.2031843662261963,1.397804856300354
14090.640622011702,0.9072058796882629,1.1340471506118774,1.2033462524414062,1.3986144065856934
14090.642622071762,0.9073677659034729,1.133561372756958,1.2039939165115356,1.3989382982254028
14090.644622131824,0.9068820476531982,1.1330755949020386,1.2033462524414062,1.3991001844406128
14090.646622191884,0.9072058796882629,1.1325899362564087,1.2038320302963257,1.3989382982254028
14090.648622251945,0.9081773161888123,1.1325899362564087,1.2035081386566162,1.3992620706558228
14090.650622312005,0.9075296521186829,1.1327518224716187,1.2020509243011475,1.397642970085144
14090.652622372065,0.9078534841537476,1.1327518224716187,1.2026985883712769,1.3987764120101929
14090.654622432126,0.9078534841537476,1.1316183805465698,1.2028604745864868,1.3982906341552734
14090.656622492186,0.9078534841537476,1.1322660446166992,1.2028604745864868,1.3987764120101929
14090.658622552246,0.9070439338684082,1.1324279308319092,1.2030224800109863,1.3989382982254028
14090.660622612308,0.9075296521186829,1.1325899362564087,1.2031843662261963,1.3991001844406128
14090.662622672367,0.908501148223877,1.1330755949020386,1.2030224800109863,1.3984525203704834
14090.664622732429,0.908501148223877,1.1324279308319092,1.2028604745864868,1.3989382982254028
14090.666622792489,0.9076915979385376,1.1324279308319092,1.2026985883712769,1.3994239568710327
14090.668622852549,0.9088249802589417,1.133237600326538,1.2035081386566162,1.3999097347259521
14090.67062291261,0.9070439338684082,1.133723258972168,1.2030224800109863,1.3991001844406128
14090.67262297267,0.9073677659034729,1.1330755949020386,1.2017271518707275,1.3984525203704834
14090.67462303273,0.9075296521186829,1.1322660446166992,1.202374815940857,1.3992620706558228
14090.676623092791,0.9076915979385376,1.1317803859710693,1.2020509243011475,1.4002336263656616
14090.678623152851,0.9063962697982788,1.1321041584014893,1.2020509243011475,1.400071620941162
14090.680623212913,0.9076915979385376,1.1325899362564087,1.202536702156067,1.4007192850112915
14090.682623272973,0.9091488122940063,1.1327518224716187,1.2022128105163574,1.4007192850112915
14090.684623333033,0.9078534841537476,1.1329137086868286,1.2009176015853882,1.400881290435791
14090.686623393094,0.9080154299736023,1.1329137086868286,1.201403260231018,1.400881290435791
14090.688623453154,0.9088249802589417,1.1327518224716187,1.2001079320907593,1.401043176651001
14090.690623513214,0.9086630940437317,1.1327518224716187,1.2007555961608887,1.400071620941162
14090.692623573275,0.908339262008667,1.1321041584014893,1.201241374015808,1.400071620941162
14090.694623633335,0.9075296521186829,1.1319422721862793,1.2017271518707275,1.3995859622955322
14090.696623693395,0.9075296521186829,1.1317803859710693,1.2010794878005981,1.3999097347259521
14090.698623753457,0.9059105515480042,1.1314564943313599,1.1997841596603394,1.3992620706558228
14090.700623813516,0.9075296521186829,1.1309707164764404,1.198974609375,1.3999097347259521
14090.702623873578,0.9086630940437317,1.1321041584014893,1.198974609375,1.4002336263656616
14090.704623933638,0.9089869260787964,1.1321041584014893,1.1994602680206299,1.4007192850112915
14090.706623993698,0.9086630940437317,1.1319422721862793,1.1994602680206299,1.401043176651001
14090.70862405376,0.9091488122940063,1.1319422721862793,1.1986507177352905,1.400881290435791
14090.710624113819,0.908339262008667,1.1317803859710693,1.1994602680206299,1.3999097347259521
14090.712624173879,0.9078534841537476,1.1317803859710693,1.19881272315979,1.400071620941162
14090.71462423394,0.9078534841537476,1.1325899362564087,1.19913649559021,1.4002336263656616
14090.716624294,0.9076915979385376,1.1321041584014893,1.1994602680206299,1.4003955125808716
14090.71862435406,0.9057486057281494,1.1324279308319092,1.1994602680206299,1.401205062866211
14090.720624414122,0.9070439338684082,1.1319422721862793,1.1983269453048706,1.401366949081421
14090.722624474181,0.9080154299736023,1.1317803859710693,1.1978411674499512,1.4005573987960815
14090.724624534243,0.9072058796882629,1.1316183805465698,1.1980030536651611,1.4005573987960815
14090.726624594303,0.9072058796882629,1.1308088302612305,1.1976792812347412,1.4003955125808716
14090.728624654363,0.9089869260787964,1.13129460811615,1.1981650590896606,1.4007192850112915
14090.730624714424,0.9072058796882629,1.1306469440460205,1.1976792812347412,1.4002336263656616
14090.732624774484,0.9055867195129395,1.1309707164764404,1.19913649559021,1.4002336263656616
14090.734624834546,0.9060724377632141,1.1308088302612305,1.19881272315979,1.4002336263656616
14090.736624894605,0.9068820476531982,1.13129460811615,1.1980030536651611,1.3999097347259521
14090.738624954665,0.9060724377632141,1.1306469440460205,1.1976792812347412,1.3997478485107422
14090.740625014727,0.9072058796882629,1.130323052406311,1.1973553895950317,1.4007192850112915
14090.742625074787,0.9076915979385376,1.1304850578308105,1.1975173950195312,1.401043176651001
14090.744625134847,0.9073677659034729,1.1298373937606812,1.1962220668792725,1.400881290435791
14090.746625194908,0.9052628874778748,1.1304850578308105,1.1960601806640625,1.4002336263656616
14090.748625254968,0.9065582156181335,1.13113272190094,1.1960601806640625,1.4016908407211304
14090.750625315028,0.9062343835830688,1.13129460811615,1.1968697309494019,1.4003955125808716
14090.75262537509,0.9059105515480042,1.1308088302612305,1.196707844734192,1.4002336263656616
14090.75462543515,0.9065582156181335,1.13129460811615,1.1963839530944824,1.400881290435791
14090.75662549521,0.9068820476531982,1.1308088302612305,1.196707844734192,1.4016908407211304
14090.75862555527,0.9060724377632141,1.130161166191101,1.1968697309494019,1.400881290435791
14090.76062561533,0.9065582156181335,1.1308088302612305,1.1968697309494019,1.4016908407211304
14090.762625675392,0.9067201018333435,1.1306469440460205,1.1973553895950317,1.4015288352966309
14090.764625735452,0.9067201018333435,1.13113272190094,1.1975173950195312,1.4025003910064697
14090.766625795512,0.9065582156181335,1.1304850578308105,1.1970316171646118,1.4020146131515503
14090.768625855573,0.9076915979385376,1.1304850578308105,1.1968697309494019,1.4015288352966309
14090.770625915633,0.9072058796882629,1.13113272190094,1.1973553895950317,1.401366949081421
14090.772625975693,0.9063962697982788,1.1308088302612305,1.1968697309494019,1.401366949081421
14090.774626035754,0.9057486057281494,1.1308088302612305,1.1965458393096924,1.401043176651001
14090.776626095814,0.9060724377632141,1.1317803859710693,1.1973553895950317,1.401366949081421
14090.778626155876,0.9047771692276001,1.130323052406311,1.1960601806640625,1.401043176651001
14090.780626215936,0.9059105515480042,1.130161166191101,1.1952505111694336,1.4020146131515503
14090.782626275995,0.9062343835830688,1.1308088302612305,1.195736289024353,1.4015288352966309
14090.784626336057,0.9076915979385376,1.1314564943313599,1.195412516593933,1.401366949081421
14090.786626396117,0.9073677659034729,1.130161166191101,1.1947648525238037,1.4007192850112915
14090.788626456177,0.9068820476531982,1.1304850578308105,1.1937932968139648,1.4020146131515503
14090.790626516238,0.9062343835830688,1.1304850578308105,1.1942790746688843,1.4015288352966309
14090.792626576298,0.9051010012626648,1.1314564943313599,1.1949267387390137,1.4015288352966309
14090.79462663636,0.9044533371925354,1.13129460811615,1.1949267387390137,1.401366949081421
14090.79662669642,0.9046152234077454,1.13113272190094,1.1947648525238037,1.401043176651001
14090.79862675648,0.9046152234077454,1.1308088302612305,1.1946029663085938,1.400881290435791
14090.80062681654,0.9055867195129395,1.130161166191101,1.1941171884536743,1.401043176651001
14090.8026268766,0.9059105515480042,1.1309707164764404,1.1942790746688843,1.401205062866211
14090.80462693666,0.9055867195129395,1.1316183805465698,1.1941171884536743,1.4015288352966309
14090.806626996722,0.9057486057281494,1.13129460811615,1.1942790746688843,1.4018527269363403
14090.808627056782,0.9068820476531982,1.13113272190094,1.1946029663085938,1.4020146131515503
14090.810627116844,0.9059105515480042,1.13113272190094,1.1942790746688843,1.4020146131515503
14090.812627176903,0.9057486057281494,1.130161166191101,1.193469524383545,1.4016908407211304
14090.814627236963,0.9063962697982788,1.1304850578308105,1.1937932968139648,1.401366949081421
14090.816627297025,0.9063962697982788,1.1308088302612305,1.1941171884536743,1.400881290435791
14090.818627357085,0.9046152234077454,1.1306469440460205,1.193469524383545,1.4007192850112915
14090.820627417144,0.9054247736930847,1.130161166191101,1.193307638168335,1.4018527269363403
14090.822627477206,0.9054247736930847,1.1304850578308105,1.1936314105987549,1.401366949081421
14090.824627537266,0.9060724377632141,1.130323052406311,1.1939553022384644,1.4020146131515503
14090.826627597326,0.9062343835830688,1.1306469440460205,1.1944409608840942,1.4023385047912598
14090.828627657387,0.9067201018333435,1.1306469440460205,1.1942790746688843,1.4020146131515503
14090.830627717447,0.9067201018333435,1.130323052406311,1.1936314105987549,1.4016908407211304
14090.832627777509,0.9059105515480042,1.1299992799758911,1.193469524383545,1.4021764993667603
14090.834627837568,0.9054247736930847,1.130323052406311,1.1937932968139648,1.4018527269363403
14090.836627897628,0.9057486057281494,1.1308088302612305,1.193469524383545,1.4020146131515503
14090.83862795769,0.9047771692276001,1.13113272190094,1.1936314105987549,1.4020146131515503
14090.84062801775,0.9051010012626648,1.1309707164764404,1.193307638168335,1.4029861688613892
14090.84262807781,0.9059105515480042,1.1308088302612305,1.1936314105987549,1.4020146131515503
14090.844628137871,0.9062343835830688,1.130323052406311,1.1936314105987549,1.4016908407211304
14090.84662819793,0.9059105515480042,1.130161166191101,1.193469524383545,1.4023385047912598
14090.84862825799,0.9055867195129395,1.1308088302612305,1.1936314105987549,1.4021764993667603
14090.850628318052,0.9046152234077454,1.1304850578308105,1.1937932968139648,1.4003955125808716
14090.852628378112,0.9051010012626648,1.1309707164764404,1.1931456327438354,1.400881290435791
14090.854628438174,0.903967559337616,1.1308088302612305,1.1929837465286255,1.4021764993667603
14090.856628498233,0.9041295051574707,1.1304850578308105,1.192336082458496,1.4029861688613892
14090.858628558293,0.9041295051574707,1.1299992799758911,1.1924980878829956,1.401366949081421
14090.860628618355,0.9047771692276001,1.1299992799758911,1.1926599740982056,1.4016908407211304
14090.862628678415,0.9042913913726807,1.1299992799758911,1.1928218603134155,1.401205062866211
14090.864628738474,0.9042913913726807,1.130323052406311,1.1926599740982056,1.4021764993667603
14090.866628798536,0.9041295051574707,1.1295135021209717,1.1915265321731567,1.4016908407211304
14090.868628858596,0.9052628874778748,1.1287039518356323,1.1913646459579468,1.401205062866211
14090.870628918658,0.903805673122406,1.1293516159057617,1.192336082458496,1.4016908407211304
14090.872628978717,0.9033198952674866,1.1296755075454712,1.1915265321731567,1.4029861688613892
14090.874629038777,0.9031580090522766,1.130161166191101,1.1912027597427368,1.4021764993667603
14090.876629098839,0.903805673122406,1.130161166191101,1.1910407543182373,1.4016908407211304
14090.878629158899,0.902672290802002,1.1296755075454712,1.1913646459579468,1.4020146131515503
14090.880629218958,0.903805673122406,1.1295135021209717,1.1912027597427368,1.4026622772216797
14090.88262927902,0.9041295051574707,1.1298373937606812,1.1907169818878174,1.4020146131515503
14090.88462933908,0.9044533371925354,1.1291897296905518,1.1910407543182373,1.4018527269363403
14090.886629399141,0.9042913913726807,1.1293516159057617,1.1907169818878174,1.4018527269363403
14090.888629459201,0.9047771692276001,1.1306469440460205,1.1912027597427368,1.4021764993667603
14090.890629519261,0.9036437273025513,1.13113272190094,1.1908788681030273,1.401043176651001
14090.892629579323,0.9028341770172119,1.130161166191101,1.1907169818878174,1.401205062866211
14090.894629639382,0.9036437273025513,1.1299992799758911,1.190069317817688,1.4023385047912598
14090.896629699442,0.9033198952674866,1.130161166191101,1.189907431602478,1.4016908407211304
14090.898629759504,0.9023484587669373,1.1296755075454712,1.190231204032898,1.401043176651001
14090.900629819564,0.9033198952674866,1.1290278434753418,1.190231204032898,1.401366949081421
14090.902629879623,0.903805673122406,1.1291897296905518,1.1905550956726074,1.401366949081421
14090.904629939685,0.9034818410873413,1.1295135021209717,1.1915265321731567,1.4021764993667603
14090.906629999745,0.9034818410873413,1.130161166191101,1.1912027597427368,1.4028241634368896
14090.908630059806,0.903967559337616,1.130323052406311,1.190231204032898,1.4031480550765991
14090.910630119866,0.9033198952674866,1.130323052406311,1.1915265321731567,1.4018527269363403
14090.912630179926,0.9034818410873413,1.130323052406311,1.1915265321731567,1.4015288352966309
14090.914630239988,0.9034818410873413,1.13129460811615,1.1907169818878174,1.4015288352966309
14090.916630300047,0.9031580090522766,1.1309707164764404,1.190231204032898,1.401366949081421
14090.918630360107,0.902672290802002,1.1308088302612305,1.1907169818878174,1.401043176651001
14090.920630420169,0.9033198952674866,1.1308088302612305,1.1912027597427368,1.4021764993667603
14090.922630480229,0.9041295051574707,1.13129460811615,1.1907169818878174,1.403309941291809
14090.92463054029,0.9044533371925354,1.1314564943313599,1.1908788681030273,1.403309941291809
14090.92663060035,0.9046152234077454,1.1306469440460205,1.1912027597427368,1.4029861688613892
14090.92863066041,0.9055867195129395,1.130323052406311,1.1918504238128662,1.4031480550765991
14090.930630720472,0.903805673122406,1.1298373937606812,1.1920123100280762,1.4023385047912598
14090.932630780531,0.9031580090522766,1.13113272190094,1.1921741962432861,1.4026622772216797
14090.934630840591,0.9042913913726807,1.13129460811615,1.192336082458496,1.4021764993667603
14090.936630900653,0.903805673122406,1.13113272190094,1.1920123100280762,1.4020146131515503
14090.938630960713,0.9034818410873413,1.1306469440460205,1.1921741962432861,1.4021764993667603
14090.940631020774,0.9046152234077454,1.13129460811615,1.1916884183883667,1.403309941291809
14090.942631080834,0.9047771692276001,1.1316183805465698,1.1918504238128662,1.4028241634368896
14090.944631140894,0.9049390554428101,1.1308088302612305,1.1926599740982056,1.4046052694320679
14090.946631200955,0.9047771692276001,1.1309707164764404,1.1929837465286255,1.4042813777923584
14090.948631261015,0.9059105515480042,1.13129460811615,1.1928218603134155,1.4031480550765991
14090.950631321075,0.9059105515480042,1.1321041584014893,1.1920123100280762,1.4020146131515503
14090.952631381137,0.9046152234077454,1.13129460811615,1.1921741962432861,1.4023385047912598
14090.954631441196,0.9051010012626648,1.1304850578308105,1.192336082458496,1.4023385047912598
14090.956631501256,0.9054247736930847,1.13113272190094,1.1924980878829956,1.4015288352966309
14090.958631561318,0.9041295051574707,1.1314564943313599,1.1928218603134155,1.400881290435791
14090.960631621378,0.9051010012626648,1.13113272190094,1.1924980878829956,1.4023385047912598
14090.96263168144,0.9054247736930847,1.13113272190094,1.1924980878829956,1.403471827507019
14090.964631741499,0.9047771692276001,1.13129460811615,1.1929837465286255,1.4037957191467285
14090.966631801559,0.9047771692276001,1.1308088302612305,1.1920123100280762,1.403309941291809
14090.96863186162,0.9062343835830688,1.13113272190094,1.1921741962432861,1.4029861688613892
14090.97063192168,0.9051010012626648,1.13113272190094,1.1928218603134155,1.4025003910064697
14090.97263198174,0.9041295051574707,1.1306469440460205,1.1924980878829956,1.4028241634368896
14090.974632041802,0.9042913913726807,1.1306469440460205,1.1931456327438354,1.4025003910064697
14090.976632101861,0.9047771692276001,1.1299992799758911,1.1926599740982056,1.4026622772216797
14090.978632161921,0.9041295051574707,1.1290278434753418,1.1928218603134155,1.4021764993667603
14090.980632221983,0.9057486057281494,1.1291897296905518,1.1918504238128662,1.4028241634368896
14090.982632282043,0.9060724377632141,1.1295135021209717,1.1913646459579468,1.4029861688613892
14090.984632342104,0.9059105515480042,1.1296755075454712,1.1920123100280762,1.4023385047912598
14090.986632402164,0.9057486057281494,1.130323052406311,1.193307638168335,1.4026622772216797
14090.988632462224,0.9068820476531982,1.1309707164764404,1.193469524383545,1.4039576053619385
14090.990632522286,0.9054247736930847,1.13113272190094,1.193469524383545,1.4026622772216797
14090.992632582345,0.9042913913726807,1.13129460811615,1.193469524383545,1.4020146131515503
14090.994632642405,0.9042913913726807,1.130161166191101,1.1931456327438354,1.4021764993667603
14090.996632702467,0.9042913913726807,1.1308088302612305,1.1924980878829956,1.4021764993667603
14090.998632762527,0.9041295051574707,1.1306469440460205,1.1926599740982056,1.4029861688613892
14091.000632822588,0.9055867195129395,1.130161166191101,1.1931456327438354,1.4029861688613892
14091.002632882648,0.9059105515480042,1.130323052406311,1.1931456327438354,1.4018527269363403
14091.004632942708,0.9057486057281494,1.1296755075454712,1.193469524383545,1.4018527269363403
14091.00663300277,0.9060724377632141,1.1296755075454712,1.193307638168335,1.401366949081421
14091.00863306283,0.9065582156181335,1.1304850578308105,1.1926599740982056,1.401366949081421
14091.010633122889,0.9055867195129395,1.1304850578308105,1.1926599740982056,1.401366949081421
14091.01263318295,0.9052628874778748,1.130161166191101,1.1928218603134155,1.4016908407211304
14091.01463324301,0.9057486057281494,1.1296755075454712,1.193307638168335,1.4016908407211304
14091.016633303072,0.9059105515480042,1.1299992799758911,1.1942790746688843,1.401366949081421
14091.018633363132,0.9052628874778748,1.1309707164764404,1.1946029663085938,1.4007192850112915
14091.020633423192,0.9059105515480042,1.1308088302612305,1.1937932968139648,1.4016908407211304
14091.022633483253,0.9063962697982788,1.130161166191101,1.1941171884536743,1.4026622772216797
14091.024633543313,0.9054247736930847,1.1306469440460205,1.1937932968139648,1.4020146131515503
14091.026633603373,0.9057486057281494,1.1304850578308105,1.1941171884536743,1.4018527269363403
14091.028633663434,0.9068820476531982,1.1308088302612305,1.1939553022384644,1.4023385047912598
14091.030633723494,0.9047771692276001,1.1308088302612305,1.1941171884536743,1.4023385047912598
14091.032633783554,0.9057486057281494,1.1308088302612305,1.1936314105987549,1.4021764993667603
14091.034633843616,0.9055867195129395,1.130323052406311,1.193307638168335,1.4016908407211304
14091.036633903675,0.9057486057281494,1.130161166191101,1.1937932968139648,1.401366949081421
14091.038633963737,0.9049390554428101,1.130161166191101,1.1941171884536743,1.4002336263656616
14091.040634023797,0.9055867195129395,1.1293516159057617,1.1944409608840942,1.401366949081421
14091.042634083857,0.9065582156181335,1.1293516159057617,1.1937932968139648,1.4023385047912598
14091.044634143918,0.9052628874778748,1.1290278434753418,1.193307638168335,1.4029861688613892
14091.046634203978,0.9055867195129395,1.1295135021209717,1.1929837465286255,1.4023385047912598
14091.048634264038,0.9059105515480042,1.1295135021209717,1.193469524383545,1.4021764993667603
14091.0506343241,0.9047771692276001,1.1299992799758911,1.193307638168335,1.400881290435791
14091.05263438416,0.9051010012626648,1.130323052406311,1.193307638168335,1.4005573987960815
14091.05463444422,0.9051010012626648,1.1299992799758911,1.193469524383545,1.4002336263656616
14091.05663450428,0.9047771692276001,1.130323052406311,1.1941171884536743,1.3999097347259521
14091.05863456434,0.9047771692276001,1.130161166191101,1.1937932968139648,1.4007192850112915
14091.060634624402,0.9051010012626648,1.130161166191101,1.1931456327438354,1.4016908407211304
14091.062634684462,0.9063962697982788,1.1295135021209717,1.1929837465286255,1.4018527269363403
14091.064634744522,0.9062343835830688,1.1287039518356323,1.193469524383545,1.4016908407211304
14091.066634804583,0.9065582156181335,1.1291897296905518,1.1937932968139648,1.400881290435791
14091.068634864643,0.9081773161888123,1.1293516159057617,1.1936314105987549,1.4015288352966309
14091.070634924705,0.9068820476531982,1.1298373937606812,1.193469524383545,1.401366949081421
14091.072634984765,0.9055867195129395,1.1293516159057617,1.1937932968139648,1.4015288352966309
14091.074635044824,0.9054247736930847,1.1287039518356323,1.1944409608840942,1.4015288352966309
14091.076635104886,0.9055867195129395,1.1291897296905518,1.1946029663085938,1.4015288352966309
14091.078635164946,0.9052628874778748,1.1291897296905518,1.1949267387390137,1.4007192850112915
14091.080635225006,0.9060724377632141,1.1296755075454712,1.1946029663085938,1.400881290435791
14091.082635285067,0.9068820476531982,1.1304850578308105,1.1947648525238037,1.4021764993667603
14091.084635345127,0.9068820476531982,1.1298373937606812,1.195412516593933,1.4023385047912598
14091.086635405187,0.9062343835830688,1.1295135021209717,1.1950886249542236,1.4023385047912598
14091.088635465248,0.9075296521186829,1.1296755075454712,1.1944409608840942,1.4016908407211304
14091.090635525308,0.9060724377632141,1.1298373937606812,1.1949267387390137,1.401043176651001
14091.09263558537,0.9051010012626648,1.1298373937606812,1.1937932968139648,1.4018527269363403
14091.09463564543,0.9054247736930847,1.1308088302612305,1.1936314105987549,1.4028241634368896
14091.09663570549,0.9057486057281494,1.1304850578308105,1.1937932968139648,1.4026622772216797
14091.098635765551,0.9052628874778748,1.1306469440460205,1.1946029663085938,1.4018527269363403
14091.10063582561,0.9063962697982788,1.1308088302612305,1.1937932968139648,1.4020146131515503
14091.10263588567,0.9060724377632141,1.1309707164764404,1.1939553022384644,1.4020146131515503
14091.104635945732,0.9059105515480042,1.13129460811615,1.1942790746688843,1.4018527269363403
14091.106636005792,0.9060724377632141,1.1304850578308105,1.1936314105987549,1.4018527269363403
14091.108636065852,0.9073677659034729,1.1299992799758911,1.1936314105987549,1.4016908407211304
14091.110636125914,0.9063962697982788,1.1298373937606812,1.1924980878829956,1.401205062866211
14091.112636185973,0.9052628874778748,1.1304850578308105,1.1924980878829956,1.4007192850112915
14091.114636246035,0.9052628874778748,1.1304850578308105,1.192336082458496,1.4007192850112915
14091.116636306095,0.9052628874778748,1.1304850578308105,1.1928218603134155,1.400881290435791
14091.118636366155,0.9047771692276001,1.1306469440460205,1.193469524383545,1.400881290435791
14091.120636426216,0.9060724377632141,1.130161166191101,1.193307638168335,1.4016908407211304
14091.122636486276,0.9055867195129395,1.1293516159057617,1.193469524383545,1.4015288352966309
14091.124636546336,0.9054247736930847,1.1299992799758911,1.1937932968139648,1.4021764993667603
14091.126636606397,0.9047771692276001,1.1296755075454712,1.193469524383545,1.4025003910064697
14091.128636666457,0.9059105515480042,1.1293516159057617,1.1936314105987549,1.4023385047912598
14091.130636726519,0.9052628874778748,1.1296755075454712,1.1937932968139648,1.4018527269363403
14091.132636786579,0.9054247736930847,1.130323052406311,1.1928218603134155,1.4015288352966309
14091.134636846638,0.9055867195129395,1.1306469440460205,1.193307638168335,1.4021764993667603
14091.1366369067,0.9055867195129395,1.130323052406311,1.193469524383545,1.4021764993667603
14091.13863696676,0.9041295051574707,1.1308088302612305,1.1924980878829956,1.4016908407211304
14091.14063702682,0.9049390554428101,1.1306469440460205,1.1921741962432861,1.401366949081421
14091.142637086881,0.9051010012626648,1.1309707164764404,1.1929837465286255,1.4018527269363403
14091.144637146941,0.9047771692276001,1.1309707164764404,1.1928218603134155,1.401366949081421
14091.146637207003,0.9044533371925354,1.1316183805465698,1.1926599740982056,1.4016908407211304
14091.148637267062,0.9049390554428101,1.13129460811615,1.193307638168335,1.4023385047912598
14091.150637327122,0.9042913913726807,1.1308088302612305,1.1926599740982056,1.4015288352966309
14091.152637387184,0.9034818410873413,1.130161166191101,1.1921741962432861,1.401366949081421
14091.154637447244,0.903805673122406,1.1308088302612305,1.1921741962432861,1.4016908407211304
14091.156637507303,0.9034818410873413,1.1306469440460205,1.192336082458496,1.4016908407211304
14091.158637567365,0.9029961228370667,1.1308088302612305,1.1924980878829956,1.400881290435791
14091.160637627425,0.903967559337616,1.130323052406311,1.1920123100280762,1.401043176651001
14091.162637687485,0.903967559337616,1.130323052406311,1.1916884183883667,1.4015288352966309
14091.164637747546,0.903805673122406,1.1304850578308105,1.192336082458496,1.4016908407211304
14091.166637807606,0.9036437273025513,1.1304850578308105,1.1918504238128662,1.401366949081421
14091.168637867668,0.9042913913726807,1.1316183805465698,1.1921741962432861,1.4021764993667603
14091.170637927728,0.9033198952674866,1.1314564943313599,1.1920123100280762,1.401205062866211
14091.172637987787,0.9028341770172119,1.1309707164764404,1.192336082458496,1.4016908407211304
14091.174638047849,0.9031580090522766,1.13129460811615,1.192336082458496,1.4007192850112915
14091.176638107909,0.9034818410873413,1.13113272190094,1.1924980878829956,1.4003955125808716
14091.178638167969,0.9020246267318726,1.1314564943313599,1.192336082458496,1.4007192850112915
14091.18063822803,0.902672290802002,1.1316183805465698,1.1913646459579468,1.4016908407211304
14091.18263828809,0.9042913913726807,1.13113272190094,1.1907169818878174,1.401366949081421
14091.18463834815,0.9033198952674866,1.1309707164764404,1.1912027597427368,1.4023385047912598
14091.186638408211,0.9029961228370667,1.1309707164764404,1.1918504238128662,1.4028241634368896
14091.188638468271,0.9044533371925354,1.1309707164764404,1.1913646459579468,1.4021764993667603
14091.190638528333,0.9034818410873413,1.1317803859710693,1.192336082458496,1.400881290435791
14091.192638588393,0.9021865129470825,1.1319422721862793,1.1928218603134155,1.400881290435791
14091.194638648452,0.9023484587669373,1.1317803859710693,1.1924980878829956,1.401043176651001
14091.196638708514,0.9028341770172119,1.1316183805465698,1.1915265321731567,1.4016908407211304
14091.198638768574,0.9017007946968079,1.1314564943313599,1.1913646459579468,1.4015288352966309
14091.200638828634,0.902672290802002,1.1321041584014893,1.1913646459579468,1.401366949081421
14091.202638888695,0.9034818410873413,1.1327518224716187,1.1910407543182373,1.401366949081421
14091.204638948755,0.9028341770172119,1.1321041584014893,1.1912027597427368,1.4016908407211304
14091.206639008817,0.9025103449821472,1.1321041584014893,1.1915265321731567,1.4021764993667603
14091.208639068876,0.9029961228370667,1.1322660446166992,1.1915265321731567,1.4029861688613892
14091.210639128936,0.9010531306266785,1.1319422721862793,1.192336082458496,1.4026622772216797
14091.212639188998,0.9013769626617432,1.1324279308319092,1.1920123100280762,1.4025003910064697
14091.214639249058,0.9018626809120178,1.1316183805465698,1.1921741962432861,1.4021764993667603
14091.216639309117,0.9018626809120178,1.1321041584014893,1.1924980878829956,1.4025003910064697
14091.218639369179,0.9013769626617432,1.1324279308319092,1.1920123100280762,1.4018527269363403
14091.220639429239,0.9025103449821472,1.1321041584014893,1.1915265321731567,1.4023385047912598
14091.2226394893,0.9029961228370667,1.1324279308319092,1.1920123100280762,1.4026622772216797
14091.22463954936,0.9025103449821472,1.1327518224716187,1.1921741962432861,1.4020146131515503
14091.22663960942,0.9020246267318726,1.1327518224716187,1.1921741962432861,1.4026622772216797
14091.228639669482,0.903805673122406,1.1324279308319092,1.1924980878829956,1.4037957191467285
14091.230639729542,0.9028341770172119,1.1322660446166992,1.1926599740982056,1.403309941291809
14091.232639789601,0.9020246267318726,1.1321041584014893,1.1928218603134155,1.4029861688613892
14091.234639849663,0.9021865129470825,1.1329137086868286,1.1924980878829956,1.4031480550765991
14091.236639909723,0.9020246267318726,1.133399486541748,1.192336082458496,1.4028241634368896
14091.238639969783,0.9008912444114685,1.133399486541748,1.1924980878829956,1.4020146131515503
14091.240640029844,0.9031580090522766,1.133723258972168,1.1931456327438354,1.4025003910064697
14091.242640089904,0.902672290802002,1.1342090368270874,1.1929837465286255,1.4023385047912598
14091.244640149966,0.9031580090522766,1.133399486541748,1.1926599740982056,1.4025003910064697
14091.246640210025,0.9020246267318726,1.133399486541748,1.1931456327438354,1.403309941291809
14091.248640270085,0.9025103449821472,1.1340471506118774,1.193469524383545,1.4037957191467285
14091.250640330147,0.9007292985916138,1.133399486541748,1.1929837465286255,1.403471827507019
14091.252640390207,0.9008912444114685,1.133723258972168,1.192336082458496,1.403309941291809
14091.254640450266,0.9020246267318726,1.1345328092575073,1.1916884183883667,1.403309941291809
14091.256640510328,0.9015388488769531,1.1343709230422974,1.1921741962432861,1.4029861688613892
14091.258640570388,0.9002435803413391,1.1343709230422974,1.1916884183883667,1.4028241634368896
14091.26064063045,0.9015388488769531,1.1351804733276367,1.1915265321731567,1.403471827507019
14091.26264069051,0.9025103449821472,1.1348567008972168,1.192336082458496,1.4029861688613892
14091.264640750569,0.9025103449821472,1.1346948146820068,1.1916884183883667,1.4029861688613892
14091.26664081063,0.9017007946968079,1.1343709230422974,1.1908788681030273,1.403309941291809
14091.26864087069,0.9029961228370667,1.1342090368270874,1.1912027597427368,1.403471827507019
14091.27064093075,0.9018626809120178,1.1350185871124268,1.1912027597427368,1.4028241634368896
14091.272640990812,0.9012150168418884,1.1343709230422974,1.1916884183883667,1.4025003910064697
14091.274641050872,0.9012150168418884,1.1348567008972168,1.1926599740982056,1.4023385047912598
14091.276641110933,0.9018626809120178,1.1350185871124268,1.1924980878829956,1.4028241634368896
14091.278641170993,0.8995959162712097,1.1348567008972168,1.1918504238128662,1.4020146131515503
14091.280641231053,0.9007292985916138,1.1350185871124268,1.1918504238128662,1.4028241634368896
14091.282641291114,0.9010531306266785,1.1355043649673462,1.1918504238128662,1.403309941291809
14091.284641351174,0.9015388488769531,1.1348567008972168,1.1913646459579468,1.4028241634368896
14091.286641411234,0.9010531306266785,1.1350185871124268,1.1915265321731567,1.4026622772216797
14091.288641471296,0.9013769626617432,1.1353424787521362,1.1920123100280762,1.4029861688613892
14091.290641531356,0.9004054665565491,1.1356662511825562,1.1920123100280762,1.4029861688613892
14091.292641591415,0.9005674123764038,1.1348567008972168,1.1915265321731567,1.4023385047912598
14091.294641651477,0.9002435803413391,1.1340471506118774,1.1910407543182373,1.4031480550765991
14091.296641711537,0.899433970451355,1.1338852643966675,1.190393090248108,1.4021764993667603
14091.298641771598,0.8984625339508057,1.1338852643966675,1.1905550956726074,1.4015288352966309
14091.300641831658,0.8999197483062744,1.1350185871124268,1.1908788681030273,1.4023385047912598
14091.302641891718,0.9007292985916138,1.1342090368270874,1.190231204032898,1.4025003910064697
14091.30464195178,0.9004054665565491,1.1343709230422974,1.189907431602478,1.4025003910064697
14091.30664201184,0.9002435803413391,1.1348567008972168,1.189745545387268,1.4028241634368896
14091.3086420719,0.9005674123764038,1.1345328092575073,1.190069317817688,1.4023385047912598
14091.31064213196,0.8997578024864197,1.1346948146820068,1.1912027597427368,1.401205062866211
14091.31264219202,0.8997578024864197,1.1346948146820068,1.1908788681030273,1.401205062866211
14091.31464225208,0.8987863659858704,1.1348567008972168,1.190069317817688,1.4023385047912598
14091.316642312142,0.8986244201660156,1.1338852643966675,1.189745545387268,1.4025003910064697
14091.318642372202,0.8984625339508057,1.1338852643966675,1.1908788681030273,1.4020146131515503
14091.320642432263,0.899433970451355,1.1342090368270874,1.1910407543182373,1.4021764993667603
14091.322642492323,0.8997578024864197,1.1342090368270874,1.1908788681030273,1.4021764993667603
14091.324642552383,0.8995959162712097,1.133723258972168,1.190393090248108,1.401366949081421
14091.326642612445,0.899272084236145,1.1342090368270874,1.1907169818878174,1.4020146131515503
14091.328642672504,0.9007292985916138,1.1345328092575073,1.1895835399627686,1.4029861688613892
14091.330642732564,0.8997578024864197,1.1340471506118774,1.1890978813171387,1.4020146131515503
14091.332642792626,0.8999197483062744,1.1342090368270874,1.1895835399627686,1.401366949081421
14091.334642852686,0.8999197483062744,1.133561372756958,1.1895835399627686,1.401205062866211
14091.336642912747,0.899272084236145,1.1338852643966675,1.1892597675323486,1.401366949081421
14091.338642972807,0.8984625339508057,1.133723258972168,1.1889358758926392,1.401043176651001
14091.340643032867,0.8997578024864197,1.133237600326538,1.1887739896774292,1.4020146131515503
14091.342643092928,0.8997578024864197,1.1338852643966675,1.190393090248108,1.4028241634368896
14091.344643152988,0.899433970451355,1.1345328092575073,1.190393090248108,1.4025003910064697
14091.346643213048,0.8989482522010803,1.133561372756958,1.189907431602478,1.4028241634368896
14091.34864327311,0.9005674123764038,1.133561372756958,1.190393090248108,1.4031480550765991
14091.35064333317,0.8997578024864197,1.1330755949020386,1.1907169818878174,1.4016908407211304
14091.352643393231,0.8989482522010803,1.133723258972168,1.190069317817688,1.4015288352966309
14091.354643453291,0.8997578024864197,1.133561372756958,1.190231204032898,1.4016908407211304
14091.35664351335,0.9002435803413391,1.1330755949020386,1.1910407543182373,1.4016908407211304
14091.358643573412,0.8989482522010803,1.133723258972168,1.1912027597427368,1.401205062866211
14091.360643633472,0.9004054665565491,1.1342090368270874,1.1908788681030273,1.4023385047912598
14091.362643693532,0.9002435803413391,1.1342090368270874,1.1905550956726074,1.4025003910064697
14091.364643753594,0.9000816345214844,1.1342090368270874,1.1907169818878174,1.4026622772216797
14091.366643813653,0.9007292985916138,1.1340471506118774,1.1908788681030273,1.4028241634368896
14091.368643873713,0.9017007946968079,1.1338852643966675,1.1907169818878174,1.4031480550765991
14091.370643933775,0.9002435803413391,1.1343709230422974,1.1905550956726074,1.4025003910064697
14091.372643993835,0.8997578024864197,1.1345328092575073,1.1907169818878174,1.4018527269363403
14091.374644053896,0.9002435803413391,1.1350185871124268,1.1916884183883667,1.4016908407211304
14091.376644113956,0.9004054665565491,1.1356662511825562,1.192336082458496,1.4020146131515503
14091.378644174016,0.8995959162712097,1.1353424787521362,1.1926599740982056,1.4021764993667603
14091.380644234077,0.9002435803413391,1.1351804733276367,1.1918504238128662,1.4026622772216797
14091.382644294137,0.9012150168418884,1.1353424787521362,1.192336082458496,1.4029861688613892
14091.384644354197,0.9012150168418884,1.1346948146820068,1.192336082458496,1.403471827507019
14091.386644414259,0.9015388488769531,1.133723258972168,1.192336082458496,1.4028241634368896
14091.388644474318,0.9018626809120178,1.133723258972168,1.1913646459579468,1.403471827507019
14091.390644534378,0.9005674123764038,1.1342090368270874,1.1918504238128662,1.4037957191467285
14091.39264459444,0.9002435803413391,1.1348567008972168,1.1915265321731567,1.4037957191467285
14091.3946446545,0.9000816345214844,1.1345328092575073,1.1918504238128662,1.403471827507019
14091.396644714561,0.9000816345214844,1.1346948146820068,1.1915265321731567,1.4028241634368896
14091.398644774621,0.9000816345214844,1.1351804733276367,1.1912027597427368,1.4026622772216797
14091.40064483468,0.9017007946968079,1.1350185871124268,1.1910407543182373,1.403309941291809
14091.402644894742,0.9018626809120178,1.1350185871124268,1.1912027597427368,1.4021764993667603
14091.404644954802,0.9012150168418884,1.1338852643966675,1.1910407543182373,1.4029861688613892
14091.406645014864,0.9013769626617432,1.1343709230422974,1.1920123100280762,1.403309941291809
14091.408645074924,0.9015388488769531,1.1348567008972168,1.1920123100280762,1.4029861688613892
14091.410645134983,0.9002435803413391,1.1343709230422974,1.1918504238128662,1.4028241634368896
14091.412645195045,0.9000816345214844,1.1342090368270874,1.1912027597427368,1.4026622772216797
14091.414645255105,0.9000816345214844,1.133723258972168,1.1915265321731567,1.4025003910064697
14091.416645315165,0.9000816345214844,1.1327518224716187,1.190393090248108,1.4026622772216797
14091.418645375226,0.8987863659858704,1.1330755949020386,1.1908788681030273,1.4015288352966309
14091.420645435286,0.8997578024864197,1.133237600326538,1.1910407543182373,1.4026622772216797
14091.422645495346,0.9002435803413391,1.133561372756958,1.1910407543182373,1.4028241634368896
14091.424645555408,0.9012150168418884,1.1330755949020386,1.1895835399627686,1.4021764993667603
14091.426645615467,0.9010531306266785,1.133561372756958,1.190231204032898,1.4020146131515503
14091.428645675529,0.9013769626617432,1.1345328092575073,1.1905550956726074,1.4023385047912598
14091.430645735589,0.9002435803413391,1.1340471506118774,1.1910407543182373,1.4026622772216797
14091.432645795649,0.9004054665565491,1.1340471506118774,1.190069317817688,1.4020146131515503
14091.43464585571,0.9008912444114685,1.133399486541748,1.1907169818878174,1.4025003910064697
14091.43664591577,0.9005674123764038,1.133399486541748,1.1910407543182373,1.4028241634368896
14091.43864597583,0.9000816345214844,1.1325899362564087,1.1905550956726074,1.4028241634368896
14091.440646035891,0.9007292985916138,1.1330755949020386,1.1895835399627686,1.4028241634368896
14091.442646095951,0.9008912444114685,1.133237600326538,1.1895835399627686,1.4021764993667603
14091.444646156011,0.9007292985916138,1.133237600326538,1.190231204032898,1.4018527269363403
14091.446646216073,0.9008912444114685,1.1327518224716187,1.1908788681030273,1.4023385047912598
14091.448646276132,0.9017007946968079,1.1327518224716187,1.190069317817688,1.403309941291809
14091.450646336194,0.9000816345214844,1.1327518224716187,1.1890978813171387,1.4025003910064697
14091.452646396254,0.8999197483062744,1.1330755949020386,1.1887739896774292,1.401366949081421
14091.454646456314,0.9002435803413391,1.1321041584014893,1.1894216537475586,1.401043176651001
14091.456646516375,0.9005674123764038,1.1319422721862793,1.190069317817688,1.4020146131515503
14091.458646576435,0.9002435803413391,1.1321041584014893,1.1910407543182373,1.4023385047912598
14091.460646636495,0.9005674123764038,1.1329137086868286,1.1905550956726074,1.4028241634368896
14091.462646696556,0.9005674123764038,1.1324279308319092,1.189745545387268,1.403471827507019
14091.464646756616,0.9007292985916138,1.1327518224716187,1.190231204032898,1.4029861688613892
14091.466646816678,0.9007292985916138,1.1325899362564087,1.1908788681030273,1.4029861688613892
14091.468646876738,0.9013769626617432,1.1327518224716187,1.1908788681030273,1.4029861688613892
14091.470646936797,0.9015388488769531,1.1329137086868286,1.1905550956726074,1.4028241634368896
14091.47264699686,0.9010531306266785,1.1322660446166992,1.189907431602478,1.4031480550765991
14091.474647056919,0.9007292985916138,1.1321041584014893,1.1894216537475586,1.4026622772216797
14091.476647116979,0.9015388488769531,1.1322660446166992,1.189745545387268,1.4015288352966309
14091.47864717704,0.8997578024864197,1.1319422721862793,1.1908788681030273,1.4015288352966309
14091.4806472371,0.9007292985916138,1.1319422721862793,1.1910407543182373,1.403471827507019
14091.482647297162,0.9010531306266785,1.1327518224716187,1.190393090248108,1.403471827507019
14091.484647357222,0.9010531306266785,1.1322660446166992,1.190231204032898,1.4028241634368896
14091.486647417281,0.9010531306266785,1.1321041584014893,1.189907431602478,1.4023385047912598
14091.488647477343,0.902672290802002,1.1317803859710693,1.190393090248108,1.4031480550765991
14091.490647537403,0.9008912444114685,1.1319422721862793,1.1915265321731567,1.4021764993667603
14091.492647597463,0.9004054665565491,1.1317803859710693,1.1916884183883667,1.4028241634368896
14091.494647657524,0.9007292985916138,1.1321041584014893,1.1905550956726074,1.4025003910064697
14091.496647717584,0.9002435803413391,1.1330755949020386,1.190069317817688,1.4023385047912598
14091.498647777644,0.899433970451355,1.133237600326538,1.189907431602478,1.4018527269363403
14091.500647837705,0.9015388488769531,1.1317803859710693,1.190393090248108,1.403309941291809
14091.502647897765,0.9017007946968079,1.1308088302612305,1.1908788681030273,1.4029861688613892
14091.504647957827,0.9017007946968079,1.1316183805465698,1.1913646459579468,1.4028241634368896
14091.506648017887,0.9018626809120178,1.1308088302612305,1.1918504238128662,1.4028241634368896
14091.508648077946,0.902672290802002,1.1316183805465698,1.1918504238128662,1.403309941291809
14091.510648138008,0.902672290802002,1.1322660446166992,1.1913646459579468,1.4021764993667603
14091.512648198068,0.9025103449821472,1.1324279308319092,1.1916884183883667,1.4018527269363403
14091.514648258128,0.902672290802002,1.13113272190094,1.1918504238128662,1.4026622772216797
14091.51664831819,0.9020246267318726,1.1316183805465698,1.1916884183883667,1.4025003910064697
14091.518648378249,0.9004054665565491,1.1316183805465698,1.1921741962432861,1.4026622772216797
14091.520648438309,0.9015388488769531,1.1319422721862793,1.1913646459579468,1.4028241634368896
14091.52264849837,0.9023484587669373,1.1317803859710693,1.1910407543182373,1.403471827507019
14091.52464855843,0.9023484587669373,1.1321041584014893,1.1912027597427368,1.4037957191467285
14091.526648618492,0.9017007946968079,1.1319422721862793,1.1905550956726074,1.403309941291809
14091.528648678552,0.902672290802002,1.1316183805465698,1.189745545387268,1.403471827507019
14091.530648738611,0.9021865129470825,1.1319422721862793,1.190231204032898,1.4031480550765991
14091.532648798673,0.9007292985916138,1.1317803859710693,1.1907169818878174,1.403309941291809
14091.534648858733,0.9012150168418884,1.1317803859710693,1.192336082458496,1.4029861688613892
14091.536648918793,0.9013769626617432,1.1317803859710693,1.1916884183883667,1.4023385047912598
14091.538648978854,0.9004054665565491,1.1317803859710693,1.1916884183883667,1.4020146131515503
14091.540649038914,0.9021865129470825,1.1319422721862793,1.1912027597427368,1.4023385047912598
14091.542649098976,0.9029961228370667,1.1316183805465698,1.1908788681030273,1.4026622772216797
14091.544649159036,0.9029961228370667,1.13129460811615,1.1907169818878174,1.4028241634368896
14091.546649219095,0.9033198952674866,1.1314564943313599,1.190231204032898,1.4028241634368896
14091.548649279157,0.9034818410873413,1.1319422721862793,1.1912027597427368,1.4028241634368896
14091.550649339217,0.9017007946968079,1.13113272190094,1.1918504238128662,1.4025003910064697
14091.552649399277,0.9015388488769531,1.1314564943313599,1.1913646459579468,1.4026622772216797
14091.554649459338,0.9021865129470825,1.1319422721862793,1.1910407543182373,1.4025003910064697
14091.556649519398,0.9021865129470825,1.1321041584014893,1.1908788681030273,1.4021764993667603
14091.55864957946,0.9012150168418884,1.1317803859710693,1.190393090248108,1.4018527269363403
14091.56064963952,0.9021865129470825,1.1322660446166992,1.190393090248108,1.4018527269363403
14091.56264969958,0.9025103449821472,1.1324279308319092,1.1918504238128662,1.4028241634368896
14091.56464975964,0.9021865129470825,1.1325899362564087,1.1926599740982056,1.403471827507019
14091.5666498197,0.9023484587669373,1.1327518224716187,1.1918504238128662,1.4029861688613892
14091.56864987976,0.9029961228370667,1.133237600326538,1.1913646459579468,1.4029861688613892
14091.570649939822,0.9013769626617432,1.1322660446166992,1.192336082458496,1.4023385047912598
14091.572649999882,0.9012150168418884,1.1322660446166992,1.1924980878829956,1.4029861688613892
14091.574650059942,0.9018626809120178,1.1325899362564087,1.1924980878829956,1.4026622772216797
14091.576650120003,0.9017007946968079,1.1322660446166992,1.1920123100280762,1.403309941291809
14091.578650180063,0.9015388488769531,1.1324279308319092,1.1920123100280762,1.4028241634368896
14091.580650240125,0.9028341770172119,1.1329137086868286,1.1912027597427368,1.4025003910064697
14091.582650300184,0.9034818410873413,1.1330755949020386,1.1916884183883667,1.403471827507019
14091.584650360244,0.902672290802002,1.1325899362564087,1.1924980878829956,1.4028241634368896
14091.586650420306,0.9029961228370667,1.1321041584014893,1.1924980878829956,1.403309941291809
14091.588650480366,0.9041295051574707,1.1329137086868286,1.192336082458496,1.4039576053619385
14091.590650540425,0.9023484587669373,1.1325899362564087,1.1920123100280762,1.403309941291809
14091.592650600487,0.9013769626617432,1.1330755949020386,1.1918504238128662,1.4028241634368896
14091.594650660547,0.9018626809120178,1.1330755949020386,1.1915265321731567,1.4025003910064697
14091.596650720609,0.9025103449821472,1.1330755949020386,1.1913646459579468,1.4026622772216797
14091.598650780668,0.9005674123764038,1.133237600326538,1.1908788681030273,1.4031480550765991
14091.600650840728,0.9020246267318726,1.1324279308319092,1.1908788681030273,1.4036338329315186
14091.60265090079,0.9029961228370667,1.1322660446166992,1.1910407543182373,1.4039576053619385
14091.60465096085,0.9023484587669373,1.1327518224716187,1.1912027597427368,1.4036338329315186
14091.60665102091,0.9021865129470825,1.1329137086868286,1.1910407543182373,1.4028241634368896
14091.608651080971,0.9033198952674866,1.133237600326538,1.1918504238128662,1.403309941291809
14091.61065114103,0.9025103449821472,1.1330755949020386,1.1921741962432861,1.4025003910064697
14091.612651201092,0.9015388488769531,1.133237600326538,1.1916884183883667,1.4029861688613892
14091.614651261152,0.9012150168418884,1.1322660446166992,1.1921741962432861,1.4031480550765991
14091.616651321212,0.9013769626617432,1.1322660446166992,1.1926599740982056,1.4020146131515503
14091.618651381274,0.9005674123764038,1.1324279308319092,1.1918504238128662,1.4028241634368896
14091.620651441333,0.9017007946968079,1.1327518224716187,1.1913646459579468,1.4041194915771484
14091.622651501393,0.9020246267318726,1.1319422721862793,1.1905550956726074,1.4041194915771484
14091.624651561455,0.9020246267318726,1.1321041584014893,1.1905550956726074,1.4039576053619385
14091.626651621515,0.9013769626617432,1.1319422721862793,1.190393090248108,1.403471827507019
14091.628651681574,0.9031580090522766,1.1324279308319092,1.1912027597427368,1.4039576053619385
14091.630651741636,0.9023484587669373,1.1330755949020386,1.1910407543182373,1.4036338329315186
14091.632651801696,0.9017007946968079,1.133237600326538,1.189907431602478,1.403471827507019
14091.634651861757,0.9018626809120178,1.1330755949020386,1.1908788681030273,1.4031480550765991
14091.636651921817,0.9008912444114685,1.1338852643966675,1.1908788681030273,1.4031480550765991
14091.638651981877,0.9000816345214844,1.1340471506118774,1.1905550956726074,1.403471827507019
14091.640652041939,0.9018626809120178,1.1329137086868286,1.1907169818878174,1.403309941291809
14091.642652101998,0.9015388488769531,1.133399486541748,1.190393090248108,1.4029861688613892
14091.644652162058,0.9021865129470825,1.1327518224716187,1.1887739896774292,1.4021764993667603
14091.64665222212,0.9017007946968079,1.1325899362564087,1.1890978813171387,1.4020146131515503
14091.64865228218,0.9028341770172119,1.1324279308319092,1.190393090248108,1.4028241634368896
14091.65065234224,0.9015388488769531,1.1321041584014893,1.1908788681030273,1.4028241634368896
14091.652652402301,0.9008912444114685,1.1314564943313599,1.1908788681030273,1.4037957191467285
14091.65465246236,0.9005674123764038,1.1319422721862793,1.1905550956726074,1.4039576053619385
14091.656652522423,0.9000816345214844,1.1316183805465698,1.190231204032898,1.403309941291809
14091.658652582482,0.8986244201660156,1.1319422721862793,1.1905550956726074,1.4021764993667603
14091.660652642542,0.8995959162712097,1.1329137086868286,1.1910407543182373,1.4028241634368896
14091.662652702604,0.9010531306266785,1.133723258972168,1.1907169818878174,1.4031480550765991
14091.664652762664,0.9010531306266785,1.133723258972168,1.190231204032898,1.4029861688613892
14091.666652822723,0.9008912444114685,1.133723258972168,1.1905550956726074,1.4039576053619385
14091.668652882785,0.9021865129470825,1.133399486541748,1.1907169818878174,1.4037957191467285
14091.670652942845,0.9015388488769531,1.133561372756958,1.1908788681030273,1.4028241634368896
14091.672653002906,0.9012150168418884,1.133399486541748,1.1920123100280762,1.4025003910064697
14091.674653062966,0.9008912444114685,1.133237600326538,1.1913646459579468,1.4029861688613892
14091.676653123026,0.9008912444114685,1.1329137086868286,1.1910407543182373,1.4031480550765991
14091.678653183088,0.8991101384162903,1.1329137086868286,1.190069317817688,1.4036338329315186
14091.680653243147,0.9008912444114685,1.133237600326538,1.1894216537475586,1.4039576053619385
14091.682653303207,0.9012150168418884,1.1329137086868286,1.1905550956726074,1.4037957191467285
14091.684653363269,0.9013769626617432,1.133561372756958,1.1910407543182373,1.4026622772216797
14091.686653423329,0.9017007946968079,1.133723258972168,1.190393090248108,1.4031480550765991
14091.68865348339,0.9021865129470825,1.133399486541748,1.1908788681030273,1.4037957191467285
14091.69065354345,0.9007292985916138,1.1330755949020386,1.1905550956726074,1.4036338329315186
14091.69265360351,0.9007292985916138,1.133237600326538,1.1895835399627686,1.4037957191467285
14091.694653663571,0.9015388488769531,1.1340471506118774,1.190231204032898,1.4036338329315186
14091.696653723631,0.9004054665565491,1.1340471506118774,1.1905550956726074,1.403309941291809
14091.698653783691,0.8999197483062744,1.1340471506118774,1.1910407543182373,1.4028241634368896
14091.700653843753,0.9013769626617432,1.1342090368270874,1.1913646459579468,1.4046052694320679
14091.702653903812,0.9012150168418884,1.1343709230422974,1.1920123100280762,1.4049290418624878
14091.704653963872,0.9008912444114685,1.1340471506118774,1.1918504238128662,1.4049290418624878
14091.706654023934,0.9007292985916138,1.133561372756958,1.1907169818878174,1.4047671556472778
14091.708654083994,0.9015388488769531,1.133237600326538,1.1910407543182373,1.4042813777923584
14091.710654144055,0.9005674123764038,1.133723258972168,1.1913646459579468,1.4025003910064697
14091.712654204115,0.9007292985916138,1.133723258972168,1.1910407543182373,1.4031480550765991
14091.714654264175,0.9013769626617432,1.1348567008972168,1.1910407543182373,1.4039576053619385
14091.716654324237,0.9010531306266785,1.1350185871124268,1.1915265321731567,1.4041194915771484
14091.718654384296,0.9002435803413391,1.1350185871124268,1.1915265321731567,1.4049290418624878
14091.720654444356,0.9013769626617432,1.1351804733276367,1.1908788681030273,1.4042813777923584
14091.722654504418,0.9015388488769531,1.1350185871124268,1.1912027597427368,1.4037957191467285
14091.724654564478,0.9017007946968079,1.1350185871124268,1.1915265321731567,1.4029861688613892
14091.726654624537,0.9018626809120178,1.1348567008972168,1.1912027597427368,1.4037957191467285
14091.728654684599,0.902672290802002,1.1345328092575073,1.1915265321731567,1.4050910472869873
14091.730654744659,0.9005674123764038,1.1338852643966675,1.1916884183883667,1.404443383216858
14091.73265480472,0.9002435803413391,1.1338852643966675,1.1921741962432861,1.4036338329315186
14091.73465486478,0.8995959162712097,1.1342090368270874,1.1918504238128662,1.403309941291809
14091.73665492484,0.9002435803413391,1.1355043649673462,1.1920123100280762,1.4037957191467285
14091.738654984902,0.8991101384162903,1.1356662511825562,1.1915265321731567,1.403309941291809
14091.740655044961,0.9010531306266785,1.1353424787521362,1.1908788681030273,1.403309941291809
14091.742655105023,0.9015388488769531,1.1346948146820068,1.190069317817688,1.4026622772216797
14091.744655165083,0.9008912444114685,1.1346948146820068,1.1905550956726074,1.4025003910064697
14091.746655225143,0.9008912444114685,1.133561372756958,1.1910407543182373,1.4029861688613892
14091.748655285204,0.9015388488769531,1.1340471506118774,1.1910407543182373,1.4029861688613892
14091.750655345264,0.9002435803413391,1.1342090368270874,1.1907169818878174,1.403471827507019
14091.752655405324,0.9008912444114685,1.1348567008972168,1.1907169818878174,1.4039576053619385
14091.754655465385,0.9010531306266785,1.1345328092575073,1.1907169818878174,1.4047671556472778
14091.756655525445,0.9012150168418884,1.1342090368270874,1.190393090248108,1.404443383216858
14091.758655585505,0.9005674123764038,1.1340471506118774,1.1895835399627686,1.403471827507019
14091.760655645567,0.9017007946968079,1.1340471506118774,1.189907431602478,1.403309941291809
14091.762655705626,0.9018626809120178,1.133561372756958,1.1907169818878174,1.403309941291809
14091.764655765688,0.9013769626617432,1.133723258972168,1.190069317817688,1.403471827507019
14091.766655825748,0.9010531306266785,1.1343709230422974,1.190393090248108,1.4039576053619385
14091.768655885808,0.9017007946968079,1.1346948146820068,1.190069317817688,1.4049290418624878
14091.77065594587,0.9005674123764038,1.1343709230422974,1.189907431602478,1.4042813777923584
14091.77265600593,0.9002435803413391,1.133237600326538,1.1895835399627686,1.4037957191467285
14091.774656065989,0.9002435803413391,1.133399486541748,1.1908788681030273,1.404443383216858
14091.77665612605,0.899433970451355,1.1342090368270874,1.189745545387268,1.4046052694320679
14091.77865618611,0.8991101384162903,1.133723258972168,1.189907431602478,1.4037957191467285
14091.78065624617,0.9005674123764038,1.1340471506118774,1.1895835399627686,1.4039576053619385
14091.782656306232,0.9010531306266785,1.1343709230422974,1.1889358758926392,1.4037957191467285
14091.784656366292,0.9012150168418884,1.1338852643966675,1.189745545387268,1.4042813777923584
14091.786656426353,0.9010531306266785,1.1346948146820068,1.190069317817688,1.4054148197174072
14091.788656486413,0.9010531306266785,1.133723258972168,1.189907431602478,1.4047671556472778
14091.790656546473,0.9000816345214844,1.1338852643966675,1.1895835399627686,1.4041194915771484
14091.792656606534,0.9004054665565491,1.133561372756958,1.1894216537475586,1.4046052694320679
14091.794656666594,0.9007292985916138,1.1340471506118774,1.1890978813171387,1.4037957191467285
14091.796656726654,0.9002435803413391,1.1342090368270874,1.1889358758926392,1.4031480550765991
14091.798656786716,0.899433970451355,1.133561372756958,1.190069317817688,1.4031480550765991
14091.800656846775,0.9010531306266785,1.133561372756958,1.190393090248108,1.403309941291809
14091.802656906837,0.9010531306266785,1.1340471506118774,1.1908788681030273,1.4036338329315186
14091.804656966897,0.9010531306266785,1.133561372756958,1.1905550956726074,1.4037957191467285
14091.806657026957,0.9004054665565491,1.1342090368270874,1.189745545387268,1.403471827507019
14091.808657087018,0.9005674123764038,1.1338852643966675,1.1887739896774292,1.4041194915771484
14091.810657147078,0.8991101384162903,1.133723258972168,1.1895835399627686,1.403309941291809
14091.812657207138,0.8991101384162903,1.133561372756958,1.1892597675323486,1.403471827507019
14091.8146572672,0.9000816345214844,1.133723258972168,1.1894216537475586,1.4036338329315186
14091.81665732726,0.9000816345214844,1.1350185871124268,1.190069317817688,1.403309941291809
14091.81865738732,0.8987863659858704,1.1350185871124268,1.190231204032898,1.4029861688613892
14091.82065744738,0.9005674123764038,1.1343709230422974,1.189907431602478,1.404443383216858
14091.82265750744,0.9012150168418884,1.1353424787521362,1.1905550956726074,1.4039576053619385
14091.824657567502,0.9010531306266785,1.1351804733276367,1.1912027597427368,1.4037957191467285
14091.826657627562,0.9008912444114685,1.1348567008972168,1.1915265321731567,1.4039576053619385
14091.828657687622,0.9012150168418884,1.1350185871124268,1.1905550956726074,1.4050910472869873
14091.830657747683,0.9005674123764038,1.1345328092575073,1.190231204032898,1.4037957191467285
14091.832657807743,0.9000816345214844,1.1338852643966675,1.190069317817688,1.4039576053619385
14091.834657867803,0.8997578024864197,1.1330755949020386,1.189745545387268,1.4039576053619385
14091.836657927865,0.8997578024864197,1.1343709230422974,1.1892597675323486,1.4037957191467285
14091.838657987924,0.8989482522010803,1.1346948146820068,1.1895835399627686,1.4023385047912598
14091.840658047986,0.8997578024864197,1.1345328092575073,1.1894216537475586,1.403309941291809
14091.842658108046,0.899433970451355,1.1338852643966675,1.1890978813171387,1.4036338329315186
14091.844658168106,0.9005674123764038,1.133399486541748,1.1889358758926392,1.4041194915771484
14091.846658228167,0.9007292985916138,1.1340471506118774,1.1890978813171387,1.4047671556472778
14091.848658288227,0.9017007946968079,1.1346948146820068,1.1894216537475586,1.4047671556472778
14091.850658348287,0.8999197483062744,1.1346948146820068,1.189745545387268,1.4046052694320679
14091.852658408348,0.899272084236145,1.1340471506118774,1.1892597675323486,1.4039576053619385
14091.854658468408,0.899272084236145,1.133399486541748,1.1894216537475586,1.4028241634368896
14091.856658528468,0.8991101384162903,1.1346948146820068,1.189745545387268,1.403471827507019
14091.85865858853,0.898138701915741,1.1345328092575073,1.189907431602478,1.4031480550765991
14091.86065864859,0.8983005881309509,1.1342090368270874,1.1892597675323486,1.4037957191467285
14091.862658708651,0.8995959162712097,1.133723258972168,1.190393090248108,1.403471827507019
14091.86465876871,0.8997578024864197,1.133399486541748,1.1892597675323486,1.403309941291809
14091.86665882877,0.899433970451355,1.1324279308319092,1.189745545387268,1.4041194915771484
14091.868658888832,0.9007292985916138,1.1327518224716187,1.1894216537475586,1.4046052694320679
14091.870658948892,0.8991101384162903,1.133561372756958,1.1890978813171387,1.4029861688613892
14091.872659008954,0.8983005881309509,1.1345328092575073,1.1879644393920898,1.4029861688613892
14091.874659069013,0.8983005881309509,1.1345328092575073,1.1882882118225098,1.4031480550765991
14091.876659129073,0.8986244201660156,1.1348567008972168,1.1882882118225098,1.403471827507019
14091.878659189135,0.8974910378456116,1.1345328092575073,1.1881263256072998,1.403309941291809
14091.880659249195,0.8986244201660156,1.1343709230422974,1.1881263256072998,1.4029861688613892
14091.882659309254,0.8987863659858704,1.1346948146820068,1.1882882118225098,1.4025003910064697
14091.884659369316,0.8989482522010803,1.1345328092575073,1.18764066696167,1.403309941291809
14091.886659429376,0.8995959162712097,1.1345328092575073,1.1874786615371704,1.4037957191467285
14091.888659489436,0.9000816345214844,1.1338852643966675,1.18764066696167,1.4039576053619385
14091.890659549497,0.8987863659858704,1.1330755949020386,1.1882882118225098,1.4023385047912598
14091.892659609557,0.8984625339508057,1.133723258972168,1.1881263256072998,1.4018527269363403
14091.894659669619,0.8979767560958862,1.1340471506118774,1.18764066696167,1.4020146131515503
14091.896659729679,0.8974910378456116,1.133399486541748,1.1878025531768799,1.401043176651001
14091.898659789738,0.8957099914550781,1.1325899362564087,1.1873167753219604,1.4015288352966309
14091.9006598498,0.8973290920257568,1.1329137086868286,1.186669111251831,1.4025003910064697
14091.90265990986,0.8979767560958862,1.133399486541748,1.1863453388214111,1.4020146131515503
14091.90465996992,0.898138701915741,1.133399486541748,1.186507225036621,1.4018527269363403
14091.906660029981,0.8971672058105469,1.1329137086868286,1.186669111251831,1.4023385047912598
14091.908660090041,0.8971672058105469,1.1325899362564087,1.186507225036621,1.4023385047912598
14091.9106601501,0.8957099914550781,1.1321041584014893,1.186830997467041,1.401205062866211
14091.912660210162,0.8953861594200134,1.1330755949020386,1.186507225036621,1.401205062866211
14091.914660270222,0.8968433737754822,1.133561372756958,1.1860214471817017,1.4023385047912598
14091.916660330284,0.8970052599906921,1.1340471506118774,1.1853737831115723,1.4016908407211304
14091.918660390344,0.894900381565094,1.133723258972168,1.1853737831115723,1.4015288352966309
14091.920660450403,0.8961957097053528,1.133399486541748,1.1850500106811523,1.4025003910064697
14091.922660510465,0.8958718776702881,1.1330755949020386,1.1853737831115723,1.4020146131515503
14091.924660570525,0.8970052599906921,1.133723258972168,1.1861833333969116,1.401043176651001
14091.926660630585,0.8970052599906921,1.1327518224716187,1.186830997467041,1.4015288352966309
14091.928660690646,0.8974910378456116,1.133561372756958,1.186507225036621,1.401366949081421
14091.930660750706,0.8965195417404175,1.1338852643966675,1.186507225036621,1.400881290435791
14091.932660810768,0.8965195417404175,1.133723258972168,1.1861833333969116,1.4016908407211304
14091.934660870827,0.8963576555252075,1.133237600326538,1.186830997467041,1.4018527269363403
14091.936660930887,0.8960338234901428,1.1329137086868286,1.186507225036621,1.401366949081421
14091.938660990949,0.8952242136001587,1.1329137086868286,1.1860214471817017,1.401366949081421
14091.940661051009,0.8971672058105469,1.1330755949020386,1.1858595609664917,1.4020146131515503
14091.942661111068,0.8973290920257568,1.133561372756958,1.1852118968963623,1.4026622772216797
14091.94466117113,0.8965195417404175,1.133723258972168,1.1856976747512817,1.4028241634368896
14091.94666123119,0.8960338234901428,1.133561372756958,1.186669111251831,1.4021764993667603
14091.948661291251,0.8968433737754822,1.1340471506118774,1.186830997467041,1.401366949081421
14091.950661351311,0.8963576555252075,1.1343709230422974,1.1874786615371704,1.4005573987960815
14091.952661411371,0.8963576555252075,1.1342090368270874,1.18764066696167,1.400881290435791
14091.954661471433,0.8958718776702881,1.1343709230422974,1.1882882118225098,1.401043176651001
14091.956661531493,0.8955480456352234,1.1346948146820068,1.18764066696167,1.400881290435791
14091.958661591552,0.8944146633148193,1.1345328092575073,1.1871548891067505,1.4023385047912598
14091.960661651614,0.8963576555252075,1.1345328092575073,1.1878025531768799,1.4020146131515503
14091.962661711674,0.8971672058105469,1.1348567008972168,1.1874786615371704,1.4020146131515503
14091.964661771734,0.8965195417404175,1.1345328092575073,1.1874786615371704,1.4026622772216797
14091.966661831795,0.8961957097053528,1.1348567008972168,1.1873167753219604,1.401205062866211
14091.968661891855,0.898138701915741,1.1345328092575073,1.1869930028915405,1.4018527269363403
14091.970661951917,0.8973290920257568,1.1338852643966675,1.18764066696167,1.401366949081421
14091.972662011976,0.8966814279556274,1.1340471506118774,1.18764066696167,1.4007192850112915
14091.974662072036,0.8965195417404175,1.1345328092575073,1.1874786615371704,1.4028241634368896
14091.976662132098,0.8970052599906921,1.1353424787521362,1.1878025531768799,1.4021764993667603
14091.978662192158,0.8961957097053528,1.1351804733276367,1.18764066696167,1.401043176651001
14091.980662252217,0.8979767560958862,1.1356662511825562,1.1884502172470093,1.4020146131515503
14091.982662312279,0.898138701915741,1.1353424787521362,1.1889358758926392,1.4023385047912598
14091.984662372339,0.8973290920257568,1.1356662511825562,1.1887739896774292,1.4020146131515503
14091.986662432399,0.8973290920257568,1.1364758014678955,1.1886121034622192,1.4031480550765991
14091.98866249246,0.8984625339508057,1.136961579322815,1.1895835399627686,1.4028241634368896
14091.99066255252,0.8968433737754822,1.136961579322815,1.189745545387268,1.4023385047912598
14091.992662612582,0.8971672058105469,1.136961579322815,1.1895835399627686,1.4028241634368896
14091.994662672641,0.8978148698806763,1.1376092433929443,1.190069317817688,1.4029861688613892
14091.996662732701,0.8973290920257568,1.1372853517532349,1.190393090248108,1.4025003910064697
14091.998662792763,0.8960338234901428,1.1372853517532349,1.189745545387268,1.4021764993667603
14092.000662852823,0.8973290920257568,1.1377711296081543,1.1892597675323486,1.4026622772216797
14092.002662912882,0.8979767560958862,1.1376092433929443,1.1894216537475586,1.4031480550765991
14092.004662972944,0.8989482522010803,1.1384187936782837,1.1905550956726074,1.4039576053619385
14092.006663033004,0.899433970451355,1.1382569074630737,1.1916884183883667,1.4037957191467285
14092.008663093065,0.9004054665565491,1.1385806798934937,1.1920123100280762,1.404443383216858
14092.010663153125,0.8984625339508057,1.1382569074630737,1.1912027597427368,1.4039576053619385
14092.012663213185,0.8973290920257568,1.1384187936782837,1.1912027597427368,1.4026622772216797
14092.014663273247,0.8971672058105469,1.1387425661087036,1.1920123100280762,1.4029861688613892
14092.016663333306,0.8974910378456116,1.1385806798934937,1.1916884183883667,1.4031480550765991
14092.018663393366,0.8968433737754822,1.1387425661087036,1.1920123100280762,1.4025003910064697
14092.020663453428,0.8984625339508057,1.1379330158233643,1.1920123100280762,1.4026622772216797
14092.022663513488,0.8979767560958862,1.1384187936782837,1.1926599740982056,1.4036338329315186
14092.02466357355,0.898138701915741,1.1372853517532349,1.1921741962432861,1.4029861688613892
14092.02666363361,0.8976529240608215,1.1374473571777344,1.1920123100280762,1.4036338329315186
14092.028663693669,0.8986244201660156,1.1387425661087036,1.1916884183883667,1.4049290418624878
14092.03066375373,0.8974910378456116,1.139066457748413,1.1913646459579468,1.404443383216858
14092.03266381379,0.8971672058105469,1.1385806798934937,1.1913646459579468,1.4047671556472778
14092.03466387385,0.8970052599906921,1.1384187936782837,1.1912027597427368,1.4037957191467285
14092.036663933912,0.8968433737754822,1.1385806798934937,1.1918504238128662,1.4031480550765991
14092.038663993972,0.8963576555252075,1.1389045715332031,1.1915265321731567,1.403309941291809
14092.040664054031,0.8979767560958862,1.139066457748413,1.1912027597427368,1.4036338329315186
14092.042664114093,0.8986244201660156,1.1387425661087036,1.1916884183883667,1.403309941291809
14092.044664174153,0.8979767560958862,1.1382569074630737,1.192336082458496,1.4029861688613892
14092.046664234214,0.8979767560958862,1.139390230178833,1.192336082458496,1.4028241634368896
14092.048664294274,0.8983005881309509,1.139066457748413,1.1912027597427368,1.4041194915771484
14092.050664354334,0.8971672058105469,1.1382569074630737,1.1908788681030273,1.4036338329315186
14092.052664414396,0.8976529240608215,1.1384187936782837,1.1910407543182373,1.4029861688613892
14092.054664474455,0.8976529240608215,1.1384187936782837,1.1908788681030273,1.4026622772216797
14092.056664534515,0.8971672058105469,1.1380950212478638,1.1915265321731567,1.403471827507019
14092.058664594577,0.8957099914550781,1.1377711296081543,1.1921741962432861,1.4031480550765991
14092.060664654637,0.8970052599906921,1.1382569074630737,1.1912027597427368,1.4037957191467285
14092.062664714696,0.8978148698806763,1.1384187936782837,1.1908788681030273,1.4029861688613892
14092.064664774758,0.8971672058105469,1.139066457748413,1.1910407543182373,1.4025003910064697
14092.066664834818,0.8968433737754822,1.1382569074630737,1.1912027597427368,1.4031480550765991
14092.06866489488,0.8968433737754822,1.1374473571777344,1.1913646459579468,1.4026622772216797
14092.07066495494,0.8960338234901428,1.136961579322815,1.1912027597427368,1.4025003910064697
14092.072665014999,0.8965195417404175,1.1376092433929443,1.1908788681030273,1.4028241634368896
14092.07466507506,0.8970052599906921,1.1376092433929443,1.1905550956726074,1.4028241634368896
14092.07666513512,0.8976529240608215,1.1382569074630737,1.189745545387268,1.4021764993667603
14092.078665195182,0.8963576555252075,1.1382569074630737,1.190231204032898,1.401205062866211
14092.080665255242,0.8973290920257568,1.1380950212478638,1.190069317817688,1.4023385047912598
14092.082665315302,0.8968433737754822,1.1379330158233643,1.189907431602478,1.4018527269363403
14092.084665375363,0.8963576555252075,1.1380950212478638,1.190069317817688,1.4015288352966309
14092.086665435423,0.8970052599906921,1.1374473571777344,1.1895835399627686,1.401366949081421
14092.088665495483,0.8979767560958862,1.1376092433929443,1.1895835399627686,1.401366949081421
14092.090665555545,0.8970052599906921,1.1372853517532349,1.190231204032898,1.400881290435791
14092.092665615604,0.8966814279556274,1.1374473571777344,1.190393090248108,1.400881290435791
14092.094665675664,0.8970052599906921,1.1372853517532349,1.1905550956726074,1.400881290435791
14092.096665735726,0.8968433737754822,1.137123465538025,1.190231204032898,1.4003955125808716
14092.098665795786,0.8955480456352234,1.1374473571777344,1.1910407543182373,1.4005573987960815
14092.100665855847,0.8966814279556274,1.137123465538025,1.1913646459579468,1.4016908407211304
14092.102665915907,0.8965195417404175,1.1372853517532349,1.190393090248108,1.4015288352966309
14092.104665975967,0.8966814279556274,1.1377711296081543,1.1907169818878174,1.401366949081421
14092.106666036028,0.8976529240608215,1.1382569074630737,1.1915265321731567,1.4016908407211304
14092.108666096088,0.8986244201660156,1.1382569074630737,1.1912027597427368,1.4021764993667603
14092.110666156148,0.898138701915741,1.1376092433929443,1.1920123100280762,1.4020146131515503
14092.11266621621,0.8974910378456116,1.1376092433929443,1.1920123100280762,1.4031480550765991
14092.11466627627,0.8974910378456116,1.1372853517532349,1.1915265321731567,1.4031480550765991
14092.11666633633,0.8973290920257568,1.137123465538025,1.1913646459579468,1.4020146131515503
14092.11866639639,0.8963576555252075,1.1379330158233643,1.1926599740982056,1.4018527269363403
14092.12066645645,0.898138701915741,1.1387425661087036,1.1920123100280762,1.4029861688613892
14092.122666516512,0.898138701915741,1.1385806798934937,1.193469524383545,1.4031480550765991
14092.124666576572,0.8984625339508057,1.1382569074630737,1.1936314105987549,1.4029861688613892
14092.126666636632,0.8986244201660156,1.1377711296081543,1.1941171884536743,1.4028241634368896
14092.128666696693,0.899433970451355,1.1385806798934937,1.1936314105987549,1.403309941291809
14092.130666756753,0.8991101384162903,1.1382569074630737,1.1937932968139648,1.4021764993667603
14092.132666816813,0.899272084236145,1.139228343963623,1.1939553022384644,1.4020146131515503
14092.134666876875,0.8987863659858704,1.139228343963623,1.1939553022384644,1.4020146131515503
14092.136666936934,0.8989482522010803,1.1379330158233643,1.1936314105987549,1.4023385047912598
14092.138666996996,0.8984625339508057,1.1382569074630737,1.1939553022384644,1.4025003910064697
14092.140667057056,0.9002435803413391,1.1384187936782837,1.1939553022384644,1.4036338329315186
14092.142667117116,0.8997578024864197,1.1389045715332031,1.1942790746688843,1.4025003910064697
14092.144667177177,0.9002435803413391,1.1389045715332031,1.1941171884536743,1.4031480550765991
14092.146667237237,0.8995959162712097,1.139228343963623,1.1949267387390137,1.403309941291809
14092.148667297297,0.9008912444114685,1.139390230178833,1.1949267387390137,1.4029861688613892
14092.150667357359,0.8991101384162903,1.139228343963623,1.1950886249542236,1.4025003910064697
14092.152667417418,0.899272084236145,1.1384187936782837,1.1952505111694336,1.4028241634368896
14092.15466747748,0.8995959162712097,1.1387425661087036,1.1947648525238037,1.4021764993667603
14092.15666753754,0.8999197483062744,1.139228343963623,1.1949267387390137,1.4018527269363403
14092.1586675976,0.8984625339508057,1.1389045715332031,1.1950886249542236,1.4016908407211304
14092.160667657661,0.8995959162712097,1.1380950212478638,1.1949267387390137,1.4028241634368896
14092.162667717721,0.9008912444114685,1.1377711296081543,1.1949267387390137,1.4029861688613892
14092.16466777778,0.9005674123764038,1.1377711296081543,1.1939553022384644,1.403309941291809
14092.166667837842,0.9000816345214844,1.1377711296081543,1.1937932968139648,1.4028241634368896
14092.168667897902,0.9008912444114685,1.1376092433929443,1.1939553022384644,1.403471827507019
14092.170667957962,0.8989482522010803,1.1374473571777344,1.1937932968139648,1.4025003910064697
14092.172668018024,0.8991101384162903,1.137123465538025,1.1936314105987549,1.4021764993667603
14092.174668078083,0.899433970451355,1.1366376876831055,1.1936314105987549,1.401366949081421
14092.176668138145,0.899272084236145,1.136799693107605,1.1936314105987549,1.4005573987960815
14092.178668198205,0.8968433737754822,1.136961579322815,1.1936314105987549,1.4005573987960815
14092.180668258265,0.8979767560958862,1.136799693107605,1.1936314105987549,1.4016908407211304
14092.182668318326,0.8984625339508057,1.1364758014678955,1.1936314105987549,1.4018527269363403
14092.184668378386,0.8987863659858704,1.1363139152526855,1.1926599740982056,1.4018527269363403
14092.186668438446,0.899272084236145,1.1359901428222656,1.1920123100280762,1.401366949081421
14092.188668498507,0.8997578024864197,1.1361520290374756,1.192336082458496,1.4021764993667603
14092.190668558567,0.8983005881309509,1.1363139152526855,1.1928218603134155,1.4016908407211304
14092.192668618627,0.8976529240608215,1.1361520290374756,1.1926599740982056,1.401043176651001
14092.194668678689,0.8979767560958862,1.1358281373977661,1.1918504238128662,1.401043176651001
14092.196668738748,0.8978148698806763,1.1355043649673462,1.1912027597427368,1.4005573987960815
14092.19866879881,0.8963576555252075,1.1359901428222656,1.1918504238128662,1.3999097347259521
14092.20066885887,0.8979767560958862,1.1355043649673462,1.1910407543182373,1.3999097347259521
14092.20266891893,0.899272084236145,1.1356662511825562,1.1912027597427368,1.3995859622955322
14092.204668978991,0.8984625339508057,1.1340471506118774,1.1912027597427368,1.400071620941162
14092.206669039051,0.898138701915741,1.1343709230422974,1.1920123100280762,1.3997478485107422
14092.208669099113,0.899433970451355,1.1345328092575073,1.1918504238128662,1.3991001844406128
14092.210669159173,0.8974910378456116,1.133561372756958,1.1910407543182373,1.3986144065856934
14092.212669219232,0.8966814279556274,1.1330755949020386,1.1910407543182373,1.3981287479400635
14092.214669279294,0.8968433737754822,1.1330755949020386,1.189907431602478,1.3986144065856934
14092.216669339354,0.8968433737754822,1.1338852643966675,1.1895835399627686,1.3984525203704834
14092.218669399414,0.8953861594200134,1.1342090368270874,1.1895835399627686,1.397481083869934
14092.220669459475,0.8963576555252075,1.1343709230422974,1.1907169818878174,1.397481083869934
14092.222669519535,0.8974910378456116,1.1340471506118774,1.1913646459579468,1.397642970085144
14092.224669579595,0.8971672058105469,1.1345328092575073,1.1907169818878174,1.3982906341552734
14092.226669639656,0.8971672058105469,1.1345328092575073,1.190393090248108,1.3981287479400635
14092.228669699716,0.8984625339508057,1.1340471506118774,1.1912027597427368,1.3992620706558228
14092.230669759778,0.8971672058105469,1.1330755949020386,1.1907169818878174,1.3984525203704834
14092.232669819838,0.8963576555252075,1.133399486541748,1.189907431602478,1.3981287479400635
14092.234669879897,0.8974910378456116,1.133723258972168,1.189745545387268,1.397481083869934
14092.236669939959,0.8978148698806763,1.1330755949020386,1.189907431602478,1.397642970085144
14092.238670000019,0.8968433737754822,1.1324279308319092,1.1907169818878174,1.3965095281600952
14092.240670060079,0.8978148698806763,1.133237600326538,1.1910407543182373,1.3973190784454346
14092.24267012014,0.8976529240608215,1.1327518224716187,1.1912027597427368,1.397481083869934
14092.2446701802,0.8976529240608215,1.1327518224716187,1.1908788681030273,1.3984525203704834
14092.24667024026,0.8973290920257568,1.1329137086868286,1.1908788681030273,1.3995859622955322
14092.248670300321,0.8979767560958862,1.133399486541748,1.1907169818878174,1.3989382982254028
14092.250670360381,0.8973290920257568,1.1340471506118774,1.1908788681030273,1.3989382982254028
14092.252670420443,0.8970052599906921,1.1343709230422974,1.1908788681030273,1.3986144065856934
14092.254670480503,0.8970052599906921,1.1338852643966675,1.1908788681030273,1.397804856300354
14092.256670540562,0.8978148698806763,1.133561372756958,1.1913646459579468,1.3981287479400635
14092.258670600624,0.8965195417404175,1.1346948146820068,1.1910407543182373,1.397642970085144
14092.260670660684,0.8976529240608215,1.1350185871124268,1.1907169818878174,1.397804856300354
14092.262670720744,0.8978148698806763,1.1348567008972168,1.1910407543182373,1.397481083869934
14092.264670780805,0.8984625339508057,1.1345328092575073,1.1918504238128662,1.397966742515564
14092.266670840865,0.8986244201660156,1.1343709230422974,1.1918504238128662,1.397966742515564
14092.268670900927,0.8997578024864197,1.1346948146820068,1.1915265321731567,1.3992620706558228
14092.270670960987,0.8987863659858704,1.1346948146820068,1.192336082458496,1.3986144065856934
14092.272671021046,0.8983005881309509,1.1343709230422974,1.1924980878829956,1.3986144065856934
14092.274671081108,0.8984625339508057,1.1345328092575073,1.192336082458496,1.3992620706558228
14092.276671141168,0.8987863659858704,1.1348567008972168,1.1920123100280762,1.3989382982254028
14092.278671201228,0.8974910378456116,1.1350185871124268,1.1931456327438354,1.3987764120101929
14092.28067126129,0.8984625339508057,1.1350185871124268,1.1936314105987549,1.3995859622955322
14092.282671321349,0.899272084236145,1.1346948146820068,1.1942790746688843,1.3989382982254028
14092.28467138141,0.899433970451355,1.1355043649673462,1.1936314105987549,1.3991001844406128
14092.28667144147,0.899272084236145,1.1359901428222656,1.1929837465286255,1.3984525203704834
14092.28867150153,0.9008912444114685,1.1358281373977661,1.1942790746688843,1.3991001844406128
14092.290671561592,0.8989482522010803,1.1355043649673462,1.1947648525238037,1.3997478485107422
14092.292671621652,0.8987863659858704,1.1351804733276367,1.1949267387390137,1.4003955125808716
14092.294671681711,0.8986244201660156,1.1356662511825562,1.1937932968139648,1.3997478485107422
14092.296671741773,0.8991101384162903,1.1359901428222656,1.1936314105987549,1.3982906341552734
14092.298671801833,0.8986244201660156,1.1361520290374756,1.1939553022384644,1.3991001844406128
14092.300671861893,0.9005674123764038,1.1359901428222656,1.1944409608840942,1.4007192850112915
14092.302671921954,0.9005674123764038,1.1358281373977661,1.1949267387390137,1.4003955125808716
14092.304671982014,0.9007292985916138,1.1359901428222656,1.195574402809143,1.3992620706558228
14092.306672042076,0.9004054665565491,1.1363139152526855,1.195898175239563,1.3992620706558228
14092.308672102135,0.9010531306266785,1.1361520290374756,1.1963839530944824,1.3999097347259521
14092.310672162195,0.8991101384162903,1.136961579322815,1.1960601806640625,1.3999097347259521
14092.312672222257,0.8983005881309509,1.1364758014678955,1.1960601806640625,1.4007192850112915
14092.314672282317,0.8991101384162903,1.137123465538025,1.1971935033798218,1.4003955125808716
14092.316672342376,0.9002435803413391,1.1366376876831055,1.195898175239563,1.3995859622955322
14092.318672402438,0.899433970451355,1.136799693107605,1.1947648525238037,1.3992620706558228
14092.320672462498,0.9005674123764038,1.1361520290374756,1.1950886249542236,1.3997478485107422
14092.322672522558,0.9012150168418884,1.1363139152526855,1.196707844734192,1.3995859622955322
14092.32467258262,0.9004054665565491,1.1355043649673462,1.1960601806640625,1.3995859622955322
14092.32667264268,0.9000816345214844,1.1358281373977661,1.1963839530944824,1.4003955125808716
14092.32867270274,0.9005674123764038,1.136799693107605,1.1963839530944824,1.4002336263656616
14092.3306727628,0.9004054665565491,1.1366376876831055,1.1968697309494019,1.3995859622955322
14092.33267282286,0.8999197483062744,1.1361520290374756,1.1963839530944824,1.3991001844406128
14092.334672882922,0.9002435803413391,1.1364758014678955,1.195412516593933,1.3991001844406128
14092.336672942982,0.9005674123764038,1.1359901428222656,1.195574402809143,1.3994239568710327
14092.338673003042,0.8989482522010803,1.1355043649673462,1.195898175239563,1.3994239568710327
14092.340673063103,0.899433970451355,1.1358281373977661,1.1960601806640625,1.3997478485107422
14092.342673123163,0.8999197483062744,1.1363139152526855,1.1960601806640625,1.3997478485107422
14092.344673183225,0.9000816345214844,1.1359901428222656,1.195898175239563,1.4002336263656616
14092.346673243284,0.9010531306266785,1.1356662511825562,1.1960601806640625,1.4007192850112915
14092.348673303344,0.9021865129470825,1.1364758014678955,1.1965458393096924,1.4007192850112915
14092.350673363406,0.9007292985916138,1.136961579322815,1.196707844734192,1.3997478485107422
14092.352673423466,0.9000816345214844,1.1355043649673462,1.1971935033798218,1.400071620941162
14092.354673483525,0.9002435803413391,1.1350185871124268,1.1965458393096924,1.3997478485107422
14092.356673543587,0.9000816345214844,1.1359901428222656,1.1970316171646118,1.3992620706558228
14092.358673603647,0.8984625339508057,1.1358281373977661,1.1968697309494019,1.3991001844406128
14092.360673663708,0.8997578024864197,1.1355043649673462,1.1960601806640625,1.3992620706558228
14092.362673723768,0.9007292985916138,1.1366376876831055,1.196707844734192,1.3987764120101929
14092.364673783828,0.9000816345214844,1.1361520290374756,1.1963839530944824,1.3989382982254028
14092.36667384389,0.9002435803413391,1.1350185871124268,1.1963839530944824,1.4002336263656616
14092.36867390395,0.9012150168418884,1.1353424787521362,1.1962220668792725,1.3999097347259521
14092.37067396401,0.9004054665565491,1.1356662511825562,1.1960601806640625,1.3992620706558228
14092.37267402407,0.9000816345214844,1.1350185871124268,1.196707844734192,1.3989382982254028
14092.37467408413,0.9007292985916138,1.1356662511825562,1.195736289024353,1.3995859622955322
14092.37667414419,0.9002435803413391,1.1363139152526855,1.195574402809143,1.3999097347259521
14092.378674204252,0.899272084236145,1.136799693107605,1.195736289024353,1.3994239568710327
14092.380674264312,0.9007292985916138,1.136961579322815,1.1960601806640625,1.3999097347259521
14092.382674324374,0.9008912444114685,1.1359901428222656,1.1965458393096924,1.3999097347259521
14092.384674384433,0.9005674123764038,1.1351804733276367,1.1960601806640625,1.3987764120101929
14092.386674444493,0.9004054665565491,1.1356662511825562,1.195736289024353,1.3992620706558228
14092.388674504555,0.9013769626617432,1.1359901428222656,1.195898175239563,1.4002336263656616
14092.390674564615,0.899433970451355,1.1361520290374756,1.1960601806640625,1.3991001844406128
14092.392674624674,0.8987863659858704,1.1358281373977661,1.1962220668792725,1.3995859622955322
14092.394674684736,0.899272084236145,1.1363139152526855,1.1952505111694336,1.3997478485107422
14092.396674744796,0.8987863659858704,1.1376092433929443,1.195898175239563,1.3994239568710327
14092.398674804857,0.8984625339508057,1.1364758014678955,1.1960601806640625,1.3987764120101929
14092.400674864917,0.8999197483062744,1.1364758014678955,1.195574402809143,1.3999097347259521
14092.402674924977,0.9002435803413391,1.1376092433929443,1.195574402809143,1.3995859622955322
14092.404674985039,0.8997578024864197,1.1377711296081543,1.1960601806640625,1.3997478485107422
14092.406675045098,0.8999197483062744,1.136961579322815,1.1965458393096924,1.3999097347259521
14092.408675105158,0.9017007946968079,1.136799693107605,1.196707844734192,1.3992620706558228
14092.41067516522,0.9002435803413391,1.1364758014678955,1.196707844734192,1.3987764120101929
14092.41267522528,0.899272084236145,1.1358281373977661,1.1971935033798218,1.3995859622955322
14092.414675285341,0.9000816345214844,1.1364758014678955,1.1970316171646118,1.3997478485107422
14092.416675345401,0.899272084236145,1.137123465538025,1.1962220668792725,1.3989382982254028
14092.41867540546,0.8976529240608215,1.1366376876831055,1.1962220668792725,1.3987764120101929
14092.420675465522,0.8995959162712097,1.1361520290374756,1.1971935033798218,1.4007192850112915
14092.422675525582,0.8999197483062744,1.1361520290374756,1.1976792812347412,1.400071620941162
14092.424675585642,0.8989482522010803,1.1363139152526855,1.1971935033798218,1.3995859622955322
14092.426675645704,0.9002435803413391,1.1358281373977661,1.1965458393096924,1.3992620706558228
14092.428675705763,0.9015388488769531,1.1359901428222656,1.1960601806640625,1.3995859622955322
14092.430675765823,0.9004054665565491,1.1364758014678955,1.1962220668792725,1.3991001844406128
14092.432675825885,0.8997578024864197,1.1364758014678955,1.1963839530944824,1.3987764120101929
14092.434675885945,0.8995959162712097,1.1372853517532349,1.1960601806640625,1.3991001844406128
14092.436675946006,0.899433970451355,1.136961579322815,1.196707844734192,1.3991001844406128
14092.438676006066,0.899272084236145,1.136799693107605,1.1968697309494019,1.3987764120101929
14092.440676066126,0.9015388488769531,1.137123465538025,1.1973553895950317,1.3987764120101929
14092.442676126188,0.9015388488769531,1.1366376876831055,1.1976792812347412,1.3989382982254028
14092.444676186247,0.9000816345214844,1.137123465538025,1.1973553895950317,1.3987764120101929
14092.446676246307,0.899433970451355,1.137123465538025,1.1968697309494019,1.3994239568710327
14092.448676306369,0.9007292985916138,1.1372853517532349,1.1965458393096924,1.3999097347259521
14092.450676366429,0.8997578024864197,1.1377711296081543,1.1976792812347412,1.3992620706558228
14092.452676426488,0.8991101384162903,1.1372853517532349,1.1978411674499512,1.3992620706558228
14092.45467648655,0.8997578024864197,1.1372853517532349,1.1971935033798218,1.3994239568710327
14092.45667654661,0.8991101384162903,1.1372853517532349,1.1963839530944824,1.400071620941162
14092.458676606671,0.8989482522010803,1.1372853517532349,1.1965458393096924,1.3997478485107422
14092.460676666731,0.9012150168418884,1.137123465538025,1.1962220668792725,1.3997478485107422
14092.462676726791,0.9010531306266785,1.1366376876831055,1.195898175239563,1.3986144065856934
14092.464676786853,0.9004054665565491,1.136961579322815,1.1973553895950317,1.3992620706558228
14092.466676846912,0.9008912444114685,1.136961579322815,1.1970316171646118,1.3994239568710327
14092.468676906972,0.9013769626617432,1.1372853517532349,1.1968697309494019,1.400071620941162
14092.470676967034,0.899272084236145,1.137123465538025,1.195736289024353,1.3995859622955322
14092.472677027094,0.8986244201660156,1.1364758014678955,1.1962220668792725,1.3994239568710327
14092.474677087155,0.899272084236145,1.1361520290374756,1.1968697309494019,1.3992620706558228
14092.476677147215,0.8999197483062744,1.1353424787521362,1.196707844734192,1.3992620706558228
14092.478677207275,0.8987863659858704,1.1351804733276367,1.195412516593933,1.3991001844406128
14092.480677267336,0.899433970451355,1.1353424787521362,1.195412516593933,1.4002336263656616
14092.482677327396,0.9002435803413391,1.1359901428222656,1.1950886249542236,1.3997478485107422
14092.484677387456,0.9002435803413391,1.1361520290374756,1.1946029663085938,1.400071620941162
14092.486677447518,0.9002435803413391,1.1361520290374756,1.1947648525238037,1.3995859622955322
14092.488677507577,0.9005674123764038,1.1361520290374756,1.1942790746688843,1.3992620706558228
14092.490677567639,0.8991101384162903,1.1364758014678955,1.1946029663085938,1.3987764120101929
14092.492677627699,0.8986244201660156,1.1359901428222656,1.1946029663085938,1.400071620941162
14092.494677687759,0.8987863659858704,1.1353424787521362,1.1946029663085938,1.3994239568710327
14092.49667774782,0.8987863659858704,1.1358281373977661,1.1944409608840942,1.3984525203704834
14092.49867780788,0.8970052599906921,1.1350185871124268,1.1939553022384644,1.3987764120101929
14092.50067786794,0.8986244201660156,1.1358281373977661,1.1939553022384644,1.3995859622955322
14092.502677928002,0.899433970451355,1.1356662511825562,1.1941171884536743,1.3997478485107422
14092.504677988061,0.8983005881309509,1.1351804733276367,1.1944409608840942,1.3992620706558228
14092.506678048121,0.898138701915741,1.1350185871124268,1.1942790746688843,1.3992620706558228
14092.508678108183,0.8997578024864197,1.1346948146820068,1.1939553022384644,1.3994239568710327
14092.510678168243,0.8984625339508057,1.1345328092575073,1.1937932968139648,1.3989382982254028
14092.512678228304,0.8983005881309509,1.1353424787521362,1.193307638168335,1.3992620706558228
14092.514678288364,0.898138701915741,1.1346948146820068,1.1931456327438354,1.3995859622955322
14092.516678348424,0.8979767560958862,1.1353424787521362,1.193469524383545,1.3991001844406128
14092.518678408485,0.8973290920257568,1.1355043649673462,1.1929837465286255,1.397804856300354
14092.520678468545,0.8987863659858704,1.1359901428222656,1.1926599740982056,1.3989382982254028
14092.522678528605,0.899272084236145,1.1358281373977661,1.193307638168335,1.3992620706558228
14092.524678588667,0.8989482522010803,1.1351804733276367,1.1926599740982056,1.3994239568710327
14092.526678648726,0.899272084236145,1.1351804733276367,1.1929837465286255,1.4002336263656616
14092.528678708786,0.8997578024864197,1.1353424787521362,1.1936314105987549,1.400071620941162
14092.530678768848,0.8983005881309509,1.1346948146820068,1.193469524383545,1.3994239568710327
14092.532678828908,0.8978148698806763,1.1351804733276367,1.193469524383545,1.3997478485107422
