time,X_NOSE,Y_NOSE,Z_NOSE,visibility_NOSE,X_LEFT_EYE_INNER,Y_LEFT_EYE_INNER,Z_LEFT_EYE_INNER,visibility_LEFT_EYE_INNER,X_LEFT_EYE,Y_LEFT_EYE,Z_LEFT_EYE,visibility_LEFT_EYE,X_LEFT_EYE_OUTER,Y_LEFT_EYE_OUTER,Z_LEFT_EYE_OUTER,visibility_LEFT_EYE_OUTER,X_RIGHT_EYE_OUTER,Y_RIGHT_EYE_OUTER,Z_RIGHT_EYE_OUTER,visibility_RIGHT_EYE_OUTER,X_RIGHT_EYE,Y_RIGHT_EYE,Z_RIGHT_EYE,visibility_RIGHT_EYE,X_RIGHT_EYE_OUTER,Y_RIGHT_EYE_OUTER,Z_RIGHT_EYE_OUTER,visibility_RIGHT_EYE_OUTER,X_LEFT_EAR,Y_LEFT_EAR,Z_LEFT_EAR,visibility_LEFT_EAR,X_RIGHT_EAR,Y_RIGHT_EAR,Z_RIGHT_EAR,visibility_RIGHT_EAR,X_MOUTH_LEFT,Y_MOUTH_LEFT,Z_MOUTH_LEFT,visibility_MOUTH_LEFT,X_MOUTH_RIGHT,Y_MOUTH_RIGHT,Z_MOUTH_RIGHT,visibility_MOUTH_RIGHT,X_LEFT_SHOULDER,Y_LEFT_SHOULDER,Z_LEFT_SHOULDER,visibility_LEFT_SHOULDER,X_RIGHT_SHOULDER,Y_RIGHT_SHOULDER,Z_RIGHT_SHOULDER,visibility_RIGHT_SHOULDER,X_LEFT_ELBOW,Y_LEFT_ELBOW,Z_LEFT_ELBOW,visibility_LEFT_ELBOW,X_RIGHT_ELBOW,Y_RIGHT_ELBOW,Z_RIGHT_ELBOW,visibility_RIGHT_ELBOW,X_LEFT_WRIST,Y_LEFT_WRIST,Z_LEFT_WRIST,visibility_LEFT_WRIST,X_RIGHT_WRIST,Y_RIGHT_WRIST,Z_RIGHT_WRIST,visibility_RIGHT_WRIST,X_LEFT_PINKY,Y_LEFT_PINKY,Z_LEFT_PINKY,visibility_LEFT_PINKY,X_RIGHT_PINKY,Y_RIGHT_PINKY,Z_RIGHT_PINKY,visibility_RIGHT_PINKY,X_LEFT_INDEX,Y_LEFT_INDEX,Z_LEFT_INDEX,visibility_LEFT_INDEX,X_RIGHT_INDEX,Y_RIGHT_INDEX,Z_RIGHT_INDEX,visibility_RIGHT_INDEX,X_LEFT_THUMB,Y_LEFT_THUMB,Z_LEFT_THUMB,visibility_LEFT_THUMB,X_RIGHT_THUMB,Y_RIGHT_THUMB,Z_RIGHT_THUMB,visibility_RIGHT_THUMB,X_LEFT_HIP,Y_LEFT_HIP,Z_LEFT_HIP,visibility_LEFT_HIP,X_RIGHT_HIP,Y_RIGHT_HIP,Z_RIGHT_HIP,visibility_RIGHT_HIP,X_LEFT_KNEE,Y_LEFT_KNEE,Z_LEFT_KNEE,visibility_LEFT_KNEE,X_RIGHT_KNEE,Y_RIGHT_KNEE,Z_RIGHT_KNEE,visibility_RIGHT_KNEE,X_LEFT_ANKLE,Y_LEFT_ANKLE,Z_LEFT_ANKLE,visibility_LEFT_ANKLE,X_RIGHT_ANKLE,Y_RIGHT_ANKLE,Z_RIGHT_ANKLE,visibility_RIGHT_ANKLE,X_LEFT_HEEL,Y_LEFT_HEEL,Z_LEFT_HEEL,visibility_LEFT_HEEL,X_RIGHT_HEEL,Y_RIGHT_HEEL,Z_RIGHT_HEEL,visibility_RIGHT_HEEL,X_LEFT_FOOT_INDEX,Y_LEFT_FOOT_INDEX,Z_LEFT_FOOT_INDEX,visibility_LEFT_FOOT_INDEX,X_RIGHT_FOOT_INDEX,Y_RIGHT_FOOT_INDEX,Z_RIGHT_FOOT_INDEX,visibility_RIGHT_FOOT_INDEX
13930.89934199889,0.48130786418914795,0.2784320116043091,-0.9200007915496826,0.9999181032180786,0.4916234314441681,0.25684449076652527,-0.8771737217903137,0.9998095631599426,0.5011327862739563,0.25600317120552063,-0.8773254156112671,0.9997777342796326,0.5102347731590271,0.2554050087928772,-0.8774991631507874,0.9997567534446716,0.45896482467651367,0.25855669379234314,-0.8907383680343628,0.9997628331184387,0.44481146335601807,0.25875791907310486,-0.8908365964889526,0.9997349381446838,0.4321921765804291,0.25889846682548523,-0.8910552859306335,0.999727189540863,0.5187578201293945,0.26335254311561584,-0.5569572448730469,0.9996668100357056,0.41050881147384644,0.2678944766521454,-0.6294678449630737,0.9997259974479675,0.49694183468818665,0.2988112270832062,-0.7933937907218933,0.9999363422393799,0.4581817090511322,0.2994987964630127,-0.8144763708114624,0.9999446868896484,0.5945279598236084,0.3828648626804352,-0.2953314483165741,0.99991774559021,0.3276439905166626,0.38034787774086,-0.42643827199935913,0.9997995495796204,0.6119046211242676,0.5326101779937744,-0.08601608872413635,0.9500779509544373,0.2984757721424103,0.5260810852050781,-0.4250941276550293,0.9620442986488342,0.6624108552932739,0.6559146046638489,-0.31545355916023254,0.924822211265564,0.3703891634941101,0.6028222441673279,-0.7439916729927063,0.9033120274543762,0.680400013923645,0.6953365206718445,-0.3887407183647156,0.8820580244064331,0.38967713713645935,0.6262472867965698,-0.8285451531410217,0.863111138343811,0.6685729026794434,0.6981227397918701,-0.4726428687572479,0.8940513134002686,0.3999648988246918,0.611168622970581,-0.895532488822937,0.871465265750885,0.6568529605865479,0.6891664862632751,-0.35273969173431396,0.8973859548568726,0.3943219780921936,0.599052906036377,-0.7730506658554077,0.853320300579071,0.5508660078048706,0.6468827128410339,0.0326104536652565,0.9981374740600586,0.3989342153072357,0.6549032926559448,-0.0324629507958889,0.9965705871582031,0.5570349097251892,0.852277398109436,-0.06873844563961029,0.48327499628067017,0.4155210852622986,0.8489534854888916,-0.06534305214881897,0.4824123680591583,0.5491087436676025,1.0243821144104004,0.46878692507743835,0.26715362071990967,0.4307923913002014,1.0099480152130127,0.4344806969165802,0.31054040789604187,0.5375145077705383,1.0459249019622803,0.5040081143379211,0.23407292366027832,0.43668338656425476,1.0485897064208984,0.4699382781982422,0.17135001718997955,0.5802985429763794,1.0889227390289307,0.20237909257411957,0.26529940962791443,0.44706717133522034,1.101217269897461,0.11827269941568375,0.2818518280982971
13947.566008665555,0.4806065857410431,0.27860966324806213,-0.9432200193405151,0.9999366998672485,0.49113401770591736,0.2565746605396271,-0.8970120549201965,0.9998481273651123,0.5004661083221436,0.25565171241760254,-0.8971796631813049,0.9998146891593933,0.5096188187599182,0.2550298571586609,-0.897320032119751,0.9997997879981995,0.4585731625556946,0.25853779911994934,-0.9116700291633606,0.9998170733451843,0.4443318545818329,0.25884413719177246,-0.9118070602416992,0.999789297580719,0.4316275715827942,0.25910496711730957,-0.9120275974273682,0.9997887015342712,0.5185837149620056,0.26291003823280334,-0.5648800730705261,0.9997020363807678,0.41033676266670227,0.26814529299736023,-0.6425653696060181,0.9997904896736145,0.4964068830013275,0.2990713119506836,-0.8128800988197327,0.9999529123306274,0.4573734998703003,0.29999274015426636,-0.8354789018630981,0.9999624490737915,0.5928723812103271,0.3823659121990204,-0.29737788438796997,0.9999333620071411,0.32661303877830505,0.3814517557621002,-0.42785704135894775,0.9998468160629272,0.6128014326095581,0.5312325358390808,-0.09314151108264923,0.9606872797012329,0.29253268241882324,0.5282704830169678,-0.4060077965259552,0.9741476774215698,0.661296010017395,0.6547763347625732,-0.3532653748989105,0.9422861337661743,0.36745887994766235,0.6018345355987549,-0.7228091955184937,0.9302993416786194,0.6781699657440186,0.6956622004508972,-0.4356934428215027,0.9043028354644775,0.3897431790828705,0.6247042417526245,-0.8099741339683533,0.8911932706832886,0.6679401993751526,0.6986539363861084,-0.5218929648399353,0.9139966368675232,0.39922887086868286,0.6080320477485657,-0.8790678977966309,0.8979862928390503,0.6565812230110168,0.689152717590332,-0.3923904001712799,0.9150151014328003,0.39223939180374146,0.5960071086883545,-0.7518742680549622,0.8806116580963135,0.5517070889472961,0.6466417908668518,0.032720062881708145,0.9984422326087952,0.40161633491516113,0.6564523577690125,-0.0326286181807518,0.9972206354141235,0.5577895641326904,0.8537393808364868,-0.04544233903288841,0.4970579147338867,0.41626274585723877,0.8512636423110962,-0.05318914353847504,0.5244224667549133,0.5376588702201843,1.0093188285827637,0.5059108734130859,0.2963704466819763,0.4322715699672699,1.0101268291473389,0.461081862449646,0.3562547564506531,0.548085629940033,1.0483174324035645,0.5418617129325867,0.24685344099998474,0.43581581115722656,1.0522568225860596,0.4975060224533081,0.20107851922512054,0.5945175290107727,1.0884819030761719,0.2300390601158142,0.31124815344810486,0.4503021538257599,1.103145956993103,0.13579553365707397,0.34182488918304443
13964.232675332221,0.4807169735431671,0.2786903977394104,-0.9443085789680481,0.9999337196350098,0.49150604009628296,0.2566852867603302,-0.8987324237823486,0.9998393058776855,0.5008939504623413,0.2557765543460846,-0.8988968133926392,0.9998043179512024,0.5100901126861572,0.25516724586486816,-0.8990405797958374,0.9997879862785339,0.45869478583335876,0.25848081707954407,-0.9135072231292725,0.9998074173927307,0.4445957541465759,0.25870630145072937,-0.9136384129524231,0.9997783303260803,0.4319619834423065,0.2588690519332886,-0.9138625860214233,0.9997772574424744,0.5193784236907959,0.2631787657737732,-0.5671642422676086,0.9996830224990845,0.41075071692466736,0.2676967978477478,-0.6453548669815063,0.999782145023346,0.49651429057121277,0.2990868389606476,-0.8137757778167725,0.9999504089355469,0.4576239287853241,0.2998940348625183,-0.8365323543548584,0.9999607801437378,0.5931567549705505,0.38220691680908203,-0.29558250308036804,0.9999343156814575,0.32717257738113403,0.37918320298194885,-0.43196484446525574,0.9998549222946167,0.6118847131729126,0.5314223170280457,-0.08707831054925919,0.9605964422225952,0.2917540669441223,0.5262985825538635,-0.4079945385456085,0.9753526449203491,0.6616106629371643,0.6545842885971069,-0.3423331677913666,0.9435810446739197,0.3680030107498169,0.6022806167602539,-0.7183674573898315,0.9329652786254883,0.6783281564712524,0.6955133676528931,-0.42389294505119324,0.9061095118522644,0.39005351066589355,0.6251805424690247,-0.8048657178878784,0.8938871622085571,0.6675959825515747,0.6982929110527039,-0.5099793672561646,0.9156889319419861,0.4002555012702942,0.6087214946746826,-0.87386155128479,0.9004063606262207,0.6561951637268066,0.6890411972999573,-0.38127580285072327,0.9161572456359863,0.39351987838745117,0.5967991948127747,-0.7471258640289307,0.8831157684326172,0.5507385730743408,0.6456643342971802,0.03407828509807587,0.9984739422798157,0.40026646852493286,0.6549066305160522,-0.03398050740361214,0.9972907900810242,0.5570018887519836,0.8531429767608643,-0.04521254077553749,0.484010249376297,0.4154534935951233,0.850151777267456,-0.052687641233205795,0.5048955082893372,0.557222843170166,1.025719404220581,0.49868425726890564,0.28566938638687134,0.43073204159736633,1.007856011390686,0.46105849742889404,0.3394102156162262,0.545742928981781,1.0482609272003174,0.5339564681053162,0.242847740650177,0.434710830450058,1.0514438152313232,0.4975404441356659,0.195357546210289,0.5921659469604492,1.0883359909057617,0.22246044874191284,0.30042946338653564,0.44885632395744324,1.1016991138458252,0.13683848083019257,0.32730165123939514
13980.899341998887,0.483121395111084,0.27907878160476685,-0.950010359287262,0.9999011754989624,0.4936372637748718,0.25717565417289734,-0.9073384404182434,0.9997562766075134,0.5028479099273682,0.2561876177787781,-0.9075055718421936,0.9997135996818542,0.5116086006164551,0.2552981674671173,-0.9076864719390869,0.9996863603591919,0.4621965289115906,0.25869277119636536,-0.9228297472000122,0.9997065663337708,0.4484460949897766,0.25879859924316406,-0.9229445457458496,0.9996664524078369,0.4360579550266266,0.2587934732437134,-0.923173189163208,0.9996626377105713,0.5181412100791931,0.26223719120025635,-0.5831181406974792,0.9995524287223816,0.412275493144989,0.2669607102870941,-0.6634021997451782,0.9996734857559204,0.4980579912662506,0.2991131842136383,-0.820764422416687,0.999923586845398,0.46037814021110535,0.2998884618282318,-0.8441387414932251,0.999936580657959,0.593599796295166,0.37996160984039307,-0.3127811849117279,0.9999182224273682,0.3268342614173889,0.37885135412216187,-0.4496026039123535,0.9998227953910828,0.6105230450630188,0.5310035943984985,-0.10744266211986542,0.9544224739074707,0.29798591136932373,0.5269419550895691,-0.41430094838142395,0.972507894039154,0.6618270874023438,0.6528739333152771,-0.3642224669456482,0.9263792037963867,0.3718559741973877,0.6016916036605835,-0.7001711130142212,0.9266810417175293,0.6805857419967651,0.6942476630210876,-0.44438716769218445,0.8823299407958984,0.3902941346168518,0.6257604956626892,-0.7835413813591003,0.8868083953857422,0.6681315898895264,0.6970320343971252,-0.5305113196372986,0.8942981362342834,0.40133386850357056,0.611065149307251,-0.8532652258872986,0.8943025469779968,0.6558297276496887,0.687738299369812,-0.4035172462463379,0.8972598314285278,0.39652806520462036,0.5995107889175415,-0.7289040684700012,0.8769999742507935,0.5471739172935486,0.6459552049636841,0.027424613013863564,0.9980212450027466,0.3957679867744446,0.654755711555481,-0.02725846692919731,0.9963614344596863,0.5536406636238098,0.8548150658607483,-0.07427163422107697,0.498483270406723,0.4094567894935608,0.8508526682853699,-0.05201803892850876,0.4774026572704315,0.5485999584197998,1.0276790857315063,0.45778682827949524,0.2733650207519531,0.4281209409236908,1.0059031248092651,0.45382386445999146,0.309430867433548,0.5379688143730164,1.049926519393921,0.49201062321662903,0.22481079399585724,0.43309465050697327,1.0512278079986572,0.48948341608047485,0.1815522462129593,0.5762959122657776,1.0922831296920776,0.18184374272823334,0.2715345323085785,0.4358600080013275,1.1021292209625244,0.13364073634147644,0.2881220877170563
13997.566008665553,0.4836970567703247,0.2773926556110382,-0.918049693107605,0.9999023675918579,0.49276119470596313,0.2557644546031952,-0.8737824559211731,0.9997683167457581,0.5015586018562317,0.2547253966331482,-0.8739611506462097,0.9997249245643616,0.5101057887077332,0.25387993454933167,-0.8741308450698853,0.9997016787528992,0.46232467889785767,0.2576698064804077,-0.8916879296302795,0.9997171759605408,0.44820934534072876,0.2578611969947815,-0.8918057084083557,0.9996713399887085,0.4356386065483093,0.2579030692577362,-0.8920429944992065,0.9996604919433594,0.515789806842804,0.2615894079208374,-0.5466262698173523,0.9995662569999695,0.411324679851532,0.26695162057876587,-0.6377515196800232,0.999692440032959,0.4977295696735382,0.2972623109817505,-0.788278341293335,0.9999337196350098,0.46079784631729126,0.2984899580478668,-0.8146852254867554,0.9999438524246216,0.5906098484992981,0.3801444470882416,-0.2730429172515869,0.9999357461929321,0.326610803604126,0.3789052367210388,-0.43579351902008057,0.9998438358306885,0.6112383008003235,0.5296154022216797,-0.06785497814416885,0.9601233005523682,0.29573383927345276,0.5282104015350342,-0.3976821005344391,0.9765457510948181,0.6618424654006958,0.6516181230545044,-0.3355569541454315,0.943081259727478,0.37326839566230774,0.6038253307342529,-0.6752481460571289,0.9325665831565857,0.6796638369560242,0.6929891109466553,-0.4192690849304199,0.9044539928436279,0.39282384514808655,0.6259738802909851,-0.7580487728118896,0.8922876715660095,0.667697012424469,0.6957536935806274,-0.5049616694450378,0.9150304794311523,0.402681440114975,0.6113036870956421,-0.8306077718734741,0.8992856740951538,0.6561319828033447,0.6867740750312805,-0.3752678632736206,0.9154743552207947,0.3977815806865692,0.6006004810333252,-0.7045706510543823,0.8822742700576782,0.5510483980178833,0.6441007852554321,0.03985728695988655,0.9980331063270569,0.40069589018821716,0.6546331644058228,-0.03967826068401337,0.9963112473487854,0.5576925873756409,0.8549256920814514,-0.0697844848036766,0.4584029018878937,0.41465917229652405,0.8528331518173218,-0.06323708593845367,0.43059760332107544,0.5566151142120361,1.0322768688201904,0.4539463520050049,0.23968257009983063,0.43107205629348755,1.0062005519866943,0.4490116536617279,0.2650127708911896,0.5446303486824036,1.055612325668335,0.48686710000038147,0.21705873310565948,0.4355163872241974,1.0561244487762451,0.4848686158657074,0.1650356650352478,0.5919675827026367,1.0953062772750854,0.17330458760261536,0.2430722713470459,0.4460288882255554,1.1049458980560303,0.12319961935281754,0.2563917636871338
14014.23267533222,0.48344501852989197,0.27667200565338135,-0.9017346501350403,0.9999232292175293,0.4929294288158417,0.2554474472999573,-0.857471227645874,0.9998214840888977,0.5021107792854309,0.25458553433418274,-0.857643723487854,0.9997881054878235,0.5108016133308411,0.2539741098880768,-0.8578179478645325,0.9997709393501282,0.4616384208202362,0.2573082447052002,-0.8742937445640564,0.9997795224189758,0.4474610984325409,0.2576725482940674,-0.8743970990180969,0.999744713306427,0.43477436900138855,0.25785917043685913,-0.8746217489242554,0.9997346997261047,0.5177679657936096,0.26213788986206055,-0.5339972376823425,0.9996830224990845,0.41119953989982605,0.26699188351631165,-0.6203579306602478,0.9997546076774597,0.4978213310241699,0.2971813678741455,-0.7738247513771057,0.9999473094940186,0.460267037153244,0.2979656159877777,-0.7989099025726318,0.9999523162841797,0.5921646356582642,0.3822580575942993,-0.2684974670410156,0.9999386072158813,0.32700979709625244,0.37948155403137207,-0.4231896996498108,0.9998468160629272,0.611226499080658,0.5316644310951233,-0.05949215218424797,0.9548988938331604,0.2989932596683502,0.5246484279632568,-0.4068261981010437,0.9702693223953247,0.661693811416626,0.6524146199226379,-0.3072952926158905,0.9343682527542114,0.36822637915611267,0.602080225944519,-0.7090122699737549,0.9254147410392761,0.6796947121620178,0.6937750577926636,-0.38576093316078186,0.8946664929389954,0.38700103759765625,0.6245816946029663,-0.7934609055519104,0.8885858654975891,0.6691733598709106,0.6962494850158691,-0.4705762565135956,0.9063671827316284,0.3957720994949341,0.6085634231567383,-0.8660354018211365,0.8962838053703308,0.6578891277313232,0.6869643330574036,-0.3461143672466278,0.9078121185302734,0.39047762751579285,0.59710294008255,-0.7396014928817749,0.8795470595359802,0.5503353476524353,0.6412290930747986,0.0356900580227375,0.9983953833580017,0.400484561920166,0.6517333388328552,-0.035509537905454636,0.9968653321266174,0.5496394634246826,0.8563387393951416,-0.0826028436422348,0.45188185572624207,0.4134822487831116,0.8478813767433167,-0.06038809195160866,0.40578365325927734,0.5586460828781128,1.0272029638290405,0.4336903989315033,0.22945241630077362,0.4300778806209564,1.0012191534042358,0.4478323757648468,0.24564233422279358,0.5482046008110046,1.0499346256256104,0.46631985902786255,0.1968957930803299,0.436218798160553,1.049677848815918,0.483836829662323,0.15007595717906952,0.5900087356567383,1.0900557041168213,0.15401731431484222,0.2289387285709381,0.4434678852558136,1.099037766456604,0.12748582661151886,0.23603597283363342
14030.899341998886,0.4852049648761749,0.27674078941345215,-0.9403740167617798,0.9999314546585083,0.4951937794685364,0.2552998661994934,-0.8959268927574158,0.9998300075531006,0.504516065120697,0.25442788004875183,-0.8960942029953003,0.9997933506965637,0.5127791166305542,0.2536790072917938,-0.8962511420249939,0.9997771382331848,0.4640442728996277,0.2571946382522583,-0.91218101978302,0.9997965693473816,0.44945889711380005,0.2575630843639374,-0.9122916460037231,0.9997614026069641,0.43650487065315247,0.25771039724349976,-0.9125092625617981,0.9997608065605164,0.5191723108291626,0.2610792815685272,-0.5709121823310852,0.9996652603149414,0.410680890083313,0.2666907012462616,-0.6553929448127747,0.999769389629364,0.5005481839179993,0.2965269386768341,-0.8118574619293213,0.9999489784240723,0.46348339319229126,0.2973337471485138,-0.8364169597625732,0.9999591112136841,0.591734766960144,0.3804823160171509,-0.30756741762161255,0.9999380111694336,0.3256659507751465,0.3785092234611511,-0.44275572896003723,0.9998608827590942,0.6137388944625854,0.5288851261138916,-0.10918629914522171,0.9620486497879028,0.2943684160709381,0.526639461517334,-0.40256884694099426,0.9768128395080566,0.6583998203277588,0.6515482664108276,-0.3747372627258301,0.9445382952690125,0.36972367763519287,0.6013996601104736,-0.6841484308242798,0.937650740146637,0.6772092580795288,0.6931660771369934,-0.45902130007743835,0.9075432419776917,0.3930901288986206,0.6250674724578857,-0.7681185603141785,0.9005308747291565,0.6667028665542603,0.6963043808937073,-0.5457932949066162,0.9172759652137756,0.40345895290374756,0.6096283793449402,-0.8381383419036865,0.9070302844047546,0.6547358632087708,0.6862454414367676,-0.41463905572891235,0.9185161590576172,0.39750179648399353,0.5981863737106323,-0.7127243280410767,0.8906580209732056,0.5510202646255493,0.6419703960418701,0.02840232662856579,0.9984082579612732,0.4019565284252167,0.6512362957000732,-0.02823946252465248,0.9971795082092285,0.5581945776939392,0.8516805171966553,-0.0536840558052063,0.5091192126274109,0.41540849208831787,0.8488070964813232,-0.0504215806722641,0.5252062082290649,0.5570176839828491,1.0216320753097534,0.4725181460380554,0.29193758964538574,0.4286142885684967,1.0012489557266235,0.44564488530158997,0.3505813479423523,0.5457479953765869,1.0444294214248657,0.5061308145523071,0.24194006621837616,0.43709325790405273,1.0466196537017822,0.4802749752998352,0.20266085863113403,0.5909147262573242,1.0841054916381836,0.19807149469852448,0.3018079698085785,0.44157737493515015,1.0963865518569946,0.1259160041809082,0.3315378725528717
14047.566008665552,0.4836708605289459,0.27803584933280945,-0.9356409907341003,0.9999216794967651,0.49356624484062195,0.25623732805252075,-0.890978217124939,0.9998100399971008,0.502933144569397,0.2551747262477875,-0.8911396265029907,0.9997701048851013,0.5114507079124451,0.25436848402023315,-0.8912899494171143,0.9997500777244568,0.4620758593082428,0.25840359926223755,-0.9073426723480225,0.9997758269309998,0.44773516058921814,0.25878801941871643,-0.9074704647064209,0.999744713306427,0.434940367937088,0.2589518427848816,-0.907694935798645,0.9997451901435852,0.5182410478591919,0.2620888948440552,-0.5623810291290283,0.9996238946914673,0.4109053611755371,0.2677764296531677,-0.6470951437950134,0.9997615218162537,0.4987194538116455,0.29822927713394165,-0.8057349324226379,0.9999428987503052,0.4617439806461334,0.2990899980068207,-0.8303295373916626,0.9999552965164185,0.5922898054122925,0.38190871477127075,-0.2885356843471527,0.9999268054962158,0.3277626037597656,0.37915125489234924,-0.4356914162635803,0.9998563528060913,0.612471342086792,0.5298121571540833,-0.07890650629997253,0.95652174949646,0.292654812335968,0.5258311033248901,-0.39928576350212097,0.9786248803138733,0.6609311103820801,0.6520780324935913,-0.3383062779903412,0.9359261989593506,0.3680928945541382,0.6019257307052612,-0.6884474158287048,0.9392842650413513,0.6788607835769653,0.6937185525894165,-0.4202205538749695,0.8945565819740295,0.390097439289093,0.6249595284461975,-0.7722485065460205,0.9014812707901001,0.6677603721618652,0.6966071724891663,-0.5062644481658936,0.9052616357803345,0.39949193596839905,0.6103129982948303,-0.842975378036499,0.9077351093292236,0.6561472415924072,0.687075674533844,-0.37784895300865173,0.9064895510673523,0.3932141661643982,0.5986409187316895,-0.717365026473999,0.8916023969650269,0.551832914352417,0.6428120136260986,0.03598547354340553,0.9982692003250122,0.40186232328414917,0.6510434150695801,-0.03586583957076073,0.996976375579834,0.5592127442359924,0.8537057042121887,-0.0574323907494545,0.4956608712673187,0.4162253141403198,0.8475643396377563,-0.061718184500932693,0.500848114490509,0.5562729835510254,1.0245403051376343,0.4758000373840332,0.2817368805408478,0.42881742119789124,1.0036323070526123,0.44391217827796936,0.32516294717788696,0.5441675186157227,1.0470607280731201,0.5098397135734558,0.23646005988121033,0.43494632840156555,1.0484379529953003,0.47927141189575195,0.18449710309505463,0.5904867649078369,1.087420105934143,0.19747860729694366,0.28780055046081543,0.44756561517715454,1.0981566905975342,0.11833035945892334,0.31049999594688416
14064.232675332218,0.48547375202178955,0.27695462107658386,-0.9240362644195557,0.9999104738235474,0.49508506059646606,0.25449439883232117,-0.8789438009262085,0.9997962117195129,0.5041829943656921,0.2535400688648224,-0.8791134357452393,0.9997518658638,0.5126228332519531,0.25275668501853943,-0.8792750239372253,0.9997337460517883,0.4631603956222534,0.2573879659175873,-0.896866500377655,0.9997511506080627,0.44822803139686584,0.2581983804702759,-0.8969955444335938,0.9997146725654602,0.43533167243003845,0.2586996257305145,-0.8972384929656982,0.9997122883796692,0.5188812017440796,0.2609347701072693,-0.5505427718162537,0.9996119141578674,0.41031304001808167,0.2680915892124176,-0.6428293585777283,0.9997403025627136,0.500973105430603,0.2973381280899048,-0.794476330280304,0.9999411106109619,0.46389341354370117,0.2986886501312256,-0.8212205767631531,0.999951958656311,0.5914413928985596,0.38136452436447144,-0.27650806307792664,0.9999277591705322,0.3275138735771179,0.378475159406662,-0.43937522172927856,0.9998317956924438,0.6122681498527527,0.530048131942749,-0.0636540874838829,0.95620197057724,0.2948545813560486,0.5286136865615845,-0.4135228991508484,0.976030707359314,0.6606415510177612,0.6522701382637024,-0.3140730857849121,0.9423836469650269,0.3709492087364197,0.6021093726158142,-0.705782949924469,0.9320198893547058,0.6787390112876892,0.6935927867889404,-0.39436769485473633,0.9040494561195374,0.39397647976875305,0.6251088380813599,-0.7889335751533508,0.8923887014389038,0.6681480407714844,0.6967853307723999,-0.4790045917034149,0.9142382740974426,0.4030979871749878,0.6089357137680054,-0.8597694635391235,0.8992234468460083,0.656437337398529,0.6869404911994934,-0.35274404287338257,0.9147171974182129,0.39599311351776123,0.5971778035163879,-0.7347386479377747,0.8829092383384705,0.5522163510322571,0.6439513564109802,0.0421823151409626,0.9980450868606567,0.40261542797088623,0.6532482504844666,-0.042041417211294174,0.9964620471000671,0.5584486126899719,0.8523823022842407,-0.04910608008503914,0.45605894923210144,0.4170568287372589,0.8485773205757141,-0.07089708745479584,0.4461456537246704,0.5550829172134399,1.025954008102417,0.493595153093338,0.2378803789615631,0.43033185601234436,1.0036929845809937,0.4404810667037964,0.26783034205436707,0.5427123308181763,1.048313021659851,0.5285690426826477,0.21572639048099518,0.4325109124183655,1.050635576248169,0.4767093360424042,0.15736518800258636,0.5908482074737549,1.0891553163528442,0.22026485204696655,0.2411404252052307,0.45194271206855774,1.1009020805358887,0.11530336737632751,0.25878649950027466
14080.899341998884,0.48200559616088867,0.27777934074401855,-0.9611189365386963,0.9999374151229858,0.4922562837600708,0.2559162378311157,-0.9182547926902771,0.9998477697372437,0.5019591450691223,0.2549770176410675,-0.9183979630470276,0.9998177886009216,0.5109512209892273,0.25432106852531433,-0.9185593724250793,0.9998016953468323,0.4599671959877014,0.2577942907810211,-0.9326513409614563,0.9998158812522888,0.4456576108932495,0.25810879468917847,-0.9327776432037354,0.9997921586036682,0.43321406841278076,0.25828567147254944,-0.9329954981803894,0.9997904896736145,0.5190837383270264,0.2620914578437805,-0.5950759649276733,0.9997010231018066,0.4102197289466858,0.267403244972229,-0.671118438243866,0.9997910857200623,0.49755585193634033,0.29812005162239075,-0.8330045938491821,0.9999521970748901,0.45949500799179077,0.2986011505126953,-0.8550851345062256,0.9999599456787109,0.5937986969947815,0.3823406994342804,-0.3210480511188507,0.9999338388442993,0.3285819888114929,0.3785558044910431,-0.46122458577156067,0.9998623132705688,0.6125671863555908,0.5318448543548584,-0.10805496573448181,0.9605696797370911,0.2986046373844147,0.5263986587524414,-0.42608973383903503,0.9778753519058228,0.6620340943336487,0.6538548469543457,-0.3526502251625061,0.9404774308204651,0.37259501218795776,0.6033459305763245,-0.7121166586875916,0.9410252571105957,0.680862545967102,0.6962396502494812,-0.4310623109340668,0.9000499844551086,0.39226242899894714,0.6259992718696594,-0.795170783996582,0.9051758646965027,0.6700456738471985,0.6989108920097351,-0.5161656737327576,0.9104852080345154,0.4033312201499939,0.6104442477226257,-0.8643626570701599,0.9112558960914612,0.6579697728157043,0.6890789270401001,-0.3909737467765808,0.9122543334960938,0.39805570244789124,0.5994554758071899,-0.7403782606124878,0.895954966545105,0.5481818914413452,0.6450273394584656,0.031874895095825195,0.9983335137367249,0.3982240557670593,0.6529651284217834,-0.031790897250175476,0.9968205690383911,0.5454391837120056,0.8585074543952942,-0.0810394287109375,0.43691787123680115,0.41200119256973267,0.8475284576416016,-0.05905359983444214,0.42548713088035583,0.5539609789848328,1.0296940803527832,0.4320588707923889,0.2389076054096222,0.4264032244682312,1.0048542022705078,0.4370850920677185,0.26384469866752625,0.543460488319397,1.0525195598602295,0.464558482170105,0.20919179916381836,0.43359753489494324,1.052986741065979,0.4719136655330658,0.15822987258434296,0.5856493711471558,1.0927984714508057,0.15424798429012299,0.2462514191865921,0.4452691078186035,1.1033090353012085,0.11526726931333542,0.2539588510990143
14097.56600866555,0.48344001173973083,0.2783498167991638,-0.9081341028213501,0.999915361404419,0.49353188276290894,0.2556363642215729,-0.864797055721283,0.9998032450675964,0.5032326579093933,0.2545901834964752,-0.8649576902389526,0.9997658133506775,0.5119568705558777,0.25382429361343384,-0.8651257157325745,0.9997439980506897,0.46121615171432495,0.25807908177375793,-0.8806560039520264,0.9997579455375671,0.44656410813331604,0.25866013765335083,-0.8807523846626282,0.9997267127037048,0.4337630867958069,0.25909435749053955,-0.8809826970100403,0.9997196793556213,0.5193132758140564,0.2615903615951538,-0.5448322296142578,0.9996391534805298,0.40951013565063477,0.2682929039001465,-0.6279044151306152,0.9997389912605286,0.49932196736335754,0.2985650300979614,-0.7817069292068481,0.9999375343322754,0.46109873056411743,0.29967501759529114,-0.8057736158370972,0.9999480247497559,0.5920460820198059,0.3815956115722656,-0.27993980050086975,0.9999198913574219,0.32655203342437744,0.378933846950531,-0.4304351508617401,0.99982088804245,0.6103217601776123,0.5300467014312744,-0.07272728532552719,0.9498102068901062,0.29723310470581055,0.5249118804931641,-0.42320773005485535,0.9684032201766968,0.6624690294265747,0.6537937521934509,-0.3114365041255951,0.9305225014686584,0.37235939502716064,0.6035471558570862,-0.7289052605628967,0.9191610217094421,0.6809103488922119,0.694267213344574,-0.3871282935142517,0.8894713521003723,0.39223513007164,0.6261430978775024,-0.8122469782829285,0.8807899355888367,0.6703360676765442,0.6980566382408142,-0.47100701928138733,0.9011465907096863,0.4020270109176636,0.6095666289329529,-0.8810768723487854,0.8883365392684937,0.6584701538085938,0.6879851222038269,-0.34941864013671875,0.9039034247398376,0.396040678024292,0.5981301069259644,-0.7579837441444397,0.8722697496414185,0.5492589473724365,0.645535409450531,0.03819280117750168,0.9980213642120361,0.39938944578170776,0.6539782285690308,-0.038027260452508926,0.9964543581008911,0.5456703901290894,0.8583284020423889,-0.05648867413401604,0.43975934386253357,0.4142914116382599,0.8486331701278687,-0.06957951188087463,0.4389745891094208,0.5483523011207581,1.0258393287658691,0.4571024179458618,0.23484526574611664,0.4307219684123993,1.0039311647415161,0.41763004660606384,0.27026429772377014,0.5361225008964539,1.0483036041259766,0.48940369486808777,0.21797719597816467,0.4346977770328522,1.0499742031097412,0.4514997601509094,0.16004623472690582,0.5829170942306519,1.0888670682907104,0.18779976665973663,0.23374779522418976,0.4481583535671234,1.1002845764160156,0.09978088736534119,0.25130608677864075
14114.232675332216,0.48429667949676514,0.27829137444496155,-0.9041396379470825,0.9999157190322876,0.49449288845062256,0.25525104999542236,-0.860783576965332,0.9998041987419128,0.5041503310203552,0.2542676329612732,-0.860947847366333,0.9997671246528625,0.5128211379051208,0.2535221576690674,-0.8611150979995728,0.9997444748878479,0.46216490864753723,0.257892906665802,-0.8770613670349121,0.9997604489326477,0.4473038911819458,0.25861987471580505,-0.8771556615829468,0.9997289776802063,0.43440037965774536,0.2591710686683655,-0.8773850202560425,0.999721348285675,0.5199995636940002,0.2614961862564087,-0.5419018864631653,0.999640703201294,0.409530907869339,0.26856890320777893,-0.6268250346183777,0.9997460246086121,0.5002837181091309,0.29863643646240234,-0.7781493067741394,0.9999383687973022,0.46215420961380005,0.2998688220977783,-0.8027353882789612,0.9999494552612305,0.5920975208282471,0.3814884126186371,-0.2784155309200287,0.9999217987060547,0.32705989480018616,0.37864401936531067,-0.42991530895233154,0.9998252987861633,0.610368013381958,0.5303880572319031,-0.07147639244794846,0.9508329033851624,0.2970169186592102,0.5252747535705566,-0.4186597466468811,0.9701064825057983,0.6627171039581299,0.6537834405899048,-0.3112473487854004,0.9323550462722778,0.3735591173171997,0.6041250824928284,-0.7173881530761719,0.9228785634040833,0.6812182664871216,0.6941964626312256,-0.38743478059768677,0.8919888138771057,0.3931616544723511,0.6262905597686768,-0.7999299168586731,0.8847497701644897,0.6704616546630859,0.6979787945747375,-0.47082456946372986,0.9034720659255981,0.40310370922088623,0.6098034381866455,-0.8683608770370483,0.8920031189918518,0.6585401296615601,0.6879401803016663,-0.3490997850894928,0.9062257409095764,0.397257924079895,0.5985060930252075,-0.7460355758666992,0.876140296459198,0.5491558909416199,0.6461394429206848,0.03808337450027466,0.9980155229568481,0.39913004636764526,0.6543446779251099,-0.037911124527454376,0.9964228272438049,0.5463662147521973,0.8584703803062439,-0.05358797684311867,0.438721239566803,0.4139687716960907,0.8484684228897095,-0.06583470851182938,0.4396912753582001,0.5503536462783813,1.0259780883789062,0.4580436646938324,0.2334330976009369,0.42985284328460693,1.0030293464660645,0.4211826026439667,0.2686232626438141,0.5384042859077454,1.0485906600952148,0.49019068479537964,0.21752867102622986,0.434683620929718,1.0499424934387207,0.4551829993724823,0.16088080406188965,0.5851775407791138,1.088692307472229,0.19031187891960144,0.23128081858158112,0.4483248293399811,1.1000739336013794,0.10531248152256012,0.24969719350337982
14130.899341998882,0.4863327741622925,0.27778929471969604,-0.8851452469825745,0.9999048709869385,0.49591293931007385,0.2547106444835663,-0.8396720290184021,0.9997881054878235,0.5053806304931641,0.2536924481391907,-0.8398486375808716,0.9997473359107971,0.5139318108558655,0.2527792751789093,-0.8400147557258606,0.9997304081916809,0.4649302661418915,0.25740212202072144,-0.8589425683021545,0.9997277855873108,0.45006704330444336,0.2582091987133026,-0.8590578436851501,0.9996922016143799,0.43719810247421265,0.2587350010871887,-0.8592924475669861,0.9996799230575562,0.5205368399620056,0.260282039642334,-0.5123438239097595,0.9996187686920166,0.4105745851993561,0.2678721249103546,-0.6108667850494385,0.9997114539146423,0.5016680955886841,0.29785460233688354,-0.7562026977539062,0.9999366998672485,0.4653920829296112,0.2990398406982422,-0.7847382426261902,0.9999445676803589,0.5906789898872375,0.37974146008491516,-0.24238796532154083,0.9999312162399292,0.3282961845397949,0.3782116174697876,-0.4215611219406128,0.9998010993003845,0.6120188236236572,0.5282607078552246,-0.03653928264975548,0.948904275894165,0.29592829942703247,0.5275233387947083,-0.4180627167224884,0.9678969383239746,0.6638335585594177,0.651766300201416,-0.279940128326416,0.933785617351532,0.36916011571884155,0.6005437970161438,-0.7200809121131897,0.9041345119476318,0.6829544901847839,0.6930683255195618,-0.356525719165802,0.8919747471809387,0.3921377956867218,0.6236419081687927,-0.8033322095870972,0.8592348694801331,0.6716808676719666,0.6965152621269226,-0.4391365051269531,0.9035367965698242,0.39990535378456116,0.6071701645851135,-0.8744516968727112,0.8680334091186523,0.6599451899528503,0.686599850654602,-0.317878782749176,0.9045427441596985,0.3921799659729004,0.5947379469871521,-0.7502086162567139,0.8510616421699524,0.5517586469650269,0.6439816951751709,0.05196227505803108,0.9981145858764648,0.4033510386943817,0.652808427810669,-0.05181291326880455,0.9963556528091431,0.5567967891693115,0.8526095151901245,-0.04017999395728111,0.4287058711051941,0.4169361889362335,0.8470816612243652,-0.08413536101579666,0.4241655170917511,0.5520240068435669,1.025935173034668,0.4981142282485962,0.22652874886989594,0.42979729175567627,1.0029919147491455,0.42405077815055847,0.2583036422729492,0.5385196208953857,1.048076868057251,0.5328210592269897,0.22140251100063324,0.43123865127563477,1.0504664182662964,0.4596821367740631,0.15105260908603668,0.5907766222953796,1.0894744396209717,0.22854910790920258,0.2331349104642868,0.4598628282546997,1.1009066104888916,0.100019171833992,0.24753296375274658
14147.566008665548,0.4863120913505554,0.27718573808670044,-0.8411270380020142,0.9998953342437744,0.4973534941673279,0.25443482398986816,-0.7958254218101501,0.9997726082801819,0.5063195824623108,0.2537471055984497,-0.796002209186554,0.9997287392616272,0.5148817300796509,0.25312167406082153,-0.7961570620536804,0.9997137188911438,0.4664947986602783,0.25686195492744446,-0.8173478841781616,0.9997062087059021,0.4513205587863922,0.2577253580093384,-0.8174687027931213,0.9996700286865234,0.43817466497421265,0.25824564695358276,-0.8177175521850586,0.9996566772460938,0.5211367607116699,0.2613873779773712,-0.4759109616279602,0.9995904564857483,0.41047126054763794,0.2674090564250946,-0.5851173996925354,0.9996957778930664,0.5008593797683716,0.29781609773635864,-0.715328574180603,0.9999330043792725,0.46394529938697815,0.2986346185207367,-0.7468964457511902,0.9999408721923828,0.5895304083824158,0.38125061988830566,-0.21121641993522644,0.9999315738677979,0.3263222575187683,0.3792760372161865,-0.4146651029586792,0.9998059868812561,0.6115157604217529,0.5295490026473999,-0.006095890421420336,0.9466861486434937,0.29878687858581543,0.529836118221283,-0.4177767336368561,0.9680566787719727,0.6637295484542847,0.6526316404342651,-0.23728156089782715,0.9354609847068787,0.3679976463317871,0.6003615856170654,-0.7068813443183899,0.9032140970230103,0.6822881698608398,0.6940485239028931,-0.31032970547676086,0.8950099945068359,0.3905859589576721,0.6245431303977966,-0.7867971658706665,0.8598208427429199,0.6712757349014282,0.6976273655891418,-0.3891548216342926,0.9064463376998901,0.3990641236305237,0.6066395044326782,-0.8572033643722534,0.8683551549911499,0.6597132682800293,0.6875051856040955,-0.2734823226928711,0.9076505303382874,0.39205166697502136,0.5945370197296143,-0.7362671494483948,0.8528702855110168,0.5502558946609497,0.6454434394836426,0.06149786338210106,0.9979598522186279,0.4031328856945038,0.6532027125358582,-0.06134473904967308,0.9960877895355225,0.544845700263977,0.8607685565948486,-0.030068565160036087,0.3593980669975281,0.4182409644126892,0.8486599326133728,-0.10359559953212738,0.36301106214523315,0.5484322905540466,1.0258512496948242,0.4874425530433655,0.1843271702528,0.43006134033203125,1.0328569412231445,0.38355526328086853,0.21032178401947021,0.5350062251091003,1.0481386184692383,0.5204488039016724,0.1999090611934662,0.42724063992500305,1.0523889064788818,0.4172627329826355,0.1305672526359558,0.5910245776176453,1.0883997678756714,0.22776135802268982,0.19628402590751648,0.46585777401924133,1.102367877960205,0.06440801918506622,0.20535783469676971
14164.232675332214,0.4847632050514221,0.2766587734222412,-0.9262794256210327,0.9999207258224487,0.49543312191963196,0.25448763370513916,-0.8796275854110718,0.9998210072517395,0.5051482319831848,0.2538749575614929,-0.8797994256019592,0.9997779726982117,0.5139859318733215,0.2533145248889923,-0.8799514174461365,0.9997612833976746,0.46404269337654114,0.25632089376449585,-0.897230863571167,0.9997791647911072,0.4493793547153473,0.25684162974357605,-0.89735347032547,0.9997465014457703,0.4367242157459259,0.2571703791618347,-0.8975895643234253,0.9997469782829285,0.52240389585495,0.2614963948726654,-0.5447577834129333,0.9996461868286133,0.4106930196285248,0.26640990376472473,-0.6361996531486511,0.9997671246528625,0.5002566576004028,0.2970596253871918,-0.7947602868080139,0.9999475479125977,0.4629400372505188,0.2972702980041504,-0.8212602138519287,0.999957799911499,0.5917769074440002,0.38015016913414,-0.26846885681152344,0.9999258518218994,0.32715991139411926,0.37849393486976624,-0.43283921480178833,0.9998384714126587,0.6127641201019287,0.5294848084449768,-0.06001393124461174,0.9518160223960876,0.2951624393463135,0.5287812948226929,-0.4141584634780884,0.9757615923881531,0.6631437540054321,0.651665985584259,-0.3196319341659546,0.9351821541786194,0.3688838481903076,0.6012012362480164,-0.7237697243690491,0.9292491674423218,0.6822797656059265,0.6933238506317139,-0.4014398455619812,0.8933624029159546,0.3928014636039734,0.6248824596405029,-0.810117244720459,0.8894895911216736,0.6709191799163818,0.6963673830032349,-0.48635339736938477,0.9044361114501953,0.4008784294128418,0.6083291172981262,-0.8806971311569214,0.8966043591499329,0.6592583656311035,0.686564028263092,-0.35879629850387573,0.9054384827613831,0.39355120062828064,0.5960838198661804,-0.7532278299331665,0.8798540830612183,0.5520642995834351,0.6450343132019043,0.0461544506251812,0.998134195804596,0.40273216366767883,0.6550264954566956,-0.04601121321320534,0.9966122508049011,0.5572685599327087,0.8522274494171143,-0.05086775869131088,0.43922266364097595,0.4161253571510315,0.8480608463287354,-0.08064732700586319,0.46215343475341797,0.5528725385665894,1.025451421737671,0.5119276642799377,0.23206117749214172,0.4313373863697052,1.0058356523513794,0.4438970386981964,0.2768474221229553,0.5393792986869812,1.0477573871612549,0.5489494204521179,0.2306518405675888,0.43135514855384827,1.0502054691314697,0.48121997714042664,0.1646691858768463,0.5931904911994934,1.0879435539245605,0.23838041722774506,0.24446524679660797,0.45821553468704224,1.101041316986084,0.11476960778236389,0.26596710085868835
14180.89934199888,0.48621079325675964,0.27824386954307556,-0.9481112360954285,0.999943733215332,0.49725961685180664,0.2561669647693634,-0.9042282700538635,0.9998706579208374,0.507422685623169,0.25543156266212463,-0.9043896198272705,0.999839186668396,0.5162086486816406,0.2547542452812195,-0.9045590758323669,0.9998257756233215,0.46581295132637024,0.25743383169174194,-0.920198917388916,0.9998447895050049,0.4512847065925598,0.25763341784477234,-0.9203059673309326,0.99982088804245,0.4387262165546417,0.2576057016849518,-0.9205220341682434,0.9998235106468201,0.524914026260376,0.2619338929653168,-0.5758657455444336,0.9997424483299255,0.412161648273468,0.2665078341960907,-0.6596571207046509,0.9998413324356079,0.5017520785331726,0.29828453063964844,-0.8180809617042542,0.9999618530273438,0.46465131640434265,0.29833510518074036,-0.8423128128051758,0.9999706745147705,0.5932389497756958,0.37966665625572205,-0.30399951338768005,0.9999363422393799,0.32493603229522705,0.37853357195854187,-0.445194274187088,0.9998748302459717,0.6131404042243958,0.5295592546463013,-0.09632112830877304,0.9591727256774902,0.29299646615982056,0.5278562307357788,-0.4104825258255005,0.9803080558776855,0.6646985411643982,0.652241051197052,-0.3623902499675751,0.9386646747589111,0.3687322735786438,0.6022515296936035,-0.704389214515686,0.9424071311950684,0.682619571685791,0.6938198208808899,-0.447092741727829,0.8976501822471619,0.38985908031463623,0.6254829168319702,-0.789150059223175,0.9065892696380615,0.6717382073402405,0.6968116164207458,-0.5336154699325562,0.9086665511131287,0.3993243873119354,0.6090570092201233,-0.8597068190574646,0.9129561185836792,0.6606086492538452,0.6869080662727356,-0.402435839176178,0.911329448223114,0.3930775821208954,0.5970645546913147,-0.7332839369773865,0.8984633088111877,0.553114652633667,0.6420900225639343,0.036362163722515106,0.9980092644691467,0.4019513726234436,0.6522158980369568,-0.036190930753946304,0.9963855743408203,0.558305561542511,0.8524912595748901,-0.07355662435293198,0.446403443813324,0.4150520861148834,0.8495305776596069,-0.06988846510648727,0.4666544795036316,0.5525975227355957,1.0270761251449585,0.46795064210891724,0.22670893371105194,0.4262242317199707,1.0073527097702026,0.43261846899986267,0.2733316421508789,0.5397334694862366,1.0498343706130981,0.5032104849815369,0.22171175479888916,0.43478918075561523,1.0502729415893555,0.46802136301994324,0.16674157977104187,0.5900513529777527,1.089888095855713,0.19524924457073212,0.2304208129644394,0.45213446021080017,1.1013007164001465,0.10753823071718216,0.251656174659729
14197.566008665546,0.48762017488479614,0.2794511616230011,-0.9642531275749207,0.9999263286590576,0.498769074678421,0.25726184248924255,-0.9205512404441833,0.9998219609260559,0.5086703300476074,0.2564561069011688,-0.9207049608230591,0.9997767806053162,0.5172922611236572,0.25577425956726074,-0.9208570122718811,0.9997584223747253,0.46765926480293274,0.2584948241710663,-0.9384056925773621,0.999796450138092,0.4530210793018341,0.25853121280670166,-0.9385403394699097,0.9997654557228088,0.44057607650756836,0.25844550132751465,-0.9387730360031128,0.9997733235359192,0.5247074365615845,0.2628006041049957,-0.5910062789916992,0.9996349811553955,0.4123193621635437,0.26696377992630005,-0.6827855110168457,0.999795138835907,0.5026159882545471,0.2996040880680084,-0.8333269953727722,0.9999475479125977,0.4660246968269348,0.2995189130306244,-0.8599236607551575,0.9999608993530273,0.5920472145080566,0.3800109326839447,-0.3120478689670563,0.999927282333374,0.32217782735824585,0.37962955236434937,-0.46776342391967773,0.9998812675476074,0.6135270595550537,0.530236542224884,-0.10226001590490341,0.9574188590049744,0.29495829343795776,0.529362678527832,-0.4208751618862152,0.9813219308853149,0.6603285670280457,0.6515393853187561,-0.3705747723579407,0.9330464005470276,0.37198641896247864,0.6034790873527527,-0.6970024704933167,0.9437451362609863,0.679238498210907,0.6943888664245605,-0.4549189805984497,0.8887221813201904,0.39438390731811523,0.6257781386375427,-0.7802711725234985,0.9068230986595154,0.6694769859313965,0.6974080204963684,-0.5416393876075745,0.9003837704658508,0.40464624762535095,0.6091695427894592,-0.8521549701690674,0.9132084846496582,0.6575261950492859,0.6865127682685852,-0.4109175503253937,0.9027778506278992,0.39876383543014526,0.5980657339096069,-0.7257435917854309,0.8979900479316711,0.5533923506736755,0.641636073589325,0.035883817821741104,0.9978235960006714,0.4026873707771301,0.6522200703620911,-0.035715315490961075,0.9965810179710388,0.5563817620277405,0.8509775400161743,-0.0442025363445282,0.47241878509521484,0.4154020845890045,0.8493698239326477,-0.06761284917593002,0.49424996972084045,0.5554863214492798,1.0229921340942383,0.49178457260131836,0.2555212080478668,0.42776620388031006,1.0035163164138794,0.4255876839160919,0.30669599771499634,0.5437187552452087,1.0454580783843994,0.5261748433113098,0.22603128850460052,0.43260711431503296,1.0496864318847656,0.4596119821071625,0.1800684779882431,0.591423511505127,1.085785150527954,0.21533222496509552,0.2619067430496216,0.4444984793663025,1.1005347967147827,0.09604154527187347,0.2868393063545227
14214.232675332212,0.4887550473213196,0.27798688411712646,-0.9430360794067383,0.9999198913574219,0.5001887083053589,0.2558709681034088,-0.8986294865608215,0.9998123049736023,0.5097975730895996,0.2552385926246643,-0.8987886905670166,0.9997658133506775,0.5183566212654114,0.2546524107456207,-0.8989410996437073,0.9997475743293762,0.4691093862056732,0.257046103477478,-0.9176673889160156,0.9997817873954773,0.4543970227241516,0.2571842074394226,-0.9178088903427124,0.9997493624687195,0.44175317883491516,0.25733232498168945,-0.9180501103401184,0.9997537732124329,0.5248808860778809,0.2621943950653076,-0.5704673528671265,0.9996283054351807,0.4129853844642639,0.26612019538879395,-0.6681270003318787,0.9997803568840027,0.5030004382133484,0.2984376847743988,-0.8131272792816162,0.9999443292617798,0.46705469489097595,0.2984628975391388,-0.8414342403411865,0.9999575614929199,0.5906982421875,0.37890544533729553,-0.2943284809589386,0.9999277591705322,0.32453617453575134,0.37809115648269653,-0.4632481038570404,0.9998703002929688,0.6116724014282227,0.529646635055542,-0.08292750269174576,0.9565325975418091,0.29591885209083557,0.5276774168014526,-0.43013128638267517,0.9796309471130371,0.6598560810089111,0.6521061658859253,-0.33902686834335327,0.9367180466651917,0.36986684799194336,0.6023074984550476,-0.7097058892250061,0.9369187951087952,0.678453803062439,0.6934137344360352,-0.41974642872810364,0.8939948081970215,0.3915289044380188,0.625325620174408,-0.7923899292945862,0.89761883020401,0.6693362593650818,0.6963599324226379,-0.5049375295639038,0.9051337838172913,0.40180909633636475,0.6093763113021851,-0.8636061549186707,0.9043600559234619,0.6574031114578247,0.68558269739151,-0.378325879573822,0.906580924987793,0.39614951610565186,0.5978736877441406,-0.7384682297706604,0.8886038661003113,0.5520281195640564,0.6413064002990723,0.04125412926077843,0.9978194236755371,0.40179580450057983,0.6509860754013062,-0.04108765721321106,0.9965344667434692,0.5562467575073242,0.8513581156730652,-0.03476586565375328,0.46436017751693726,0.4155171811580658,0.8487957715988159,-0.07488655298948288,0.4896728992462158,0.5559952855110168,1.0224756002426147,0.498319149017334,0.25101831555366516,0.42902672290802,1.0032222270965576,0.414477676153183,0.3050241768360138,0.5437980890274048,1.045155644416809,0.5324883460998535,0.22943179309368134,0.43324974179267883,1.0506209135055542,0.4481331408023834,0.17889945209026337,0.5952397584915161,1.085065484046936,0.2262381911277771,0.2586052119731903,0.4492487907409668,1.1013340950012207,0.08538202196359634,0.28542253375053406
14230.899341998878,0.48910149931907654,0.27665138244628906,-0.9322792291641235,0.9999144077301025,0.5010084509849548,0.255012184381485,-0.8863687515258789,0.9998027682304382,0.5105931162834167,0.2544957995414734,-0.8865230083465576,0.9997511506080627,0.5194589495658875,0.253958135843277,-0.8866662979125977,0.99973064661026,0.470115065574646,0.25613442063331604,-0.9070144891738892,0.9997715353965759,0.4554533362388611,0.25635382533073425,-0.9071535468101501,0.9997400641441345,0.4427170753479004,0.25636035203933716,-0.9074032306671143,0.99974125623703,0.526075005531311,0.2617577016353607,-0.5570433735847473,0.9995964169502258,0.41402626037597656,0.26479408144950867,-0.6625030040740967,0.99977046251297,0.5036824345588684,0.2971504032611847,-0.80269455909729,0.9999432563781738,0.4662051200866699,0.29686665534973145,-0.8332157731056213,0.9999570846557617,0.5901704430580139,0.3804577589035034,-0.28004753589630127,0.9999222755432129,0.32514840364456177,0.3792857229709625,-0.46830832958221436,0.9998555183410645,0.6104164123535156,0.5298065543174744,-0.0673108696937561,0.9520686268806458,0.29760706424713135,0.5294032096862793,-0.4501004219055176,0.978596568107605,0.6645818948745728,0.6522125601768494,-0.32196369767189026,0.9345677495002747,0.37185123562812805,0.6021841168403625,-0.7368842959403992,0.9371693134307861,0.6826500296592712,0.6943566799163818,-0.40130284428596497,0.8908089399337769,0.3936291038990021,0.6257312297821045,-0.8209842443466187,0.8993302583694458,0.6724472045898438,0.6969224810600281,-0.4845077395439148,0.9023981094360352,0.4039316773414612,0.6085768342018127,-0.8906757831573486,0.9057360887527466,0.6608989834785461,0.6864339113235474,-0.36059892177581787,0.9041556715965271,0.39792680740356445,0.5971152782440186,-0.765284538269043,0.8899184465408325,0.5518820285797119,0.643242597579956,0.04925511032342911,0.9980279803276062,0.401145339012146,0.653064489364624,-0.049113836139440536,0.9966434240341187,0.5567301511764526,0.8505653142929077,-0.02525072544813156,0.4367944300174713,0.41469356417655945,0.8470115065574646,-0.06934933364391327,0.44873321056365967,0.553469181060791,1.0213003158569336,0.5254238247871399,0.22566133737564087,0.42899906635284424,1.0073069334030151,0.44967883825302124,0.2711891829967499,0.5404982566833496,1.0436781644821167,0.5614900588989258,0.22379285097122192,0.42831116914749146,1.0472666025161743,0.4865797162055969,0.1634754240512848,0.5936346054077148,1.0843100547790527,0.25723502039909363,0.2374221235513687,0.4516814649105072,1.098480463027954,0.12475865334272385,0.2610369622707367
14247.566008665544,0.48765677213668823,0.2783659100532532,-0.8859091997146606,0.9998924732208252,0.4995832145214081,0.25697481632232666,-0.839775025844574,0.9997580647468567,0.5094847679138184,0.2563682496547699,-0.8399509787559509,0.9997075200080872,0.5182785391807556,0.2559451162815094,-0.8401105403900146,0.9996845722198486,0.468899667263031,0.25753381848335266,-0.8611214756965637,0.9997091889381409,0.45444467663764954,0.25735074281692505,-0.861254096031189,0.99967360496521,0.44220349192619324,0.25719231367111206,-0.86150723695755,0.999670147895813,0.5257810950279236,0.2630464732646942,-0.5119640827178955,0.9995400905609131,0.41475680470466614,0.2655174136161804,-0.6202556490898132,0.9997132420539856,0.5016476511955261,0.2992255985736847,-0.7567975521087646,0.9999302625656128,0.46466225385665894,0.29877597093582153,-0.7881138920783997,0.9999454021453857,0.5909973382949829,0.37941819429397583,-0.2418195754289627,0.999920129776001,0.3245208263397217,0.38037291169166565,-0.428764671087265,0.9998261332511902,0.6118666529655457,0.5302841067314148,-0.02817787602543831,0.9482784867286682,0.2963399291038513,0.5280420780181885,-0.404609352350235,0.9745423197746277,0.6650201082229614,0.6523253917694092,-0.2834330201148987,0.9272997975349426,0.3696623146533966,0.601722002029419,-0.6876781582832336,0.9251397848129272,0.6824886798858643,0.6928024888038635,-0.3630790412425995,0.8828979730606079,0.3907308876514435,0.6245189309120178,-0.7693881392478943,0.8852304816246033,0.6720885038375854,0.6961601972579956,-0.44553422927856445,0.8954877853393555,0.40040716528892517,0.6069626212120056,-0.8409709334373474,0.8926721215248108,0.6611292958259583,0.6860229969024658,-0.3218556046485901,0.8982445597648621,0.39455243945121765,0.5957204699516296,-0.7167108058929443,0.8765423893928528,0.5505838394165039,0.6452038884162903,0.05222707986831665,0.9977922439575195,0.4013897478580475,0.6553989052772522,-0.052045680582523346,0.9959768652915955,0.556021511554718,0.8525416254997253,-0.044491928070783615,0.39264360070228577,0.4160064160823822,0.8499658107757568,-0.08226137608289719,0.38654401898384094,0.5490090250968933,1.0278112888336182,0.5020660758018494,0.19260676205158234,0.43175575137138367,1.0326827764511108,0.43776458501815796,0.22380372881889343,0.5358957648277283,1.0498342514038086,0.5378326177597046,0.20095042884349823,0.4315575063228607,1.0516612529754639,0.47486236691474915,0.13896098732948303,0.5867244005203247,1.0917023420333862,0.23578213155269623,0.20059067010879517,0.4601491391658783,1.1031956672668457,0.11592340469360352,0.2170550525188446
14264.23267533221,0.4875878095626831,0.2788147032260895,-0.8941070437431335,0.9998953342437744,0.4998067319393158,0.25743696093559265,-0.8490044474601746,0.9997624754905701,0.5097216963768005,0.25686758756637573,-0.8491744995117188,0.9997113347053528,0.5185878276824951,0.256502240896225,-0.8493282794952393,0.9996849298477173,0.46888160705566406,0.25784164667129517,-0.8699246048927307,0.9997170567512512,0.45433658361434937,0.257621169090271,-0.8700501918792725,0.9996836185455322,0.4420475959777832,0.25742673873901367,-0.8703025579452515,0.999680757522583,0.526151180267334,0.26342976093292236,-0.5216148495674133,0.9995458722114563,0.4147709012031555,0.2656366527080536,-0.6279811859130859,0.9997289776802063,0.501587986946106,0.29975175857543945,-0.7648125290870667,0.9999314546585083,0.4643350839614868,0.2992892563343048,-0.7955332398414612,0.9999480247497559,0.590401828289032,0.3794156312942505,-0.24569015204906464,0.9999181032180786,0.3249782919883728,0.3799617290496826,-0.4375646412372589,0.9998437166213989,0.6115570068359375,0.5301598906517029,-0.029980437830090523,0.9462130069732666,0.2972715198993683,0.5288483500480652,-0.4153878390789032,0.9761053323745728,0.6639370322227478,0.6518440842628479,-0.28376665711402893,0.9254652857780457,0.37113991379737854,0.6022785305976868,-0.6984579563140869,0.9283382892608643,0.6817481517791748,0.6927596926689148,-0.36304205656051636,0.8799604177474976,0.3920934796333313,0.6248810887336731,-0.7804139256477356,0.8892672061920166,0.6715332865715027,0.6960905194282532,-0.4453376233577728,0.8926695585250854,0.4015647768974304,0.6074469685554504,-0.8518882989883423,0.8963011503219604,0.6604229211807251,0.6857384443283081,-0.32215961813926697,0.895637035369873,0.39622941613197327,0.5964740514755249,-0.727415144443512,0.880716860294342,0.5498796105384827,0.6457881331443787,0.056081607937812805,0.9977293610572815,0.4015994071960449,0.6553888320922852,-0.05589978024363518,0.9961110949516296,0.5556485056877136,0.8518053293228149,-0.030921684578061104,0.38635340332984924,0.41720128059387207,0.8481901288032532,-0.08812025934457779,0.40925222635269165,0.5491873621940613,1.0255470275878906,0.514738142490387,0.19653867185115814,0.43262046575546265,1.0322397947311401,0.42373910546302795,0.23664326965808868,0.5351464152336121,1.047817349433899,0.5505949854850769,0.21495383977890015,0.43146035075187683,1.051385760307312,0.46006038784980774,0.14773474633693695,0.5912926197052002,1.0886204242706299,0.2515168786048889,0.20591217279434204,0.4640677273273468,1.1024901866912842,0.10061287134885788,0.2237701565027237
14280.899341998876,0.49012377858161926,0.2780964970588684,-0.8857994675636292,0.9999305009841919,0.5008998513221741,0.25677672028541565,-0.8399076461791992,0.9998431205749512,0.5105764269828796,0.25613853335380554,-0.84007328748703,0.9998086094856262,0.5190596580505371,0.2556873559951782,-0.8402243852615356,0.9997925162315369,0.4709014892578125,0.2575070261955261,-0.8613723516464233,0.9998101592063904,0.45635873079299927,0.2574460506439209,-0.8615042567253113,0.9997866749763489,0.44407403469085693,0.2575386166572571,-0.8617337346076965,0.9997840523719788,0.5253469347953796,0.2626939117908478,-0.514704167842865,0.9997027516365051,0.4152050316333771,0.26609131693840027,-0.6247218251228333,0.9998137354850769,0.5038378834724426,0.298772931098938,-0.7577851414680481,0.9999533891677856,0.4681260883808136,0.29859933257102966,-0.7895724177360535,0.9999632835388184,0.5928679704666138,0.3800637722015381,-0.25127795338630676,0.9999394416809082,0.3255777359008789,0.3801482915878296,-0.4296501874923706,0.9998587369918823,0.6130341291427612,0.5292519927024841,-0.034970108419656754,0.9568477869033813,0.29743194580078125,0.529733419418335,-0.40534403920173645,0.9799879789352417,0.6660345792770386,0.6537503600120544,-0.28362539410591125,0.9449465274810791,0.368661105632782,0.6009182929992676,-0.6895567774772644,0.9444096088409424,0.6830155849456787,0.6951417922973633,-0.36244285106658936,0.9083235859870911,0.38907259702682495,0.6228148341178894,-0.7708407640457153,0.9125727415084839,0.6713990569114685,0.6981022357940674,-0.4449041187763214,0.918070375919342,0.3984788656234741,0.6039082407951355,-0.8405768275260925,0.9182511568069458,0.6608405709266663,0.6884164214134216,-0.3213897943496704,0.9201038479804993,0.3927273750305176,0.5927565693855286,-0.7176542282104492,0.9041242003440857,0.5530195236206055,0.6468009948730469,0.04578295722603798,0.9982494711875916,0.4031054973602295,0.6554158329963684,-0.045609816908836365,0.9967358708381653,0.5569168925285339,0.8563752174377441,-0.050808802247047424,0.37547120451927185,0.41752341389656067,0.8534106612205505,-0.08519008010625839,0.38664376735687256,0.5443235635757446,1.0293396711349487,0.4918976128101349,0.1843818873167038,0.43110930919647217,1.0118215084075928,0.41980013251304626,0.22573435306549072,0.5303955674171448,1.0514781475067139,0.527902364730835,0.2101256549358368,0.4334413707256317,1.0520472526550293,0.45611143112182617,0.1422371119260788,0.5833841562271118,1.0928096771240234,0.2360079437494278,0.19795289635658264,0.4583318531513214,1.1044294834136963,0.10565852373838425,0.21915723383426666
14297.566008665543,0.4901488721370697,0.278276264667511,-0.8905084133148193,0.9999103546142578,0.5013381242752075,0.2568129897117615,-0.845210075378418,0.999792754650116,0.5108968615531921,0.25626540184020996,-0.8453648686408997,0.999747097492218,0.5194509029388428,0.25587165355682373,-0.8454983830451965,0.9997239708900452,0.4713306427001953,0.2575240433216095,-0.8677721619606018,0.9997596144676208,0.4569062888622284,0.25751399993896484,-0.8679158687591553,0.9997335076332092,0.44448408484458923,0.25758957862854004,-0.8681626915931702,0.9997333884239197,0.5257524251937866,0.2630363702774048,-0.5195660591125488,0.9995924830436707,0.41530656814575195,0.2658710181713104,-0.6332464218139648,0.9997767806053162,0.503460705280304,0.29915767908096313,-0.7620741724967957,0.9999431371688843,0.4678322374820709,0.2989106774330139,-0.7948668003082275,0.9999582767486572,0.5922694802284241,0.3796745240688324,-0.243981271982193,0.9999300241470337,0.32439836859703064,0.3796403706073761,-0.4465547800064087,0.9998748302459717,0.6122410297393799,0.5289221405982971,-0.02527441456913948,0.9521930813789368,0.29765525460243225,0.5296683311462402,-0.4158943295478821,0.9824258089065552,0.6650296449661255,0.6519582867622375,-0.2817217707633972,0.9376141428947449,0.37019190192222595,0.6009202003479004,-0.6854602098464966,0.9462278485298157,0.6824279427528381,0.692420244216919,-0.3617111146450043,0.8973000645637512,0.3917080760002136,0.6237096786499023,-0.7660064101219177,0.9131283760070801,0.6717436909675598,0.6954421997070312,-0.4433121085166931,0.9082226753234863,0.40082693099975586,0.6053036451339722,-0.8380283117294312,0.9186893105506897,0.6610404253005981,0.6855149269104004,-0.3199535608291626,0.9099184274673462,0.3947486877441406,0.5936045050621033,-0.7141004800796509,0.9048709273338318,0.5513696074485779,0.6456068754196167,0.059010427445173264,0.9978812336921692,0.4034353494644165,0.6549403667449951,-0.058855343610048294,0.9964248538017273,0.5576885342597961,0.8521914482116699,-0.02144954353570938,0.4050264358520508,0.4191780388355255,0.8486712574958801,-0.08862779289484024,0.4279668927192688,0.5514912605285645,1.025258183479309,0.5149545073509216,0.2117338925600052,0.43231913447380066,1.004837155342102,0.4181153476238251,0.24443618953227997,0.5373513102531433,1.0475647449493408,0.5500984191894531,0.22056208550930023,0.43241482973098755,1.0514726638793945,0.4540470838546753,0.1495276838541031,0.5943252444267273,1.0886090993881226,0.25328192114830017,0.22417497634887695,0.4695100486278534,1.1028121709823608,0.09603799879550934,0.23459361493587494
14314.232675332209,0.4909338355064392,0.2778622806072235,-0.8908615708351135,0.9999182224273682,0.5021008253097534,0.256832480430603,-0.8443360924720764,0.9998118281364441,0.5115752220153809,0.2563192546367645,-0.8444882035255432,0.9997687935829163,0.5200133323669434,0.2560410499572754,-0.8446100950241089,0.9997482895851135,0.47241324186325073,0.2571544647216797,-0.8676131963729858,0.9997742772102356,0.4579851031303406,0.2568776309490204,-0.8677582740783691,0.999748170375824,0.44571197032928467,0.25685781240463257,-0.8679963946342468,0.999745786190033,0.5255939960479736,0.2630404233932495,-0.5160505771636963,0.9996172189712524,0.41599878668785095,0.26533564925193787,-0.6337479948997498,0.9997820258140564,0.5042674541473389,0.2987072765827179,-0.7619764804840088,0.9999487400054932,0.46891340613365173,0.2982848584651947,-0.7958992123603821,0.9999619722366333,0.5912764072418213,0.37980911135673523,-0.23992152512073517,0.999937891960144,0.3260892629623413,0.37926360964775085,-0.4498191475868225,0.9998764991760254,0.6119421124458313,0.5297536849975586,-0.026534682139754295,0.9559727311134338,0.2965758442878723,0.5288517475128174,-0.42354947328567505,0.983169436454773,0.6653975248336792,0.6533861756324768,-0.29129573702812195,0.9474668502807617,0.3698561489582062,0.6003434062004089,-0.6969200372695923,0.9494761824607849,0.6825300455093384,0.6935938596725464,-0.37304478883743286,0.9101762175559998,0.3906037211418152,0.623676598072052,-0.7790511250495911,0.9174048900604248,0.6707646250724792,0.6967591643333435,-0.4550696909427643,0.9198377132415771,0.4005131721496582,0.6061389446258545,-0.8496870398521423,0.9226096868515015,0.6598416566848755,0.6870018839836121,-0.32987892627716064,0.9205763339996338,0.3947818875312805,0.5942898988723755,-0.725129246711731,0.9093143939971924,0.5508068203926086,0.6452605724334717,0.06568101048469543,0.9981274008750916,0.40321704745292664,0.6552696824073792,-0.0655568540096283,0.996780514717102,0.5566372871398926,0.8507944345474243,-0.01845679245889187,0.38822808861732483,0.41911348700523376,0.8480448722839355,-0.09869631379842758,0.4354400634765625,0.5503323674201965,1.0221705436706543,0.5314159989356995,0.20574884116649628,0.4315250515937805,1.0069652795791626,0.41810789704322815,0.2534467577934265,0.5350239872932434,1.0443521738052368,0.5680134892463684,0.22391006350517273,0.43028467893600464,1.0493886470794678,0.45488816499710083,0.1514952927827835,0.597358763217926,1.0850039720535278,0.2735770344734192,0.22877384722232819,0.4728785753250122,1.1012541055679321,0.09593725204467773,0.24707041680812836
14330.899341998875,0.4876648485660553,0.27760300040245056,-0.9279022812843323,0.9999094009399414,0.5002525448799133,0.257015585899353,-0.8811059594154358,0.9997960925102234,0.5103645324707031,0.2568886876106262,-0.8812751770019531,0.9997521042823792,0.5190613865852356,0.2569727599620819,-0.8814391493797302,0.9997338652610779,0.46897804737091064,0.25682660937309265,-0.9006222486495972,0.9997515082359314,0.4542783200740814,0.25674381852149963,-0.9007730484008789,0.999717652797699,0.441644549369812,0.25668659806251526,-0.9010222554206848,0.9997096657752991,0.5272202491760254,0.26458272337913513,-0.5494182705879211,0.9996315240859985,0.4150139391422272,0.2652200162410736,-0.650235652923584,0.9997228980064392,0.5007262825965881,0.29919111728668213,-0.7974140644073486,0.9999374151229858,0.46214747428894043,0.2989988327026367,-0.8267307877540588,0.9999446868896484,0.5939165353775024,0.3811575770378113,-0.2826668918132782,0.9999303817749023,0.3234725594520569,0.381634920835495,-0.4487907886505127,0.9998058676719666,0.6122846603393555,0.5318188071250916,-0.06421548873186111,0.9512311816215515,0.29819971323013306,0.5294654965400696,-0.45096439123153687,0.9662137627601624,0.6639870405197144,0.6540302634239197,-0.298826664686203,0.9351532459259033,0.3683531880378723,0.6010099649429321,-0.7804189324378967,0.9205743074417114,0.6817280054092407,0.6948928833007812,-0.3734891712665558,0.8970574140548706,0.3894718885421753,0.6231110692024231,-0.867286741733551,0.8863940238952637,0.6710295081138611,0.6979406476020813,-0.45678266882896423,0.9081798791885376,0.39860105514526367,0.606119692325592,-0.9363043308258057,0.8938710689544678,0.6594521999359131,0.6870871186256409,-0.33596014976501465,0.909464955329895,0.3921543061733246,0.5941469669342041,-0.8098798394203186,0.8754511475563049,0.5553666353225708,0.6460220217704773,0.03781314939260483,0.9983008503913879,0.40262576937675476,0.6571765542030334,-0.03765212371945381,0.9967330694198608,0.5574545860290527,0.853466272354126,-0.05517679452896118,0.40151849389076233,0.4176083505153656,0.8514785766601562,-0.0664307177066803,0.36310315132141113,0.5478994846343994,1.0308598279953003,0.49334222078323364,0.20489513874053955,0.43003928661346436,1.0135577917099,0.4592074453830719,0.2369837909936905,0.5365429520606995,1.0528039932250977,0.5293391346931458,0.20751319825649261,0.4337117373943329,1.055882453918457,0.4970672130584717,0.14851324260234833,0.5813895463943481,1.0952227115631104,0.22539162635803223,0.2232978492975235,0.44664981961250305,1.1086732149124146,0.13993115723133087,0.23725363612174988
14347.56600866554,0.4886164665222168,0.2780481278896332,-0.9547007083892822,0.999913215637207,0.5009861588478088,0.2572896480560303,-0.9093121290206909,0.99980229139328,0.5110315084457397,0.25707486271858215,-0.9094507694244385,0.9997571110725403,0.5194435715675354,0.2570503354072571,-0.9095934629440308,0.9997326731681824,0.4700758159160614,0.2571585774421692,-0.9300110936164856,0.9997720122337341,0.45532336831092834,0.25698330998420715,-0.9301822185516357,0.9997484087944031,0.44259852170944214,0.2568178176879883,-0.9304393529891968,0.9997449517250061,0.5270683765411377,0.26441338658332825,-0.579075038433075,0.9996297359466553,0.41566574573516846,0.26497966051101685,-0.6851742267608643,0.9997603297233582,0.5013827681541443,0.2995293438434601,-0.824312150478363,0.9999402761459351,0.4635562598705292,0.29942047595977783,-0.8551266193389893,0.9999520778656006,0.5944763422012329,0.3818691670894623,-0.30220654606819153,0.9999207258224487,0.3226114511489868,0.3824758231639862,-0.4840630888938904,0.9998314380645752,0.6115221381187439,0.533496618270874,-0.07833001017570496,0.9521438479423523,0.29945361614227295,0.5312760472297668,-0.49199673533439636,0.9737133979797363,0.6643171310424805,0.6558042764663696,-0.3157631456851959,0.9346434473991394,0.3696221113204956,0.6000398397445679,-0.8235111832618713,0.9370983242988586,0.681932806968689,0.6963233947753906,-0.3903566002845764,0.8945207595825195,0.38946402072906494,0.6226620078086853,-0.9114031195640564,0.9066072106361389,0.6708765029907227,0.6996055841445923,-0.4731161892414093,0.9055362343788147,0.3980611264705658,0.6057754158973694,-0.9793214797973633,0.9123675227165222,0.6593974828720093,0.6884557604789734,-0.35291001200675964,0.9072633981704712,0.392513245344162,0.5938263535499573,-0.8523005247116089,0.8951066136360168,0.5538650751113892,0.645788311958313,0.04338182508945465,0.9981786012649536,0.40077558159828186,0.6552673578262329,-0.04326887056231499,0.9968628883361816,0.558663010597229,0.8523116111755371,-0.037048980593681335,0.45105281472206116,0.41679513454437256,0.8488790988922119,-0.0716310441493988,0.4273253083229065,0.5525458455085754,1.0270295143127441,0.5299960374832153,0.2381342351436615,0.4319841265678406,1.0095667839050293,0.46066683530807495,0.2811114192008972,0.540777325630188,1.0484343767166138,0.5677059292793274,0.2300623208284378,0.43175315856933594,1.0531272888183594,0.49895355105400085,0.16757351160049438,0.5868646502494812,1.092893123626709,0.26261788606643677,0.2534157335758209,0.4480906128883362,1.107020378112793,0.13592608273029327,0.27037760615348816
14364.232675332207,0.49102017283439636,0.27851757407188416,-0.9396264553070068,0.9999151229858398,0.5029562711715698,0.258266806602478,-0.8930879235267639,0.9998021721839905,0.5124316215515137,0.2578172981739044,-0.8932338953018188,0.999755322933197,0.5208688974380493,0.2575356066226959,-0.8933591246604919,0.9997285008430481,0.47249144315719604,0.25842493772506714,-0.9138167500495911,0.9997780919075012,0.4574793577194214,0.25816527009010315,-0.9139965772628784,0.9997535347938538,0.44470593333244324,0.25808286666870117,-0.9142526984214783,0.9997521042823792,0.5272655487060547,0.26438722014427185,-0.5622332096099854,0.9996256828308105,0.4158909320831299,0.26606935262680054,-0.6679785847663879,0.9997733235359192,0.5036464333534241,0.29988646507263184,-0.8097976446151733,0.9999399185180664,0.466661274433136,0.30036661028862,-0.8404256105422974,0.9999535083770752,0.5944557189941406,0.3828047811985016,-0.28921952843666077,0.9999216794967651,0.3241630792617798,0.3851475119590759,-0.47161853313446045,0.9998451471328735,0.612876832485199,0.5334690809249878,-0.0658293217420578,0.9523206353187561,0.29844552278518677,0.532065749168396,-0.4764077365398407,0.9771551489830017,0.662751317024231,0.6549372673034668,-0.30562686920166016,0.9375666975975037,0.36784446239471436,0.6009247303009033,-0.8041419386863708,0.9435438513755798,0.6803632974624634,0.6950865983963013,-0.3805970847606659,0.8997856378555298,0.3875500559806824,0.6238991618156433,-0.8920541405677795,0.9141258001327515,0.6698101162910461,0.6978967189788818,-0.463603675365448,0.9101822376251221,0.39798757433891296,0.6065124869346619,-0.9598283767700195,0.9194163084030151,0.6586304306983948,0.6870753169059753,-0.34284743666648865,0.9116785526275635,0.3918648660182953,0.5944663882255554,-0.8326579332351685,0.9026742577552795,0.5565255284309387,0.6503801941871643,0.04305502027273178,0.9984103441238403,0.40269935131073,0.6604809761047363,-0.042933687567710876,0.9973738193511963,0.5597098469734192,0.8570032119750977,-0.024565402418375015,0.4381251931190491,0.4195546507835388,0.8571276068687439,-0.06398412585258484,0.4419422447681427,0.558174192905426,1.0258311033248901,0.5295150876045227,0.2502369284629822,0.43204185366630554,1.0130501985549927,0.46286752820014954,0.2925781011581421,0.546430766582489,1.0476367473602295,0.5661090016365051,0.2448461651802063,0.4334539771080017,1.0534310340881348,0.5009240508079529,0.17485840618610382,0.5967284440994263,1.089296579360962,0.26251909136772156,0.27405184507369995,0.44818243384361267,1.1072161197662354,0.1403973400592804,0.2870975434780121
14380.899341998873,0.491822212934494,0.2794671058654785,-0.9277120232582092,0.9999070167541504,0.5034974813461304,0.2593817114830017,-0.8807700872421265,0.9997807145118713,0.5128474235534668,0.2588861882686615,-0.8809257745742798,0.9997302889823914,0.5213243365287781,0.2584824860095978,-0.8810542821884155,0.9997001886367798,0.47300419211387634,0.25943997502326965,-0.90179842710495,0.9997544884681702,0.4579658806324005,0.25901341438293457,-0.9019837379455566,0.9997285008430481,0.4451174736022949,0.2588023841381073,-0.9022468328475952,0.9997261166572571,0.5271261930465698,0.26472944021224976,-0.5488530397415161,0.9995915293693542,0.41617000102996826,0.26641547679901123,-0.655815839767456,0.9997524619102478,0.5040603280067444,0.3009568154811859,-0.7974624037742615,0.9999340772628784,0.46775826811790466,0.3013307750225067,-0.8284629583358765,0.9999483823776245,0.5948480367660522,0.38386717438697815,-0.27725332975387573,0.9999182224273682,0.32435643672943115,0.38457417488098145,-0.4604277014732361,0.9998408555984497,0.6130131483078003,0.5346508622169495,-0.0578618049621582,0.9517834186553955,0.2998388111591339,0.5309380888938904,-0.4680096209049225,0.9757510423660278,0.6628816723823547,0.6560867428779602,-0.30376848578453064,0.9346523880958557,0.3665890097618103,0.6013577580451965,-0.8008583784103394,0.9407695531845093,0.6801260709762573,0.6959815621376038,-0.37965476512908936,0.8959938287734985,0.3862028419971466,0.6236997246742249,-0.8898395299911499,0.9109700918197632,0.6695514917373657,0.699083685874939,-0.4631584584712982,0.9067964553833008,0.39637291431427,0.6056029796600342,-0.9589865207672119,0.9167382717132568,0.6582858562469482,0.6881496906280518,-0.34148600697517395,0.9082523584365845,0.39012646675109863,0.5937886834144592,-0.8302539587020874,0.8999934196472168,0.5560134649276733,0.649767279624939,0.04215718433260918,0.9983716607093811,0.40275901556015015,0.659903883934021,-0.04201856628060341,0.9973803162574768,0.5588327646255493,0.8581957817077637,-0.02648070827126503,0.4554519057273865,0.4195648729801178,0.8581410050392151,-0.06480756402015686,0.4446198344230652,0.557884931564331,1.0255926847457886,0.5256829857826233,0.2615745961666107,0.43093961477279663,1.0346076488494873,0.4600975513458252,0.30253955721855164,0.5464760661125183,1.0472862720489502,0.561844527721405,0.24810582399368286,0.434468150138855,1.0531153678894043,0.4975517988204956,0.17882248759269714,0.5945660471916199,1.0893796682357788,0.256087064743042,0.2819775938987732,0.4450497627258301,1.106835961341858,0.1351291984319687,0.29606539011001587
14397.566008665539,0.49299493432044983,0.27897852659225464,-0.8916527032852173,0.9998984336853027,0.5048904418945312,0.2590526044368744,-0.8444153070449829,0.9997674822807312,0.5141655802726746,0.25859326124191284,-0.8445903062820435,0.9997135996818542,0.5227563381195068,0.25824272632598877,-0.8447423577308655,0.9996911287307739,0.47432225942611694,0.2590501308441162,-0.8673993349075317,0.9997301697731018,0.45928189158439636,0.25861793756484985,-0.8675755262374878,0.9996936321258545,0.4463098347187042,0.2584345042705536,-0.8678411841392517,0.9996854066848755,0.5281293988227844,0.26469072699546814,-0.5153483152389526,0.9995809197425842,0.4166162610054016,0.2660009562969208,-0.6313288807868958,0.9997164607048035,0.5052990913391113,0.300371915102005,-0.7624552249908447,0.9999316930770874,0.4688703715801239,0.3004280626773834,-0.7961327433586121,0.9999425411224365,0.5932148694992065,0.3830087184906006,-0.24966055154800415,0.9999266862869263,0.32647502422332764,0.38326185941696167,-0.4436015784740448,0.9998123049736023,0.6109470129013062,0.5326887965202332,-0.030316278338432312,0.9534187316894531,0.30032819509506226,0.5299551486968994,-0.45827776193618774,0.9709045886993408,0.6613702774047852,0.6551337242126465,-0.2645745575428009,0.9407521486282349,0.367907851934433,0.6000645160675049,-0.7883927226066589,0.9337899088859558,0.6781951785087585,0.6957823634147644,-0.3381391167640686,0.9041500091552734,0.38718652725219727,0.6219255924224854,-0.8761952519416809,0.9026714563369751,0.6673756837844849,0.6991409063339233,-0.4207489788532257,0.9146183729171753,0.3968229591846466,0.6053490042686462,-0.9443920850753784,0.90899258852005,0.6561331152915955,0.687441349029541,-0.30165812373161316,0.9153306484222412,0.39094293117523193,0.5938207507133484,-0.8174455165863037,0.8909735679626465,0.5531905889511108,0.647462010383606,0.04400206729769707,0.9985098242759705,0.4014072120189667,0.657661497592926,-0.04386603459715843,0.9972794651985168,0.5578559637069702,0.8598105907440186,-0.044060565531253815,0.4519432783126831,0.41939955949783325,0.8608683347702026,-0.06626230478286743,0.3891138434410095,0.5609543323516846,1.0269933938980103,0.49948030710220337,0.24036015570163727,0.42929697036743164,1.0339970588684082,0.46329358220100403,0.2670074701309204,0.5502279996871948,1.048792839050293,0.5349203944206238,0.22760751843452454,0.43377000093460083,1.0526117086410522,0.5013262033462524,0.15744508802890778,0.5966641902923584,1.0906840562820435,0.22946497797966003,0.2567383944988251,0.4415602684020996,1.105450987815857,0.14152561128139496,0.2688415050506592
14414.232675332205,0.49285370111465454,0.2790561616420746,-0.9312092065811157,0.99992835521698,0.5044825673103333,0.2588023245334625,-0.8840444684028625,0.9998319149017334,0.5138453245162964,0.25823381543159485,-0.8841950297355652,0.9997913241386414,0.5223835110664368,0.25779271125793457,-0.8843217492103577,0.9997698664665222,0.4742637574672699,0.2591487169265747,-0.9056909084320068,0.9998133778572083,0.4592837989330292,0.25885963439941406,-0.9058733582496643,0.9997919201850891,0.44635438919067383,0.2587709128856659,-0.9061176776885986,0.9997891783714294,0.5283429026603699,0.2643815875053406,-0.5522785782814026,0.9996819496154785,0.4165390729904175,0.2664555609226227,-0.6623393893241882,0.9998112320899963,0.5051171779632568,0.30048468708992004,-0.8011981248855591,0.9999483823776245,0.4691915810108185,0.30083006620407104,-0.8331076502799988,0.9999605417251587,0.5937057733535767,0.38253483176231384,-0.2816421389579773,0.9999299049377441,0.3252792954444885,0.3846172094345093,-0.4661210775375366,0.9998599290847778,0.6115356087684631,0.5331129431724548,-0.05913383141160011,0.9577832818031311,0.29778343439102173,0.5309948325157166,-0.46687063574790955,0.9789546728134155,0.6610444784164429,0.6562147736549377,-0.2981901168823242,0.9435938596725464,0.3656347393989563,0.6012009382247925,-0.7883226871490479,0.9468492269515991,0.6779348850250244,0.6959148645401001,-0.3736627697944641,0.9067009091377258,0.38577210903167725,0.6235085129737854,-0.87611323595047,0.9174198508262634,0.6677863597869873,0.6994238495826721,-0.45707300305366516,0.9164616465568542,0.3961343467235565,0.6053770184516907,-0.9443838596343994,0.9226299524307251,0.6567531228065491,0.6882971525192261,-0.3356093764305115,0.9173216819763184,0.3898499310016632,0.5938518643379211,-0.8169521689414978,0.906419038772583,0.5552916526794434,0.6481493711471558,0.04288429766893387,0.9984551668167114,0.40300822257995605,0.6583894491195679,-0.042758964002132416,0.9974876642227173,0.5586256384849548,0.8534603118896484,-0.013234366662800312,0.4585886001586914,0.4206016957759857,0.8562977313995361,-0.05723891779780388,0.4606058597564697,0.5622504949569702,1.0244073867797852,0.5294731259346008,0.26272282004356384,0.4309913218021393,1.0334190130233765,0.4602213203907013,0.31277236342430115,0.5504782795906067,1.0466883182525635,0.5648796558380127,0.2543180286884308,0.43400686979293823,1.0522480010986328,0.49728888273239136,0.18464404344558716,0.6021528840065002,1.0871473550796509,0.2636105716228485,0.28558528423309326,0.44719547033309937,1.1048760414123535,0.1388523429632187,0.30667322874069214
14430.899341998871,0.4904833436012268,0.2773560881614685,-0.8956671953201294,0.9999227523803711,0.5025136470794678,0.2568579316139221,-0.8485997319221497,0.9998188614845276,0.5122122764587402,0.25644469261169434,-0.8487611413002014,0.9997797608375549,0.5206819176673889,0.2562156021595001,-0.848894476890564,0.9997585415840149,0.47197023034095764,0.25707751512527466,-0.8698326349258423,0.9997887015342712,0.4570315182209015,0.25695961713790894,-0.8700050115585327,0.999764621257782,0.4443294405937195,0.25696730613708496,-0.8702555298805237,0.9997561573982239,0.5274711847305298,0.2635958790779114,-0.5217236280441284,0.9996664524078369,0.4158867597579956,0.26537567377090454,-0.6296949982643127,0.9997833371162415,0.5031552910804749,0.29859641194343567,-0.7677401900291443,0.9999464750289917,0.46600133180618286,0.2986805737018585,-0.7990288734436035,0.999956488609314,0.5938588380813599,0.38232386112213135,-0.2550014555454254,0.9999366998672485,0.3260197639465332,0.38226133584976196,-0.44606542587280273,0.9998462200164795,0.6114429831504822,0.5326181054115295,-0.037880461663007736,0.9566301107406616,0.2996753454208374,0.5297900438308716,-0.4583086669445038,0.9741584658622742,0.6595910787582397,0.6548898220062256,-0.2740689218044281,0.9456471800804138,0.3667357563972473,0.6009320616722107,-0.7826156616210938,0.9364563226699829,0.6775506138801575,0.6951255202293396,-0.3485509753227234,0.9108244180679321,0.38518089056015015,0.6231462955474854,-0.8701231479644775,0.9045098423957825,0.6672754287719727,0.6981189250946045,-0.4305208921432495,0.9203948974609375,0.39549654722213745,0.6051015853881836,-0.9384196996688843,0.9103728532791138,0.6561634540557861,0.6868265867233276,-0.31096693873405457,0.9205593466758728,0.3897499442100525,0.5935319066047668,-0.811654806137085,0.8937962055206299,0.552933931350708,0.645786464214325,0.047606609761714935,0.9985742568969727,0.40168219804763794,0.6571890711784363,-0.04748319461941719,0.9974978566169739,0.5575351715087891,0.851769208908081,-0.01949567161500454,0.4657001793384552,0.41945409774780273,0.8569499254226685,-0.05822119116783142,0.4334234893321991,0.559538722038269,1.0250908136367798,0.5056384205818176,0.26767703890800476,0.4331918954849243,1.008956789970398,0.46000611782073975,0.29506611824035645,0.5480932593345642,1.047446846961975,0.5389987826347351,0.24946054816246033,0.4329592287540436,1.0515804290771484,0.4967941641807556,0.17170919477939606,0.5979442596435547,1.088344931602478,0.23566065728664398,0.2841508388519287,0.44825083017349243,1.1041971445083618,0.1392592489719391,0.2929738163948059
14447.566008665537,0.49002769589424133,0.27784013748168945,-0.8927879929542542,0.9999271631240845,0.5021901726722717,0.2576448917388916,-0.8455776572227478,0.9998351335525513,0.5119333267211914,0.25721922516822815,-0.8457409143447876,0.9997993111610413,0.5207141041755676,0.2569579482078552,-0.8458852171897888,0.9997835755348206,0.4713815152645111,0.2576621174812317,-0.8654026389122009,0.9998030066490173,0.4564546048641205,0.257351815700531,-0.865571141242981,0.9997751116752625,0.4439128339290619,0.2571636140346527,-0.8658077716827393,0.9997668862342834,0.5274625420570374,0.26389575004577637,-0.5179011821746826,0.9997038245201111,0.415738046169281,0.2650963068008423,-0.6196302771568298,0.999782383441925,0.5028058886528015,0.29897812008857727,-0.7647108435630798,0.99994957447052,0.46524882316589355,0.29877176880836487,-0.7942501306533813,0.9999563694000244,0.5938358902931213,0.38319891691207886,-0.25761571526527405,0.9999368190765381,0.3268249034881592,0.3825302720069885,-0.43076232075691223,0.999836802482605,0.6120613813400269,0.5347678065299988,-0.046575456857681274,0.9551352262496948,0.30024001002311707,0.5292785167694092,-0.4449801445007324,0.9675037860870361,0.660110354423523,0.6555546522140503,-0.2801605463027954,0.9406703114509583,0.364570289850235,0.5997762084007263,-0.7795925736427307,0.9245197772979736,0.6770188212394714,0.6958874464035034,-0.3541376292705536,0.9038565754890442,0.3838411867618561,0.6208318471908569,-0.8669804334640503,0.8919240236282349,0.6664395928382874,0.6990094780921936,-0.4360443651676178,0.9141449332237244,0.3930520713329315,0.603553295135498,-0.9347211122512817,0.898854672908783,0.655349850654602,0.6873172521591187,-0.31679007411003113,0.91487056016922,0.3866926431655884,0.5920640826225281,-0.8089584112167358,0.8807976245880127,0.551506519317627,0.6456289291381836,0.043392300605773926,0.9987347722053528,0.40119463205337524,0.6567825675010681,-0.043285686522722244,0.9977571368217468,0.556765079498291,0.8591511845588684,-0.035611364990472794,0.4489222466945648,0.41985148191452026,0.859413743019104,-0.06205016374588013,0.41974732279777527,0.5620084404945374,1.0236839056015015,0.49392762780189514,0.2532086968421936,0.43263697624206543,1.008009433746338,0.4577406048774719,0.2857609689235687,0.5510002374649048,1.045600414276123,0.5282787084579468,0.23830178380012512,0.43367844820022583,1.0495131015777588,0.49494168162345886,0.15999004244804382,0.5997243523597717,1.0864582061767578,0.22485855221748352,0.27609342336654663,0.44491222500801086,1.102110743522644,0.13967491686344147,0.28519338369369507
14464.232675332203,0.4886985421180725,0.27762576937675476,-0.9056839942932129,0.9999165534973145,0.5011956691741943,0.2572042644023895,-0.8578028082847595,0.9998094439506531,0.5112537741661072,0.25684595108032227,-0.8579756617546082,0.9997658133506775,0.520126461982727,0.2566458582878113,-0.8581233620643616,0.9997450709342957,0.46998900175094604,0.25718605518341064,-0.8768927454948425,0.9997729659080505,0.45518040657043457,0.25695666670799255,-0.8770625591278076,0.99974125623703,0.4426058530807495,0.25680431723594666,-0.8773117661476135,0.9997343420982361,0.528019368648529,0.26381978392601013,-0.5259143710136414,0.9996522665023804,0.4154602587223053,0.2648535370826721,-0.6242260932922363,0.9997513890266418,0.5019518733024597,0.2989291846752167,-0.7760100364685059,0.9999406337738037,0.4638693928718567,0.29853710532188416,-0.8046046495437622,0.9999494552612305,0.594197154045105,0.38288456201553345,-0.26141059398651123,0.9999246597290039,0.326898455619812,0.38194745779037476,-0.43106210231781006,0.9998235106468201,0.6108061075210571,0.5330811142921448,-0.05194777250289917,0.9515449404716492,0.2992534041404724,0.5295417308807373,-0.4469676613807678,0.9670559763908386,0.6594211459159851,0.6543768644332886,-0.29409146308898926,0.9364550709724426,0.365033894777298,0.599677562713623,-0.7936115860939026,0.9268283247947693,0.6766748428344727,0.6952479481697083,-0.3695974051952362,0.898316502571106,0.38531917333602905,0.6209755539894104,-0.8836950659751892,0.8943688869476318,0.6655322313308716,0.6984813213348389,-0.4526892900466919,0.9089356660842896,0.39423954486846924,0.6037209033966064,-0.9514544010162354,0.9011399149894714,0.654159426689148,0.6871688365936279,-0.33141520619392395,0.909534752368927,0.38747256994247437,0.5920591950416565,-0.8232460021972656,0.8827898502349854,0.5526559948921204,0.6458325386047363,0.0411214604973793,0.9986388087272644,0.401400089263916,0.6573193073272705,-0.041013848036527634,0.9976486563682556,0.5574941039085388,0.8597033023834229,-0.033403683453798294,0.4575599730014801,0.41985347867012024,0.8590380549430847,-0.058739498257637024,0.4331488311290741,0.5602656006813049,1.0247950553894043,0.5142554640769958,0.25747206807136536,0.43296384811401367,1.009228229522705,0.47209155559539795,0.30046966671943665,0.5489014387130737,1.0468037128448486,0.5500137209892273,0.24302898347377777,0.4352302849292755,1.0507289171218872,0.5101710557937622,0.1724855601787567,0.5979715585708618,1.0877410173416138,0.24291585385799408,0.28115934133529663,0.4443688690662384,1.1029140949249268,0.15007971227169037,0.2995346784591675
14480.89934199887,0.4903690218925476,0.27710214257240295,-0.9421284794807434,0.9999426603317261,0.5019263029098511,0.2561475932598114,-0.8974339962005615,0.9998667240142822,0.5120630264282227,0.25586146116256714,-0.8975715041160583,0.99983811378479,0.5204712152481079,0.25576546788215637,-0.8977139592170715,0.9998230338096619,0.4713945984840393,0.2561989724636078,-0.9166300296783447,0.9998425245285034,0.45676594972610474,0.25607842206954956,-0.9167776107788086,0.9998243451118469,0.44436120986938477,0.2560057044029236,-0.9170005917549133,0.9998251795768738,0.5284445881843567,0.26350632309913635,-0.5725122094154358,0.9997389912605286,0.4174301028251648,0.2647531032562256,-0.6717777252197266,0.999840259552002,0.5038553476333618,0.2984660565853119,-0.8138933181762695,0.9999607801437378,0.46665158867836,0.2981763184070587,-0.8426240086555481,0.9999703168869019,0.5957266092300415,0.3815195858478546,-0.30471426248550415,0.9999402761459351,0.3241499662399292,0.38016197085380554,-0.46860069036483765,0.9998782873153687,0.6134262681007385,0.532159686088562,-0.08972225338220596,0.959933340549469,0.2966853976249695,0.5276025533676147,-0.44561654329299927,0.9817973375320435,0.6640316247940063,0.6559934616088867,-0.3398440480232239,0.9454014897346497,0.3679892122745514,0.5996190905570984,-0.7383075952529907,0.9524328112602234,0.6813263297080994,0.6981006264686584,-0.4202876687049866,0.9091412425041199,0.38887980580329895,0.6223229169845581,-0.8228010535240173,0.9238137006759644,0.66917884349823,0.7011803388595581,-0.503200113773346,0.9183432459831238,0.39877820014953613,0.604929506778717,-0.8901256322860718,0.9286282062530518,0.6582192778587341,0.6909641027450562,-0.37770411372184753,0.9206105470657349,0.39273178577423096,0.5935836434364319,-0.7657133340835571,0.9152987003326416,0.5511186122894287,0.6452919840812683,0.041200071573257446,0.9983348250389099,0.401289165019989,0.6543452143669128,-0.04109078273177147,0.9970893263816833,0.5582892894744873,0.8539022207260132,-0.040424250066280365,0.4320930540561676,0.42008161544799805,0.8517571687698364,-0.0665259063243866,0.4452017843723297,0.5504489541053772,1.0252853631973267,0.49904581904411316,0.22936995327472687,0.4318111836910248,1.0049647092819214,0.4419145882129669,0.26855331659317017,0.5385587811470032,1.046998143196106,0.5348832011222839,0.21518675982952118,0.43861761689186096,1.0494508743286133,0.47872263193130493,0.15480154752731323,0.584648847579956,1.090181827545166,0.2372991293668747,0.24213476479053497,0.46274563670158386,1.103658676147461,0.12532898783683777,0.25772130489349365
14497.566008665535,0.49147072434425354,0.280000776052475,-0.9485766291618347,0.9999090433120728,0.5032573342323303,0.25992244482040405,-0.9043566584587097,0.999782145023346,0.5129871368408203,0.25928640365600586,-0.9045121669769287,0.9997379183769226,0.5213331580162048,0.2586947977542877,-0.9046684503555298,0.9997127652168274,0.47262847423553467,0.25997427105903625,-0.9238987565040588,0.9997439980506897,0.457401305437088,0.2593482732772827,-0.92405104637146,0.9997147917747498,0.4450837969779968,0.25886452198028564,-0.9242865443229675,0.9997159838676453,0.5276347398757935,0.2638956308364868,-0.5757874846458435,0.9995750784873962,0.4167177379131317,0.26557886600494385,-0.6762161254882812,0.9997417330741882,0.5043948292732239,0.30112773180007935,-0.8181750178337097,0.999934196472168,0.4686170220375061,0.30098164081573486,-0.84724360704422,0.9999512434005737,0.5950288772583008,0.38030120730400085,-0.3036205768585205,0.9999212026596069,0.3246867060661316,0.38042399287223816,-0.4695574939250946,0.9998430013656616,0.6120107769966125,0.5324135422706604,-0.0930165946483612,0.9551615715026855,0.29632368683815,0.5306792259216309,-0.4383893609046936,0.9789180159568787,0.6662115454673767,0.6556475162506104,-0.3535192906856537,0.9341540336608887,0.36733242869377136,0.6021203398704529,-0.719299852848053,0.9381486177444458,0.6826527118682861,0.6966973543167114,-0.4348803162574768,0.8924374580383301,0.3887559771537781,0.6252322793006897,-0.8024669885635376,0.9025463461875916,0.6705316305160522,0.6998621225357056,-0.5192937850952148,0.9032781720161438,0.39890924096107483,0.6076362133026123,-0.8704684972763062,0.9087526798248291,0.659410834312439,0.6902382969856262,-0.39238521456718445,0.9069392085075378,0.3929067850112915,0.5956447124481201,-0.7466952204704285,0.8933172225952148,0.5504692196846008,0.6494592428207397,0.04198559373617172,0.9977937936782837,0.39926671981811523,0.6590638756752014,-0.04182453826069832,0.9961932897567749,0.555850625038147,0.8580483794212341,-0.045552387833595276,0.44304904341697693,0.4156012535095215,0.8557567000389099,-0.06824412941932678,0.4709928035736084,0.5444445610046387,1.0266189575195312,0.5094587206840515,0.23434144258499146,0.42870885133743286,1.0082685947418213,0.44678208231925964,0.2850540578365326,0.5319684147834778,1.048297643661499,0.5468173027038574,0.23183342814445496,0.4379233121871948,1.0518981218338013,0.4839625060558319,0.1673918068408966,0.579524040222168,1.0916008949279785,0.24959006905555725,0.2472994178533554,0.4622207283973694,1.1068345308303833,0.12870338559150696,0.2679905593395233
14514.232675332201,0.49018555879592896,0.280256062746048,-0.8973436951637268,0.9999001026153564,0.5024826526641846,0.2600160539150238,-0.8515103459358215,0.9997660517692566,0.5123462080955505,0.2594577372074127,-0.8516618609428406,0.9997228980064392,0.5209982395172119,0.2589207887649536,-0.8518064022064209,0.9996968507766724,0.47088831663131714,0.25964322686195374,-0.8742944598197937,0.9997163414955139,0.45562028884887695,0.25883975625038147,-0.8744415044784546,0.9996906518936157,0.4430433511734009,0.25823774933815,-0.8746946454048157,0.9996812343597412,0.5279529690742493,0.2640615403652191,-0.5229336023330688,0.99955815076828,0.4159355163574219,0.26513445377349854,-0.6380724906921387,0.9997256398200989,0.5029765367507935,0.30145135521888733,-0.7675831913948059,0.9999357461929321,0.46644410490989685,0.3012334704399109,-0.8008638024330139,0.9999487400054932,0.5934200286865234,0.3811112642288208,-0.24607257544994354,0.9999359846115112,0.32554692029953003,0.37954968214035034,-0.45263344049453735,0.9998531341552734,0.6125655770301819,0.53174889087677,-0.022789429873228073,0.9543645977973938,0.298210084438324,0.5266115665435791,-0.43546825647354126,0.9808579087257385,0.6655579805374146,0.6564974188804626,-0.2699304223060608,0.942696750164032,0.36651068925857544,0.6012729406356812,-0.7203348875045776,0.9455291628837585,0.6819782257080078,0.6984819173812866,-0.3476860821247101,0.9050748944282532,0.38586121797561646,0.6234458684921265,-0.8032074570655823,0.9139705300331116,0.6693440675735474,0.701373279094696,-0.42976707220077515,0.9152669310569763,0.39575469493865967,0.604957640171051,-0.8745813369750977,0.9193530082702637,0.6581577062606812,0.6914621591567993,-0.3076670169830322,0.9163464903831482,0.39039939641952515,0.5935226082801819,-0.7491549849510193,0.9056391716003418,0.5495709180831909,0.6475867629051208,0.05776225030422211,0.9980944991111755,0.40084755420684814,0.6568794846534729,-0.05760209262371063,0.9963777661323547,0.556117832660675,0.8550329208374023,-0.049400728195905685,0.3569593131542206,0.4187042713165283,0.8520857095718384,-0.08513268083333969,0.33197373151779175,0.5461767911911011,1.0315337181091309,0.47720831632614136,0.1735619753599167,0.4279857575893402,1.00819993019104,0.4364611804485321,0.18712061643600464,0.5333243012428284,1.0537116527557373,0.5111868381500244,0.18779456615447998,0.43209102749824524,1.0547208786010742,0.473749577999115,0.12219879776239395,0.5827873945236206,1.0963668823242188,0.20980818569660187,0.1882430613040924,0.46646636724472046,1.1071473360061646,0.11532174050807953,0.189361572265625
14530.899341998867,0.48894768953323364,0.2781185209751129,-0.897316038608551,0.9999219179153442,0.5012816190719604,0.25659307837486267,-0.8522083759307861,0.9998137354850769,0.5118187665939331,0.25603795051574707,-0.8523611426353455,0.9997805953025818,0.5208806395530701,0.25564831495285034,-0.8525119423866272,0.9997565150260925,0.4698304831981659,0.2570025622844696,-0.8704904317855835,0.9997778534889221,0.4552650451660156,0.25684434175491333,-0.8706086277961731,0.9997583031654358,0.44318509101867676,0.2567231059074402,-0.870831310749054,0.9997543692588806,0.5299652814865112,0.26308393478393555,-0.5277371406555176,0.9996477365493774,0.41547074913978577,0.26547691226005554,-0.622218906879425,0.9997747540473938,0.5036938190460205,0.2993675470352173,-0.7695138454437256,0.9999432563781738,0.4658316671848297,0.29853367805480957,-0.7968645691871643,0.9999558925628662,0.5949348211288452,0.38106703758239746,-0.2647290825843811,0.9999281167984009,0.3266768455505371,0.3807677924633026,-0.4279012382030487,0.9998552799224854,0.6111027598381042,0.5316609740257263,-0.05099999159574509,0.9472538232803345,0.2951614260673523,0.5258761048316956,-0.4198164641857147,0.9757421016693115,0.6636085510253906,0.6545343399047852,-0.29555460810661316,0.9242984056472778,0.3637690544128418,0.6002262830734253,-0.7247711420059204,0.9334608912467957,0.6803335547447205,0.6956843733787537,-0.3713547885417938,0.8822275996208191,0.38309991359710693,0.6236706972122192,-0.8091972470283508,0.899882435798645,0.6692667007446289,0.69832444190979,-0.4548241198062897,0.8941459059715271,0.392473042011261,0.6049084663391113,-0.8773162961006165,0.9063115119934082,0.6585235595703125,0.6891599297523499,-0.33357909321784973,0.8977288007736206,0.38691070675849915,0.5933359265327454,-0.7534427046775818,0.8911515474319458,0.5501104593276978,0.6483792066574097,0.04170292243361473,0.9982253909111023,0.39822670817375183,0.6554846167564392,-0.04156327247619629,0.99669349193573,0.5561911463737488,0.8564979434013367,-0.06122952699661255,0.4395463168621063,0.41471099853515625,0.853155791759491,-0.07071588933467865,0.4223875403404236,0.5471489429473877,1.0287017822265625,0.468502014875412,0.2319754809141159,0.429092675447464,1.005250334739685,0.43704092502593994,0.25173601508140564,0.5357320308685303,1.0503475666046143,0.5032415986061096,0.212661474943161,0.4363980293273926,1.0517945289611816,0.47334781289100647,0.14633317291736603,0.5775529742240906,1.0936064720153809,0.20270416140556335,0.2389887422323227,0.458877831697464,1.1050031185150146,0.1205906942486763,0.24180062115192413
14547.566008665533,0.4875962436199188,0.27927809953689575,-0.9073846340179443,0.9999229907989502,0.5004135966300964,0.25810614228248596,-0.8624480962753296,0.999810516834259,0.5112417936325073,0.2577989995479584,-0.8626155257225037,0.9997724890708923,0.5204446911811829,0.25758224725723267,-0.862774670124054,0.9997519850730896,0.4691675901412964,0.25771430134773254,-0.8801317811012268,0.9997748732566833,0.45494523644447327,0.2572194039821625,-0.880245566368103,0.9997492432594299,0.44275254011154175,0.25673893094062805,-0.880469024181366,0.9997478127479553,0.5307550430297852,0.2648879289627075,-0.5376653671264648,0.9996212720870972,0.4157886803150177,0.2649679481983185,-0.6297147274017334,0.9997610449790955,0.501792311668396,0.3004688620567322,-0.779100775718689,0.9999390840530396,0.4645736813545227,0.2986363470554352,-0.8058080077171326,0.9999525547027588,0.5933501124382019,0.37985217571258545,-0.27490028738975525,0.9999268054962158,0.32571378350257874,0.3803342282772064,-0.4245556592941284,0.9998586177825928,0.6111237406730652,0.5323359966278076,-0.06373577564954758,0.9498488306999207,0.2952015995979309,0.5265398621559143,-0.39737701416015625,0.9745301008224487,0.6634483337402344,0.6551234722137451,-0.3136310279369354,0.9250292181968689,0.36529192328453064,0.6009880304336548,-0.6901712417602539,0.9334198832511902,0.6805771589279175,0.6974659562110901,-0.3917832672595978,0.8821514844894409,0.38336610794067383,0.6242568492889404,-0.7723246812820435,0.8985152244567871,0.6676178574562073,0.7004567980766296,-0.476656436920166,0.8942102789878845,0.39233100414276123,0.6063084602355957,-0.8433796167373657,0.9054273962974548,0.6569177508354187,0.6908133029937744,-0.35241788625717163,0.8976197838783264,0.386946439743042,0.5944105386734009,-0.719386100769043,0.890166699886322,0.5516928434371948,0.6453182697296143,0.03452558070421219,0.9980494976043701,0.3995359539985657,0.653671145439148,-0.03437260910868645,0.9964224696159363,0.5565716624259949,0.8537390232086182,-0.06919730454683304,0.42731860280036926,0.41474583745002747,0.8513197302818298,-0.06878865510225296,0.4035714268684387,0.5463294386863708,1.0320546627044678,0.43573808670043945,0.21954345703125,0.430319607257843,1.011549711227417,0.411970853805542,0.24488095939159393,0.5351932644844055,1.054795265197754,0.4674200713634491,0.20181086659431458,0.435957133769989,1.0556535720825195,0.44507843255996704,0.15073630213737488,0.5766701102256775,1.0954163074493408,0.16412952542304993,0.2249486744403839,0.4495455324649811,1.1057252883911133,0.09256638586521149,0.23727072775363922
14564.2326753322,0.4878764748573303,0.2779827117919922,-0.9496634006500244,0.9999353885650635,0.5010247230529785,0.2565995156764984,-0.9044169783592224,0.9998414516448975,0.5116004943847656,0.2561553716659546,-0.9045677781105042,0.9998044371604919,0.5208988189697266,0.2559066414833069,-0.9047104716300964,0.9997805953025818,0.4692429006099701,0.2569141983985901,-0.923213005065918,0.9998216032981873,0.45466309785842896,0.2568369507789612,-0.923357367515564,0.9998047947883606,0.4427170753479004,0.25675421953201294,-0.9235899448394775,0.9998072981834412,0.5302794575691223,0.26347410678863525,-0.5725992918014526,0.9996689558029175,0.4159436821937561,0.2656441330909729,-0.6693626046180725,0.999826967716217,0.5027627944946289,0.2997101843357086,-0.8184788227081299,0.9999493360519409,0.464294970035553,0.2984045147895813,-0.8465043902397156,0.9999629259109497,0.5944344997406006,0.38103145360946655,-0.29328688979148865,0.9999264478683472,0.3259335160255432,0.38165202736854553,-0.46290460228919983,0.9998866319656372,0.6115286946296692,0.5322703123092651,-0.07445399463176727,0.9494398832321167,0.29896166920661926,0.5301978588104248,-0.44591495394706726,0.9823148250579834,0.6639782190322876,0.654689610004425,-0.3326070308685303,0.9268009662628174,0.37077704071998596,0.6031234264373779,-0.7555409073829651,0.9552019238471985,0.6817595362663269,0.6963543891906738,-0.4119518995285034,0.8831673860549927,0.3875029683113098,0.6253599524497986,-0.8427708148956299,0.9270081520080566,0.6688274145126343,0.6990365386009216,-0.49810612201690674,0.8949180841445923,0.3955182433128357,0.6076799631118774,-0.9131606817245483,0.9319591522216797,0.6578687429428101,0.6896253824234009,-0.3722042441368103,0.8975647687911987,0.39121749997138977,0.5966043472290039,-0.7844692468643188,0.9183441996574402,0.5538079142570496,0.6476961374282837,0.03768203407526016,0.9982561469078064,0.40013551712036133,0.6567527651786804,-0.03755418583750725,0.9969653487205505,0.5562834739685059,0.8566699028015137,-0.06866206228733063,0.4559778571128845,0.413068950176239,0.8540859222412109,-0.06696924567222595,0.43445247411727905,0.5474203824996948,1.0376942157745361,0.4449659585952759,0.25049319863319397,0.4275425374507904,1.0111651420593262,0.4310765862464905,0.2743622362613678,0.5349116325378418,1.060835599899292,0.476897656917572,0.22698386013507843,0.43204501271247864,1.0605162382125854,0.4655076861381531,0.16538164019584656,0.5810641646385193,1.101822853088379,0.16347719728946686,0.2586379945278168,0.4445306956768036,1.1121793985366821,0.10314943641424179,0.26775839924812317
14580.899341998866,0.4908003509044647,0.27805623412132263,-0.9036003351211548,0.9999234676361084,0.5025109052658081,0.2562633156776428,-0.8560783267021179,0.9998282194137573,0.5126654505729675,0.25566166639328003,-0.8562505841255188,0.9997929930686951,0.5217275023460388,0.2551184892654419,-0.8564023971557617,0.9997727274894714,0.470733642578125,0.25722628831863403,-0.8765634894371033,0.9997944235801697,0.456027090549469,0.2572462558746338,-0.8767093420028687,0.9997686743736267,0.443528413772583,0.25713488459587097,-0.8769477605819702,0.9997590184211731,0.5295298099517822,0.26311883330345154,-0.5259975790977478,0.999695897102356,0.41580989956855774,0.2661936283111572,-0.6309285759925842,0.9997841715812683,0.5057884454727173,0.29888102412223816,-0.7742795348167419,0.9999470710754395,0.4689488410949707,0.29856619238853455,-0.8047632575035095,0.9999551773071289,0.5937711596488953,0.38281211256980896,-0.26054003834724426,0.9999326467514038,0.32721734046936035,0.3823910057544708,-0.43578240275382996,0.9998319149017334,0.6108574271202087,0.5341951847076416,-0.04192554950714111,0.956710696220398,0.29563701152801514,0.5296423435211182,-0.437723845243454,0.9724393486976624,0.6628115773200989,0.6576328277587891,-0.27844542264938354,0.9413338303565979,0.3648168742656708,0.6017706990242004,-0.7591776251792908,0.9311395287513733,0.6796454787254333,0.6993404626846313,-0.3526225984096527,0.9036295413970947,0.3849269449710846,0.623704731464386,-0.8449333310127258,0.8957292437553406,0.6680745482444763,0.7028039693832397,-0.43499523401260376,0.9139842987060547,0.39282625913619995,0.6041913032531738,-0.913092315196991,0.9025489687919617,0.6566729545593262,0.6922391653060913,-0.3153725862503052,0.9146557450294495,0.3870369493961334,0.5927526950836182,-0.7879666686058044,0.8855847120285034,0.5510057806968689,0.6493844389915466,0.039672113955020905,0.9982701539993286,0.39937442541122437,0.6601288914680481,-0.03953856974840164,0.9967777132987976,0.5559226870536804,0.8587651252746582,-0.046221114695072174,0.4446706175804138,0.4144350588321686,0.8573675751686096,-0.05974355712532997,0.39529213309288025,0.5553945302963257,1.035721778869629,0.4924309253692627,0.22660298645496368,0.4283258318901062,1.0087398290634155,0.45965564250946045,0.24996095895767212,0.5445904731750488,1.0581942796707153,0.5269614458084106,0.2033536434173584,0.4293290376663208,1.0612192153930664,0.49678823351860046,0.1540585160255432,0.5882457494735718,1.1000323295593262,0.22134563326835632,0.23137229681015015,0.44081705808639526,1.1122311353683472,0.1378617286682129,0.24661940336227417
14597.566008665532,0.49016812443733215,0.2780410051345825,-0.9076168537139893,0.9999246597290039,0.5021495819091797,0.25628671050071716,-0.8605077266693115,0.9998306035995483,0.5123449563980103,0.25589415431022644,-0.8606777787208557,0.9997920393943787,0.5215760469436646,0.25552767515182495,-0.8608280420303345,0.9997736811637878,0.46977752447128296,0.25690531730651855,-0.8807252049446106,0.9997935891151428,0.4551410675048828,0.2568860352039337,-0.880867063999176,0.999764621257782,0.44247347116470337,0.2567444145679474,-0.8811064958572388,0.9997603297233582,0.530089259147644,0.2635384202003479,-0.5248231291770935,0.9996767044067383,0.4156474769115448,0.265643835067749,-0.6277431845664978,0.9997864365577698,0.5051209926605225,0.2990577518939972,-0.7755267024040222,0.9999523162841797,0.4673486351966858,0.29830697178840637,-0.8053517937660217,0.9999610185623169,0.5934842824935913,0.3822465240955353,-0.24756455421447754,0.9999417066574097,0.32742464542388916,0.38089898228645325,-0.4276272654533386,0.9998602867126465,0.6114340424537659,0.5332503318786621,-0.03022269904613495,0.9587785005569458,0.2947201430797577,0.5268051028251648,-0.41214698553085327,0.9779484272003174,0.6630566716194153,0.6545616984367371,-0.2931232154369354,0.9467177987098694,0.3651207685470581,0.6006165146827698,-0.7277490496635437,0.9437931180000305,0.6800851821899414,0.69648277759552,-0.37523940205574036,0.9103730916976929,0.38424766063690186,0.6242074370384216,-0.8149996995925903,0.9112828373908997,0.6683067083358765,0.6993392109870911,-0.460612416267395,0.9202755689620972,0.39298588037490845,0.6061860918998718,-0.8883488178253174,0.9174768328666687,0.6577240228652954,0.6893936991691589,-0.332609087228775,0.9198224544525146,0.38752037286758423,0.5944071412086487,-0.7582213282585144,0.9022560119628906,0.5504809021949768,0.6457077264785767,0.046967945992946625,0.9983471632003784,0.4003842771053314,0.6561659574508667,-0.04683201014995575,0.9968839287757874,0.5562798976898193,0.856792151927948,-0.06969078630208969,0.463774174451828,0.4139596223831177,0.8556240200996399,-0.07935664802789688,0.39879128336906433,0.5566707253456116,1.0316460132598877,0.48640891909599304,0.22511258721351624,0.43037277460098267,1.0049479007720947,0.45409324765205383,0.23911409080028534,0.5447745323181152,1.0534464120864868,0.5226917862892151,0.20152772963047028,0.42628541588783264,1.0560263395309448,0.49205100536346436,0.14235243201255798,0.5892860293388367,1.0968163013458252,0.2052977830171585,0.2310936003923416,0.44391804933547974,1.1069395542144775,0.12095294892787933,0.23721185326576233
14614.232675332198,0.4909936189651489,0.27620166540145874,-0.9291420578956604,0.9999498128890991,0.5031654238700867,0.25361472368240356,-0.8835780024528503,0.9998877048492432,0.5126312971115112,0.25325319170951843,-0.8837342858314514,0.999864935874939,0.5217215418815613,0.25292322039604187,-0.8838973045349121,0.9998561143875122,0.4712214171886444,0.2553984820842743,-0.9040162563323975,0.9998602867126465,0.4560122489929199,0.2560546100139618,-0.9041567444801331,0.9998387098312378,0.4430493712425232,0.25646013021469116,-0.9043632745742798,0.9998310804367065,0.5291629433631897,0.262338787317276,-0.5556719899177551,0.9998032450675964,0.41541895270347595,0.26638147234916687,-0.660182774066925,0.9998443126678467,0.5054868459701538,0.298030287027359,-0.7997795343399048,0.999966025352478,0.4678819477558136,0.29737651348114014,-0.8301414251327515,0.9999699592590332,0.5930417776107788,0.3817919194698334,-0.28960758447647095,0.9999587535858154,0.32705676555633545,0.3796963095664978,-0.45745712518692017,0.9998644590377808,0.6111068725585938,0.532987117767334,-0.06847766041755676,0.9660620093345642,0.29495444893836975,0.5265711545944214,-0.44818007946014404,0.9746674299240112,0.6651173830032349,0.6548843383789062,-0.30102816224098206,0.9566389322280884,0.36210188269615173,0.5993167161941528,-0.753851056098938,0.9366083145141602,0.6820950508117676,0.697465181350708,-0.3767097592353821,0.9252341985702515,0.3819003999233246,0.621557354927063,-0.8376398086547852,0.9032337069511414,0.670380175113678,0.7004410624504089,-0.46111977100372314,0.9338814616203308,0.3902301490306854,0.6019035577774048,-0.9079437851905823,0.9099745154380798,0.6596329212188721,0.6901408433914185,-0.33876171708106995,0.9336675405502319,0.3844766914844513,0.590964138507843,-0.7832456231117249,0.8939903974533081,0.5501337051391602,0.6438848376274109,0.038900844752788544,0.9986504912376404,0.3993510901927948,0.6542816758155823,-0.038784969598054886,0.9972541928291321,0.5476241111755371,0.8599997162818909,-0.05253002792596817,0.464248389005661,0.41343918442726135,0.8529871702194214,-0.05955863371491432,0.40043097734451294,0.5577889084815979,1.030015230178833,0.46953654289245605,0.24092140793800354,0.43090003728866577,1.005354404449463,0.4451838731765747,0.2524069547653198,0.5475170612335205,1.0521552562713623,0.5031490325927734,0.20582440495491028,0.4304051697254181,1.0546629428863525,0.481060653924942,0.14682114124298096,0.5888321995735168,1.0948641300201416,0.1962844431400299,0.2521212697029114,0.4428035616874695,1.1061880588531494,0.1251714527606964,0.25025439262390137
14630.899341998864,0.4883800446987152,0.27728110551834106,-0.9101054072380066,0.9999380111694336,0.5006785988807678,0.2557757496833801,-0.8643732666969299,0.9998587369918823,0.511090099811554,0.25553473830223083,-0.8645286560058594,0.9998278617858887,0.520402729511261,0.25533637404441833,-0.8646782636642456,0.9998101592063904,0.4676606357097626,0.2562471032142639,-0.8838760256767273,0.9998306035995483,0.4532527029514313,0.25623559951782227,-0.8840153813362122,0.9998096823692322,0.4404984712600708,0.256094753742218,-0.8842539191246033,0.9998043179512024,0.5302424430847168,0.26358529925346375,-0.5353618860244751,0.9997385144233704,0.41512632369995117,0.26519879698753357,-0.6352456212043762,0.9998286962509155,0.5037562251091003,0.2984573543071747,-0.7803672552108765,0.9999593496322632,0.46453171968460083,0.29737550020217896,-0.8093516230583191,0.9999665021896362,0.5933493375778198,0.38259434700012207,-0.2605638802051544,0.9999455213546753,0.32692915201187134,0.3806167244911194,-0.4390604794025421,0.9998749494552612,0.6112678647041321,0.5337933301925659,-0.03536492958664894,0.9583373665809631,0.29484546184539795,0.5264251232147217,-0.43859970569610596,0.9771918654441833,0.6639970541000366,0.654741644859314,-0.2777496874332428,0.9472169280052185,0.364170104265213,0.600144624710083,-0.763479471206665,0.9465630054473877,0.681205153465271,0.6962234973907471,-0.35426437854766846,0.912908136844635,0.38363850116729736,0.6235459446907043,-0.850399374961853,0.9169284701347351,0.6695587038993835,0.6989473700523376,-0.43830302357673645,0.9226039052009583,0.39212536811828613,0.6050549745559692,-0.9210727214813232,0.9225727319717407,0.6592124700546265,0.689091682434082,-0.31584757566452026,0.9224965572357178,0.3864889442920685,0.5933508276939392,-0.7931613326072693,0.9080528020858765,0.5505714416503906,0.6446835994720459,0.043955374509096146,0.9984492063522339,0.39947599172592163,0.6548245549201965,-0.04383569955825806,0.9970734119415283,0.5487306118011475,0.8618597984313965,-0.06274092197418213,0.4597185254096985,0.4136194586753845,0.8530223369598389,-0.06796301156282425,0.381631076335907,0.556840181350708,1.0323524475097656,0.469916969537735,0.22379396855831146,0.4303397834300995,1.0046197175979614,0.45342856645584106,0.22781330347061157,0.5461928248405457,1.0543619394302368,0.5039619207382202,0.19068339467048645,0.4291030764579773,1.0562859773635864,0.4905901551246643,0.13756777346134186,0.5866026282310486,1.0977556705474854,0.19037850201129913,0.22527271509170532,0.44392311573028564,1.10758376121521,0.12644290924072266,0.22568711638450623
14647.56600866553,0.48993560671806335,0.27774786949157715,-0.9289281368255615,0.9999334812164307,0.5023757815361023,0.25524428486824036,-0.8829578757286072,0.9998499155044556,0.5122594833374023,0.25497397780418396,-0.8831030130386353,0.999816358089447,0.5213497281074524,0.25469374656677246,-0.883239209651947,0.9998007416725159,0.4703173041343689,0.2564269006252289,-0.9038772583007812,0.9998181462287903,0.45550504326820374,0.2568057179450989,-0.9040286540985107,0.9997952580451965,0.4428356885910034,0.25696316361427307,-0.9042673110961914,0.9997920393943787,0.5294690132141113,0.26368704438209534,-0.5507535934448242,0.9997140765190125,0.4160330593585968,0.26631492376327515,-0.6566627621650696,0.9998113512992859,0.5041649341583252,0.29924657940864563,-0.7978551387786865,0.9999562501907349,0.46687498688697815,0.29822278022766113,-0.8285593390464783,0.9999639987945557,0.5923211574554443,0.3818050026893616,-0.2709227204322815,0.9999454021453857,0.32580089569091797,0.38084012269973755,-0.46097517013549805,0.9998757839202881,0.6102179288864136,0.5327127575874329,-0.05807473883032799,0.957001268863678,0.29567068815231323,0.5275349617004395,-0.45210564136505127,0.97845458984375,0.6641708612442017,0.65476393699646,-0.31728559732437134,0.9449154734611511,0.36563581228256226,0.601053774356842,-0.7600513696670532,0.9425647854804993,0.6810293197631836,0.6966730356216431,-0.39743155241012573,0.9072758555412292,0.3850399851799011,0.6236648559570312,-0.8458731770515442,0.9093009829521179,0.6708964109420776,0.6991674900054932,-0.48171547055244446,0.9174486994743347,0.39414215087890625,0.6052724123001099,-0.9187752604484558,0.9153086543083191,0.6605464220046997,0.6887351870536804,-0.356417715549469,0.9172477722167969,0.38864821195602417,0.5939838290214539,-0.7903584241867065,0.9004154801368713,0.5508351922035217,0.6436127424240112,0.050427552312612534,0.998286783695221,0.4013732075691223,0.6543039679527283,-0.05032452568411827,0.9969610571861267,0.5470946431159973,0.8586003184318542,-0.04675805941224098,0.4472287893295288,0.4149356782436371,0.8497506380081177,-0.08200328797101974,0.4119371771812439,0.5519198179244995,1.0274357795715332,0.488455593585968,0.23485413193702698,0.4290800392627716,1.0041117668151855,0.4262285530567169,0.25938695669174194,0.5395310521125793,1.049532175064087,0.5226529836654663,0.21369989216327667,0.4271453320980072,1.0543206930160522,0.461379736661911,0.1547195315361023,0.5870747566223145,1.0922480821609497,0.20988664031028748,0.2523321211338043,0.4503430128097534,1.1046475172042847,0.09472812712192535,0.2563469409942627
14664.232675332196,0.4908958375453949,0.27828341722488403,-0.9499021172523499,0.9999392032623291,0.5031949281692505,0.2555965781211853,-0.9039214253425598,0.9998561143875122,0.5131486654281616,0.2552347183227539,-0.9040745496749878,0.9998236298561096,0.522132158279419,0.2548433840274811,-0.904222846031189,0.9998096823692322,0.47042834758758545,0.2569189667701721,-0.9236160516738892,0.9998249411582947,0.45544251799583435,0.2573190927505493,-0.9237671494483948,0.9998005032539368,0.44264906644821167,0.2574780583381653,-0.9239981770515442,0.9997966885566711,0.5301064252853394,0.2636268436908722,-0.5674118399620056,0.999721109867096,0.4163840711116791,0.2669799029827118,-0.6679201126098633,0.9998134970664978,0.5056124925613403,0.2996941804885864,-0.8167670965194702,0.9999582767486572,0.4676075875759125,0.2990274727344513,-0.8459234237670898,0.9999649524688721,0.5925499200820923,0.38133347034454346,-0.2840416729450226,0.9999526739120483,0.32787612080574036,0.37907874584198,-0.4592622220516205,0.9998800754547119,0.6110509634017944,0.5341790914535522,-0.06575236469507217,0.9619085192680359,0.29576683044433594,0.5264843106269836,-0.43824002146720886,0.9783963561058044,0.6639163494110107,0.6563342809677124,-0.32469066977500916,0.9501932263374329,0.3657352924346924,0.6015461087226868,-0.7453922629356384,0.9429500102996826,0.6796044111251831,0.6979839205741882,-0.4060631990432739,0.9150279760360718,0.38582658767700195,0.6243407130241394,-0.8313408493995667,0.908911406993866,0.6697472333908081,0.7005952000617981,-0.49286949634552,0.9246187210083008,0.3945484459400177,0.606695294380188,-0.9057294130325317,0.9153012633323669,0.6600791811943054,0.6900817155838013,-0.3644862174987793,0.9237340092658997,0.3891005516052246,0.5956995487213135,-0.7760363817214966,0.8996405005455017,0.5522242784500122,0.6440364718437195,0.04331124201416969,0.9985435009002686,0.40221136808395386,0.6548860669136047,-0.04320353642106056,0.9972213506698608,0.55584716796875,0.8552030920982361,-0.06643496453762054,0.45536479353904724,0.4172441363334656,0.8549199104309082,-0.0722430944442749,0.39058718085289,0.549406111240387,1.0324275493621826,0.46529078483581543,0.2445436418056488,0.4251067638397217,1.0055978298187256,0.4422948956489563,0.2564553916454315,0.5374226570129395,1.0547537803649902,0.4989674985408783,0.21562737226486206,0.4279599189758301,1.0572535991668701,0.47796911001205444,0.15742938220500946,0.5813456773757935,1.0973483324050903,0.17925356328487396,0.2609219551086426,0.4417409300804138,1.1073956489562988,0.10918381065130234,0.26005956530570984
