time,X_NOSE,Y_NOSE,Z_NOSE,visibility_NOSE,X_LEFT_EYE_INNER,Y_LEFT_EYE_INNER,Z_LEFT_EYE_INNER,visibility_LEFT_EYE_INNER,X_LEFT_EYE,Y_LEFT_EYE,Z_LEFT_EYE,visibility_LEFT_EYE,X_LEFT_EYE_OUTER,Y_LEFT_EYE_OUTER,Z_LEFT_EYE_OUTER,visibility_LEFT_EYE_OUTER,X_RIGHT_EYE_OUTER,Y_RIGHT_EYE_OUTER,Z_RIGHT_EYE_OUTER,visibility_RIGHT_EYE_OUTER,X_RIGHT_EYE,Y_RIGHT_EYE,Z_RIGHT_EYE,visibility_RIGHT_EYE,X_RIGHT_EYE_OUTER,Y_RIGHT_EYE_OUTER,Z_RIGHT_EYE_OUTER,visibility_RIGHT_EYE_OUTER,X_LEFT_EAR,Y_LEFT_EAR,Z_LEFT_EAR,visibility_LEFT_EAR,X_RIGHT_EAR,Y_RIGHT_EAR,Z_RIGHT_EAR,visibility_RIGHT_EAR,X_MOUTH_LEFT,Y_MOUTH_LEFT,Z_MOUTH_LEFT,visibility_MOUTH_LEFT,X_MOUTH_RIGHT,Y_MOUTH_RIGHT,Z_MOUTH_RIGHT,visibility_MOUTH_RIGHT,X_LEFT_SHOULDER,Y_LEFT_SHOULDER,Z_LEFT_SHOULDER,visibility_LEFT_SHOULDER,X_RIGHT_SHOULDER,Y_RIGHT_SHOULDER,Z_RIGHT_SHOULDER,visibility_RIGHT_SHOULDER,X_LEFT_ELBOW,Y_LEFT_ELBOW,Z_LEFT_ELBOW,visibility_LEFT_ELBOW,X_RIGHT_ELBOW,Y_RIGHT_ELBOW,Z_RIGHT_ELBOW,visibility_RIGHT_ELBOW,X_LEFT_WRIST,Y_LEFT_WRIST,Z_LEFT_WRIST,visibility_LEFT_WRIST,X_RIGHT_WRIST,Y_RIGHT_WRIST,Z_RIGHT_WRIST,visibility_RIGHT_WRIST,X_LEFT_PINKY,Y_LEFT_PINKY,Z_LEFT_PINKY,visibility_LEFT_PINKY,X_RIGHT_PINKY,Y_RIGHT_PINKY,Z_RIGHT_PINKY,visibility_RIGHT_PINKY,X_LEFT_INDEX,Y_LEFT_INDEX,Z_LEFT_INDEX,visibility_LEFT_INDEX,X_RIGHT_INDEX,Y_RIGHT_INDEX,Z_RIGHT_INDEX,visibility_RIGHT_INDEX,X_LEFT_THUMB,Y_LEFT_THUMB,Z_LEFT_THUMB,visibility_LEFT_THUMB,X_RIGHT_THUMB,Y_RIGHT_THUMB,Z_RIGHT_THUMB,visibility_RIGHT_THUMB,X_LEFT_HIP,Y_LEFT_HIP,Z_LEFT_HIP,visibility_LEFT_HIP,X_RIGHT_HIP,Y_RIGHT_HIP,Z_RIGHT_HIP,visibility_RIGHT_HIP,X_LEFT_KNEE,Y_LEFT_KNEE,Z_LEFT_KNEE,visibility_LEFT_KNEE,X_RIGHT_KNEE,Y_RIGHT_KNEE,Z_RIGHT_KNEE,visibility_RIGHT_KNEE,X_LEFT_ANKLE,Y_LEFT_ANKLE,Z_LEFT_ANKLE,visibility_LEFT_ANKLE,X_RIGHT_ANKLE,Y_RIGHT_ANKLE,Z_RIGHT_ANKLE,visibility_RIGHT_ANKLE,X_LEFT_HEEL,Y_LEFT_HEEL,Z_LEFT_HEEL,visibility_LEFT_HEEL,X_RIGHT_HEEL,Y_RIGHT_HEEL,Z_RIGHT_HEEL,visibility_RIGHT_HEEL,X_LEFT_FOOT_INDEX,Y_LEFT_FOOT_INDEX,Z_LEFT_FOOT_INDEX,visibility_LEFT_FOOT_INDEX,X_RIGHT_FOOT_INDEX,Y_RIGHT_FOOT_INDEX,Z_RIGHT_FOOT_INDEX,visibility_RIGHT_FOOT_INDEX
18570.094844159696,0.39472880959510803,0.23706716299057007,-1.0770792961120605,0.999990701675415,0.40144816040992737,0.21142786741256714,-1.0337259769439697,0.9999711513519287,0.4112703204154968,0.21075063943862915,-1.0338428020477295,0.9999638795852661,0.4203466475009918,0.21028614044189453,-1.033851981163025,0.9999585151672363,0.3696145713329315,0.21145308017730713,-1.0598748922348022,0.9999785423278809,0.3515324592590332,0.2113441526889801,-1.0600519180297852,0.99997878074646,0.33294063806533813,0.21138057112693787,-1.0601626634597778,0.9999775886535645,0.41151729226112366,0.2143668830394745,-0.7090913653373718,0.9999345541000366,0.2814553380012512,0.22103607654571533,-0.8420348167419434,0.9999839067459106,0.4037441611289978,0.2584141194820404,-0.9495351910591125,0.9999932050704956,0.36808517575263977,0.25947144627571106,-0.9864009022712708,0.9999966621398926,0.49781250953674316,0.3426583707332611,-0.4413696527481079,0.9999675750732422,0.12823058664798737,0.3713439404964447,-0.687843382358551,0.9999606609344482,0.5448715090751648,0.5047348141670227,-0.16443908214569092,0.9866887927055359,0.12935514748096466,0.5579683780670166,-0.6359955668449402,0.9955297112464905,0.6038234829902649,0.6400489211082458,-0.3240721821784973,0.9898423552513123,0.18486887216567993,0.7235562801361084,-0.8134108781814575,0.974174976348877,0.6323451399803162,0.6806079745292664,-0.4069659411907196,0.9777678847312927,0.20298102498054504,0.7666782140731812,-0.9046799540519714,0.9501168131828308,0.6146461367607117,0.681195855140686,-0.49992504715919495,0.979752779006958,0.23371271789073944,0.7565790414810181,-0.9942695498466492,0.953981876373291,0.5975333452224731,0.671745240688324,-0.36394003033638,0.9796437621116638,0.23515084385871887,0.7429358959197998,-0.8504449129104614,0.9576157927513123,0.45236271619796753,0.642188549041748,0.07263866811990738,0.9990314245223999,0.26771658658981323,0.6588326096534729,-0.0722038522362709,0.9992974996566772,0.46967563033103943,0.8544265031814575,0.28425589203834534,0.9499362707138062,0.3143077790737152,0.8816747665405273,0.10019142180681229,0.9659944772720337,0.4887891709804535,0.973790168762207,0.9819871187210083,0.8399612307548523,0.34085893630981445,0.9955853223800659,0.6719672679901123,0.8815058469772339,0.4693925380706787,0.9848670959472656,1.0363414287567139,0.793627142906189,0.3338981866836548,0.993682861328125,0.7164603471755981,0.651816189289093,0.5525190234184265,1.0379706621170044,0.8116863369941711,0.7646017670631409,0.37373819947242737,1.1051923036575317,0.3797096014022827,0.7486096024513245
18586.761510826364,0.3964303731918335,0.23574641346931458,-1.0910345315933228,0.99998939037323,0.40325218439102173,0.20989099144935608,-1.044738531112671,0.9999678134918213,0.41232219338417053,0.209102064371109,-1.044836401939392,0.9999593496322632,0.4206162393093109,0.20861175656318665,-1.0448557138442993,0.9999532699584961,0.37189048528671265,0.2104087769985199,-1.0721099376678467,0.9999773502349854,0.35381218791007996,0.2105788290500641,-1.0722501277923584,0.9999775886535645,0.33522969484329224,0.21082863211631775,-1.0723634958267212,0.999976634979248,0.41041654348373413,0.2132827639579773,-0.7130097150802612,0.9999209642410278,0.28420791029930115,0.2207430899143219,-0.850875973701477,0.999983549118042,0.4049101173877716,0.2573568820953369,-0.9620553255081177,0.9999922513961792,0.3696253001689911,0.2584836781024933,-1.000232458114624,0.999996542930603,0.49463945627212524,0.3423011004924774,-0.4254392683506012,0.9999526739120483,0.1332152783870697,0.3704032301902771,-0.7229407429695129,0.9999659061431885,0.5413883924484253,0.5054703950881958,-0.16338008642196655,0.9774308800697327,0.12962427735328674,0.559188961982727,-0.6949478983879089,0.9954020977020264,0.6038087606430054,0.6382343173027039,-0.3425009846687317,0.9836899638175964,0.18657611310482025,0.7194144129753113,-0.8731067180633545,0.9725197553634644,0.6332751512527466,0.6776289343833923,-0.42728278040885925,0.9674340486526489,0.20098906755447388,0.765039324760437,-0.9720146059989929,0.9476373195648193,0.6182882785797119,0.6782138347625732,-0.522132158279419,0.9701204299926758,0.23529396951198578,0.7549459934234619,-1.0571403503417969,0.9510851502418518,0.6004235744476318,0.6688923239707947,-0.38468682765960693,0.9698402285575867,0.2392909973859787,0.7409893870353699,-0.9090995788574219,0.954339861869812,0.45524540543556213,0.6411455869674683,0.1041540801525116,0.9987754225730896,0.27422094345092773,0.6587152481079102,-0.10374871641397476,0.9992465972900391,0.4725709855556488,0.8483497500419617,0.4026203155517578,0.9432072639465332,0.31636443734169006,0.875601589679718,0.12009507417678833,0.974321722984314,0.48562994599342346,0.9648302793502808,1.072184443473816,0.8484524488449097,0.34277862310409546,0.9922792911529541,0.6826960444450378,0.8997090458869934,0.4638901650905609,0.9781017303466797,1.1238696575164795,0.8077834248542786,0.3323148488998413,0.9903295636177063,0.7260290384292603,0.6829555630683899,0.5609644651412964,1.0242891311645508,0.9003402590751648,0.7875124216079712,0.3964744508266449,1.1021080017089844,0.3839759826660156,0.7749713063240051
18603.42817749303,0.39571884274482727,0.23822148144245148,-1.0746960639953613,0.999990701675415,0.4042924642562866,0.21196618676185608,-1.03095543384552,0.9999728202819824,0.41274693608283997,0.2110685408115387,-1.0310040712356567,0.9999648332595825,0.4209217429161072,0.21036890149116516,-1.030992865562439,0.9999589920043945,0.3719831109046936,0.21267282962799072,-1.0614007711410522,0.9999808073043823,0.35316672921180725,0.21259793639183044,-1.061579704284668,0.9999810457229614,0.33412763476371765,0.21267110109329224,-1.0616785287857056,0.9999802112579346,0.4113008975982666,0.21477249264717102,-0.7113252282142639,0.9999327659606934,0.2819085121154785,0.22133100032806396,-0.8652986288070679,0.9999860525131226,0.4020739793777466,0.25996077060699463,-0.9499216675758362,0.9999938011169434,0.367043137550354,0.26128095388412476,-0.9926502704620361,0.9999972581863403,0.4943772256374359,0.34363603591918945,-0.4472925662994385,0.9999560117721558,0.12913848459720612,0.37176236510276794,-0.730715274810791,0.9999656677246094,0.5415334701538086,0.5045242309570312,-0.18329589068889618,0.9829040169715881,0.12777188420295715,0.5571797490119934,-0.69499272108078,0.9964679479598999,0.6068630814552307,0.6405125260353088,-0.35158416628837585,0.989141583442688,0.1932366043329239,0.7192869782447815,-0.8570948243141174,0.981497049331665,0.6360900402069092,0.6802754998207092,-0.43422308564186096,0.9770888686180115,0.19875803589820862,0.7643873691558838,-0.9496976733207703,0.9635452032089233,0.6177201271057129,0.6806226372718811,-0.5300413966178894,0.9790737628936768,0.2323538064956665,0.7584537267684937,-1.0341418981552124,0.9661204218864441,0.6005008220672607,0.6721242070198059,-0.3935191035270691,0.9788347482681274,0.24009859561920166,0.7438431978225708,-0.8919600248336792,0.9683893918991089,0.4582914412021637,0.6400864124298096,0.09121528267860413,0.9989093542098999,0.2758004069328308,0.6577491164207458,-0.09087465703487396,0.9993035793304443,0.4674541652202606,0.8501497507095337,0.3361702561378479,0.9525598883628845,0.31009021401405334,0.8746075630187988,0.09694384783506393,0.9736908674240112,0.484140008687973,0.97021484375,1.018926739692688,0.858567476272583,0.3400268852710724,0.9893358945846558,0.6653717756271362,0.9059969782829285,0.4626114070415497,0.9824129343032837,1.0715577602386475,0.8163342475891113,0.33229807019233704,0.9913239479064941,0.7088117003440857,0.6959971189498901,0.5479502081871033,1.0351448059082031,0.8544787168502808,0.7963019609451294,0.37412482500076294,1.096321702003479,0.37593981623649597,0.7901381254196167
18620.0948441597,0.39492684602737427,0.23527902364730835,-1.1047736406326294,0.9999860525131226,0.4005216658115387,0.21017760038375854,-1.0535948276519775,0.9999616146087646,0.4089655876159668,0.20938917994499207,-1.0536575317382812,0.9999492168426514,0.41767165064811707,0.20883873105049133,-1.0536333322525024,0.9999412298202515,0.36986470222473145,0.21037131547927856,-1.081223487854004,0.9999734163284302,0.35160911083221436,0.21043765544891357,-1.081425666809082,0.9999737739562988,0.3337225914001465,0.2106637954711914,-1.0815390348434448,0.9999735355377197,0.4075428545475006,0.2136744260787964,-0.7169778347015381,0.999894380569458,0.2836046814918518,0.22043335437774658,-0.8577480316162109,0.9999808073043823,0.4028644263744354,0.2579871714115143,-0.9770824909210205,0.9999897480010986,0.36711516976356506,0.2588862180709839,-1.015886664390564,0.9999954700469971,0.49447527527809143,0.3457641005516052,-0.43764811754226685,0.9999219179153442,0.13181373476982117,0.3744255006313324,-0.7300972938537598,0.9999549388885498,0.541225254535675,0.5061608552932739,-0.17009037733078003,0.972713828086853,0.13077136874198914,0.5568475127220154,-0.7005826234817505,0.9957488179206848,0.6063815355300903,0.6430033445358276,-0.33934035897254944,0.9805183410644531,0.18809646368026733,0.7211468815803528,-0.8770039081573486,0.9745904803276062,0.6349219679832458,0.6820580363273621,-0.4173455238342285,0.9611890316009521,0.19888798892498016,0.7659905552864075,-0.972302258014679,0.9495355486869812,0.6205419301986694,0.6832825541496277,-0.514371395111084,0.9641037583351135,0.23086614906787872,0.7566353678703308,-1.052983045578003,0.9528557062149048,0.6051651835441589,0.674430787563324,-0.3816832900047302,0.9645200371742249,0.23506851494312286,0.7418279051780701,-0.911038339138031,0.9564682245254517,0.4579181671142578,0.644618570804596,0.10223224759101868,0.9989293217658997,0.280962735414505,0.6631062626838684,-0.10195257514715195,0.9993351101875305,0.4685423970222473,0.850082278251648,0.3590710163116455,0.9447123408317566,0.3119322955608368,0.8852110505104065,0.09296195209026337,0.9733832478523254,0.47925031185150146,0.9699685573577881,1.0755808353424072,0.8558023571968079,0.338367223739624,0.9857062697410583,0.6976615786552429,0.9034463763237,0.45605507493019104,0.982464611530304,1.1304205656051636,0.8127034306526184,0.3289976716041565,0.988787055015564,0.7444230318069458,0.6809492707252502,0.5523205995559692,1.0295531749725342,0.8998869061470032,0.7934233546257019,0.3717764914035797,1.1002788543701172,0.39879459142684937,0.7892599105834961
18636.761510826367,0.39698582887649536,0.23483583331108093,-1.125453233718872,0.9999871253967285,0.40304774045944214,0.2096875011920929,-1.0745034217834473,0.9999657869338989,0.41118124127388,0.20893612504005432,-1.074558973312378,0.9999550580978394,0.4191875457763672,0.20840591192245483,-1.0745141506195068,0.9999474287033081,0.37236958742141724,0.2101975977420807,-1.1045600175857544,0.9999759197235107,0.354270339012146,0.21041983366012573,-1.1047518253326416,0.9999762773513794,0.33613163232803345,0.21068918704986572,-1.104863166809082,0.9999758005142212,0.4074646830558777,0.21337297558784485,-0.7347398400306702,0.9999061822891235,0.284818559885025,0.2201305329799652,-0.8866114616394043,0.9999829530715942,0.4037075340747833,0.2572496831417084,-0.9959673881530762,0.9999908208847046,0.3690159320831299,0.2586092948913574,-1.0379376411437988,0.9999960660934448,0.49365681409835815,0.3449375033378601,-0.44967636466026306,0.9999324083328247,0.13143600523471832,0.3735538423061371,-0.7545494437217712,0.9999579191207886,0.5437535047531128,0.5055539608001709,-0.1865597516298294,0.973899245262146,0.13020466268062592,0.5564765334129333,-0.7257000803947449,0.9960716962814331,0.6062814593315125,0.6416990756988525,-0.3801376223564148,0.9829527139663696,0.1889631152153015,0.7203395366668701,-0.9086995124816895,0.9776091575622559,0.6354974508285522,0.6811346411705017,-0.4628555476665497,0.9660143852233887,0.19808615744113922,0.7644709348678589,-1.0066295862197876,0.9558078050613403,0.6204285621643066,0.6819888949394226,-0.5618909597396851,0.9686778783798218,0.23140738904476166,0.7558916211128235,-1.0902776718139648,0.9588813781738281,0.604834794998169,0.6731656193733215,-0.42396825551986694,0.9687488079071045,0.23678845167160034,0.7413718104362488,-0.9438064098358154,0.9617641568183899,0.4588291347026825,0.6422514915466309,0.10848686844110489,0.9989678859710693,0.28200697898864746,0.6608072519302368,-0.10819429904222488,0.9993533492088318,0.46891823410987854,0.8450419902801514,0.39011305570602417,0.9440074563026428,0.3122177720069885,0.8787434697151184,0.10537875443696976,0.9749583601951599,0.4783080816268921,0.9674677848815918,1.1017215251922607,0.861314594745636,0.3381456434726715,0.9828469753265381,0.7112082839012146,0.907800018787384,0.45489415526390076,0.9806841611862183,1.1559638977050781,0.8220441341400146,0.327793151140213,0.9848772883415222,0.7581949234008789,0.697625458240509,0.5504034757614136,1.0267308950424194,0.9273976683616638,0.8027486205101013,0.376991331577301,1.0954453945159912,0.41572871804237366,0.7958380579948425
18653.428177493035,0.3945769667625427,0.238504558801651,-1.096204161643982,0.9999877214431763,0.40316343307495117,0.21191710233688354,-1.055288314819336,0.9999639987945557,0.4117003083229065,0.21089878678321838,-1.0553056001663208,0.9999521970748901,0.41989660263061523,0.21015244722366333,-1.0552537441253662,0.9999446868896484,0.3706354796886444,0.21304753422737122,-1.0831390619277954,0.9999761581420898,0.35183343291282654,0.2132609784603119,-1.0833494663238525,0.9999762773513794,0.33317831158638,0.21356123685836792,-1.0834616422653198,0.9999762773513794,0.41120755672454834,0.21474194526672363,-0.7464874982833862,0.9999051094055176,0.2819381356239319,0.22206073999404907,-0.8886193633079529,0.9999828338623047,0.40238478779792786,0.2598636746406555,-0.9755035042762756,0.9999910593032837,0.3659931421279907,0.26152580976486206,-1.0147584676742554,0.9999963045120239,0.497566819190979,0.34495270252227783,-0.48489686846733093,0.9999375343322754,0.13049839437007904,0.3701882064342499,-0.7551981210708618,0.9999657869338989,0.5452720522880554,0.5067703127861023,-0.219631627202034,0.9791402816772461,0.12947435677051544,0.5553604960441589,-0.7205603122711182,0.996369481086731,0.6085806488990784,0.642484188079834,-0.3541666567325592,0.9851771593093872,0.1860085278749466,0.7198285460472107,-0.8654586672782898,0.9790946841239929,0.635479211807251,0.6818859577178955,-0.4276980757713318,0.9696882367134094,0.19667603075504303,0.7644360661506653,-0.9502052664756775,0.9584948420524597,0.6198074221611023,0.6829237937927246,-0.5194454789161682,0.9720684885978699,0.23008882999420166,0.7558306455612183,-1.0336440801620483,0.9615543484687805,0.6047602891921997,0.6739105582237244,-0.3934001624584198,0.9725344777107239,0.23484621942043304,0.7414222955703735,-0.8995961546897888,0.9647988677024841,0.4571008086204529,0.6401734948158264,0.08991160988807678,0.9989901185035706,0.275399386882782,0.6562494039535522,-0.08967293053865433,0.9994250535964966,0.4672054350376129,0.8488081097602844,0.3447057902812958,0.9566755890846252,0.30886316299438477,0.876293957233429,0.10615040361881256,0.9770834445953369,0.4790407419204712,0.9683535099029541,1.000969648361206,0.8848989009857178,0.3379462957382202,0.988235354423523,0.661870002746582,0.9221964478492737,0.45701658725738525,0.980631411075592,1.0506432056427002,0.8409393429756165,0.32921117544174194,0.9892085194587708,0.7040507793426514,0.7268749475479126,0.5466811060905457,1.0293450355529785,0.8365198969841003,0.8262507319450378,0.3620677888393402,1.0909864902496338,0.3792306184768677,0.819525957107544
18670.094844159703,0.395050585269928,0.23837995529174805,-1.1260515451431274,0.9999923706054688,0.4028216600418091,0.21247804164886475,-1.080001711845398,0.99997878074646,0.4116382598876953,0.21159055829048157,-1.0800710916519165,0.9999725818634033,0.42020028829574585,0.2110092043876648,-1.0800771713256836,0.9999680519104004,0.37061595916748047,0.21303239464759827,-1.1085467338562012,0.9999836683273315,0.3516552150249481,0.2131364941596985,-1.108742117881775,0.9999837875366211,0.3326726257801056,0.21321123838424683,-1.10883629322052,0.9999829530715942,0.4114297032356262,0.21528360247612,-0.7433086633682251,0.9999490976333618,0.28079521656036377,0.2221854329109192,-0.88839191198349,0.9999880790710449,0.4028799831867218,0.2603890001773834,-0.9948614835739136,0.9999951124191284,0.3663025498390198,0.26144370436668396,-1.0349770784378052,0.999997615814209,0.49590200185775757,0.3443734347820282,-0.45967236161231995,0.9999666213989258,0.13025599718093872,0.37217918038368225,-0.7392595410346985,0.9999657869338989,0.546082615852356,0.5048696398735046,-0.18993590772151947,0.9842501878738403,0.12867522239685059,0.5559225678443909,-0.7001882195472717,0.9964448809623718,0.6071689128875732,0.6404325366020203,-0.38332170248031616,0.9901052117347717,0.19289448857307434,0.720295786857605,-0.889661967754364,0.9805998206138611,0.6363812685012817,0.6807966232299805,-0.4701887369155884,0.9789016842842102,0.1983049511909485,0.7641626000404358,-0.9886780977249146,0.9612113833427429,0.6190463304519653,0.6810958385467529,-0.5712955594062805,0.9807620644569397,0.23345671594142914,0.7579032778739929,-1.0740242004394531,0.9640792608261108,0.601948618888855,0.6723199486732483,-0.4275546967983246,0.9804264307022095,0.2411521077156067,0.7436359524726868,-0.9255719184875488,0.9665763974189758,0.4580394923686981,0.6401645541191101,0.0920884907245636,0.9990848302841187,0.2786976397037506,0.6588842868804932,-0.09170875698328018,0.9993433356285095,0.46959027647972107,0.8471853733062744,0.31147709488868713,0.949959933757782,0.30906930565834045,0.877191960811615,0.08742076903581619,0.9722569584846497,0.4845585525035858,0.9666048288345337,1.0524793863296509,0.8510318398475647,0.3405047357082367,0.9845585823059082,0.6967945098876953,0.9037030339241028,0.46242281794548035,0.9785181283950806,1.1106926202774048,0.811769425868988,0.3331752419471741,0.9862810969352722,0.7443428039550781,0.6906775236129761,0.5471009016036987,1.0340054035186768,0.8843897581100464,0.7878484129905701,0.3739374876022339,1.0969592332839966,0.40128910541534424,0.7874945998191833
18686.76151082637,0.3965464234352112,0.23591724038124084,-1.1554076671600342,0.9999905824661255,0.4021885395050049,0.21009495854377747,-1.1047816276550293,0.9999750852584839,0.4108051657676697,0.2091532051563263,-1.104844093322754,0.9999675750732422,0.41941729187965393,0.2084938883781433,-1.1047905683517456,0.999962329864502,0.37085628509521484,0.21046596765518188,-1.1327757835388184,0.9999815225601196,0.3523254692554474,0.21050593256950378,-1.13297700881958,0.9999815225601196,0.3336554765701294,0.21068674325942993,-1.133094072341919,0.9999812841415405,0.4091775715351105,0.21283185482025146,-0.7600019574165344,0.9999334812164307,0.28232866525650024,0.22021198272705078,-0.9016994833946228,0.9999861717224121,0.40496018528938293,0.25792837142944336,-1.0234583616256714,0.9999933242797852,0.3688819408416748,0.25922074913978577,-1.0625574588775635,0.9999970197677612,0.49583956599235535,0.34350621700286865,-0.47126829624176025,0.9999474287033081,0.13172179460525513,0.37385645508766174,-0.7624752521514893,0.999961256980896,0.5411036610603333,0.5079967975616455,-0.22094683349132538,0.9773428440093994,0.12725214660167694,0.5578466057777405,-0.736441433429718,0.9963476061820984,0.6076536178588867,0.6435185074806213,-0.43602633476257324,0.9853760600090027,0.1975257843732834,0.7185177206993103,-0.9338365793228149,0.9794893264770508,0.6362297534942627,0.682823657989502,-0.5250614881515503,0.9702855944633484,0.20387998223304749,0.7624090313911438,-1.0341107845306396,0.9584763646125793,0.6198078393936157,0.683463990688324,-0.6258397102355957,0.9727275967597961,0.23741741478443146,0.7577381134033203,-1.1160824298858643,0.9613896012306213,0.6032238602638245,0.674973726272583,-0.48140501976013184,0.9726222157478333,0.24531354010105133,0.7434723377227783,-0.9683340191841125,0.9639812111854553,0.4588923752307892,0.6423490643501282,0.0994902104139328,0.9988729357719421,0.2823772728443146,0.6620057821273804,-0.09911349415779114,0.9992772936820984,0.47055956721305847,0.8454961180686951,0.3452685475349426,0.9410400390625,0.3123088479042053,0.8737307786941528,0.09245104342699051,0.9722481966018677,0.4829941391944885,0.967566728591919,1.0682231187820435,0.8494752645492554,0.33855143189430237,0.980979859828949,0.6933653354644775,0.9014536738395691,0.4597153961658478,0.9812989234924316,1.1234694719314575,0.8079383969306946,0.33066681027412415,0.9863156080245972,0.7394728064537048,0.6895892024040222,0.5518156290054321,1.0249708890914917,0.8899610638618469,0.7900316119194031,0.37964457273483276,1.095410943031311,0.39228978753089905,0.7867912650108337
18703.42817749304,0.39458274841308594,0.23682251572608948,-1.093479037284851,0.9999887943267822,0.4012518525123596,0.21090108156204224,-1.0467777252197266,0.9999690055847168,0.41042065620422363,0.20999222993850708,-1.046824336051941,0.9999580383300781,0.41932812333106995,0.20938223600387573,-1.0467778444290161,0.9999511241912842,0.36900484561920166,0.21114826202392578,-1.0743000507354736,0.9999788999557495,0.350660502910614,0.21105340123176575,-1.074479103088379,0.9999791383743286,0.33193454146385193,0.21100685000419617,-1.0745811462402344,0.9999792575836182,0.4106263220310211,0.213803231716156,-0.718673050403595,0.9999147653579712,0.2809346318244934,0.22032961249351501,-0.8595161437988281,0.9999853372573853,0.4041777551174164,0.25852638483047485,-0.9671024680137634,0.9999918937683105,0.36664459109306335,0.2594097852706909,-1.005828619003296,0.9999966621398926,0.4960416555404663,0.34307506680488586,-0.44471028447151184,0.9999369382858276,0.13229115307331085,0.37200331687927246,-0.7223777174949646,0.9999617338180542,0.5433492660522461,0.5065268874168396,-0.16912873089313507,0.9762147068977356,0.1316402554512024,0.5575913786888123,-0.688687264919281,0.9960833787918091,0.6079305410385132,0.6435489058494568,-0.3243551552295685,0.9833547472953796,0.18822437524795532,0.7204790711402893,-0.8590849041938782,0.977499783039093,0.6365373134613037,0.6830423474311829,-0.4013046622276306,0.9665871858596802,0.19922766089439392,0.7649263143539429,-0.950425922870636,0.9553449749946594,0.620713472366333,0.6841936707496643,-0.49630266427993774,0.9691416621208191,0.23109854757785797,0.756577730178833,-1.033911108970642,0.9586927890777588,0.604512631893158,0.6752552390098572,-0.3653259575366974,0.9695484638214111,0.235758975148201,0.7420276999473572,-0.8936212658882141,0.9621715545654297,0.46106043457984924,0.6420275568962097,0.09419611841440201,0.9990416169166565,0.28303322196006775,0.6611522436141968,-0.09389154613018036,0.9993984699249268,0.4686671197414398,0.8519703149795532,0.34217527508735657,0.9477882981300354,0.31431517004966736,0.882827639579773,0.10023173689842224,0.9696871042251587,0.48128098249435425,0.9724907875061035,1.0380748510360718,0.852617084980011,0.3391108810901642,0.9860158562660217,0.6848149299621582,0.8944136500358582,0.45847898721694946,0.9845878481864929,1.0916311740875244,0.8124241232872009,0.3323940634727478,0.9881305694580078,0.7302899956703186,0.6816179156303406,0.5461015701293945,1.0339677333831787,0.8686228394508362,0.7817206382751465,0.3677148222923279,1.0999042987823486,0.395550012588501,0.7689000964164734
18720.094844159707,0.39496707916259766,0.23671811819076538,-1.101850986480713,0.9999897480010986,0.40106308460235596,0.2107119858264923,-1.0548864603042603,0.9999715089797974,0.4101957082748413,0.20972439646720886,-1.0549266338348389,0.999962329864502,0.4189845323562622,0.2090572714805603,-1.054860234260559,0.9999557733535767,0.36899828910827637,0.2113102376461029,-1.0830745697021484,0.9999802112579346,0.3507291078567505,0.2114773392677307,-1.083288550376892,0.9999806880950928,0.3320172429084778,0.21163871884346008,-1.083391785621643,0.9999805688858032,0.4094470143318176,0.21387571096420288,-0.7270671129226685,0.9999223947525024,0.2813819944858551,0.2213747501373291,-0.8709989786148071,0.9999858140945435,0.4046582579612732,0.2581711411476135,-0.9760124087333679,0.9999926090240479,0.36769014596939087,0.2592867314815521,-1.0156117677688599,0.9999967813491821,0.497330904006958,0.3433259427547455,-0.45895472168922424,0.9999402761459351,0.12976974248886108,0.37269121408462524,-0.7358767986297607,0.999961256980896,0.5425257086753845,0.5048615336418152,-0.18869008123874664,0.9785576462745667,0.12922559678554535,0.5591250658035278,-0.7034483551979065,0.9964973330497742,0.6061489582061768,0.6407326459884644,-0.35203051567077637,0.9854375123977661,0.19366022944450378,0.7200630903244019,-0.8752005696296692,0.9805081486701965,0.6350858807563782,0.6814000010490417,-0.43126875162124634,0.9702932238578796,0.19938653707504272,0.7648492455482483,-0.9668896198272705,0.9607992768287659,0.618939995765686,0.6821164488792419,-0.5269150733947754,0.9725325703620911,0.23443041741847992,0.7578476667404175,-1.0505387783050537,0.9636411666870117,0.6027025580406189,0.6731999516487122,-0.3935004472732544,0.9727656841278076,0.24148552119731903,0.7434122562408447,-0.909637451171875,0.9664901494979858,0.4594797194004059,0.6421659588813782,0.09051018953323364,0.9990720748901367,0.2801792323589325,0.6620815992355347,-0.09024269133806229,0.9993971586227417,0.4681435525417328,0.8511556386947632,0.3234136998653412,0.9468045830726624,0.31391221284866333,0.8751329779624939,0.09603860974311829,0.9689233303070068,0.4805724024772644,0.9710962176322937,1.0172860622406006,0.8597275018692017,0.34002169966697693,0.9837206602096558,0.6790626049041748,0.8981958031654358,0.45849379897117615,0.9842489957809448,1.0705227851867676,0.8202898502349854,0.33442187309265137,0.9870837330818176,0.7239651679992676,0.6891300678253174,0.5448508262634277,1.0333044528961182,0.8484092354774475,0.7971206903457642,0.3695888817310333,1.0963966846466064,0.3915182948112488,0.7835968732833862
18736.761510826374,0.39526352286338806,0.23393037915229797,-1.1297612190246582,0.9999881982803345,0.40097925066947937,0.20963290333747864,-1.0816701650619507,0.9999675750732422,0.40929222106933594,0.20898130536079407,-1.0817089080810547,0.9999572038650513,0.41766253113746643,0.20853236317634583,-1.0816470384597778,0.9999504089355469,0.369949072599411,0.2095552682876587,-1.1113959550857544,0.9999773502349854,0.3515915274620056,0.20950421690940857,-1.1116135120391846,0.999977707862854,0.3338577151298523,0.20967167615890503,-1.1117331981658936,0.9999774694442749,0.4064871072769165,0.21363565325737,-0.7502579689025879,0.9999135732650757,0.28336015343666077,0.2196330726146698,-0.900966465473175,0.999983549118042,0.40217989683151245,0.2565280497074127,-1.0028278827667236,0.9999922513961792,0.36689844727516174,0.25735238194465637,-1.0444544553756714,0.9999966621398926,0.4954027235507965,0.34429728984832764,-0.47720280289649963,0.9999425411224365,0.12884999811649323,0.3722497820854187,-0.7635726928710938,0.9999608993530273,0.5470634698867798,0.5072804689407349,-0.21519529819488525,0.9811561107635498,0.1295280158519745,0.5587449669837952,-0.7288753390312195,0.9964710474014282,0.6062661409378052,0.6439738869667053,-0.40221676230430603,0.9868910908699036,0.19327519834041595,0.7195667028427124,-0.9044511914253235,0.9804401993751526,0.635968804359436,0.6826517581939697,-0.4868132472038269,0.9725770950317383,0.1994892656803131,0.7643190622329712,-0.9995203614234924,0.9609455466270447,0.6187845468521118,0.6835296154022217,-0.5836260318756104,0.9747957587242126,0.23446130752563477,0.7573793530464172,-1.084572672843933,0.9638623595237732,0.6021958589553833,0.6751644015312195,-0.4446590840816498,0.9748056530952454,0.24166682362556458,0.7429608702659607,-0.9395723938941956,0.9664134383201599,0.45847392082214355,0.6415091753005981,0.09889543056488037,0.9990062117576599,0.2788413465023041,0.660597026348114,-0.09862720966339111,0.999376118183136,0.46921929717063904,0.848153829574585,0.3504345417022705,0.9458798170089722,0.3123268187046051,0.8773043155670166,0.09473028033971786,0.9720197319984436,0.481426477432251,0.9704276919364929,1.059469223022461,0.8604660630226135,0.34101343154907227,0.9870036840438843,0.691950261592865,0.9038380980491638,0.45993703603744507,0.9829463362693787,1.113936185836792,0.8217754364013672,0.3321877121925354,0.9897593259811401,0.7380887866020203,0.6932333111763,0.5486873984336853,1.0311611890792847,0.8882540464401245,0.802262008190155,0.3743901550769806,1.0969964265823364,0.39993417263031006,0.7907953262329102
18753.428177493042,0.39526984095573425,0.2361915111541748,-1.0025628805160522,0.9999895095825195,0.4018871486186981,0.21023643016815186,-0.9591214060783386,0.9999697208404541,0.4114753305912018,0.20947805047035217,-0.9592006802558899,0.9999610185623169,0.42017149925231934,0.20900866389274597,-0.9591690897941589,0.9999544620513916,0.3699747622013092,0.21039023995399475,-0.9856224060058594,0.9999792575836182,0.3518062233924866,0.21041324734687805,-0.9858396649360657,0.999980092048645,0.3330771327018738,0.21043390035629272,-0.9859252572059631,0.9999797344207764,0.4108235538005829,0.21376216411590576,-0.6517439484596252,0.999925971031189,0.2825673818588257,0.22058925032615662,-0.7873398065567017,0.9999862909317017,0.40451526641845703,0.2583307921886444,-0.8838181495666504,0.9999922513961792,0.3683440685272217,0.25880271196365356,-0.9211101531982422,0.9999967813491821,0.4959028661251068,0.3438425064086914,-0.4019427001476288,0.9999454021453857,0.1303412765264511,0.3721296191215515,-0.672887921333313,0.9999643564224243,0.5455214977264404,0.5049125552177429,-0.13452723622322083,0.9800102114677429,0.12422347068786621,0.5589236617088318,-0.6407145857810974,0.9968986511230469,0.6055883169174194,0.6409292817115784,-0.2552030384540558,0.986127495765686,0.18503640592098236,0.7225021719932556,-0.7939874529838562,0.9796263575553894,0.6344518661499023,0.6805942058563232,-0.3249090909957886,0.9711642265319824,0.19794365763664246,0.7672767639160156,-0.8796991109848022,0.9582914113998413,0.6196467876434326,0.6815507411956787,-0.414042204618454,0.9733281135559082,0.2302446812391281,0.7579028010368347,-0.9559028744697571,0.961354672908783,0.6031086444854736,0.6725051999092102,-0.29250600934028625,0.9739493131637573,0.2333233505487442,0.7430064082145691,-0.8254430294036865,0.964725911617279,0.4534377455711365,0.6444149613380432,0.08787816017866135,0.9989432692527771,0.2719763517379761,0.6621782183647156,-0.0875992476940155,0.9993308782577515,0.4685841202735901,0.8551511764526367,0.3182689845561981,0.942721962928772,0.3099278509616852,0.8895731568336487,0.09014283865690231,0.9652814865112305,0.47976595163345337,0.9728332757949829,0.9823865294456482,0.8277339339256287,0.3378182351589203,0.9866108298301697,0.6335642337799072,0.8739517331123352,0.4573110342025757,0.9839461445808411,1.0349290370941162,0.7842724323272705,0.3297199606895447,0.9890630841255188,0.6761893630027771,0.6261247396469116,0.5475462675094604,1.036885380744934,0.8307551741600037,0.7563141584396362,0.381291925907135,1.111876368522644,0.35132911801338196,0.7362779378890991
18770.09484415971,0.3956314027309418,0.23738959431648254,-1.121529459953308,0.9999908208847046,0.40180516242980957,0.21161654591560364,-1.0725932121276855,0.9999734163284302,0.4106701612472534,0.21080628037452698,-1.0726934671401978,0.9999661445617676,0.41961485147476196,0.2102743685245514,-1.0726845264434814,0.999961256980896,0.36980724334716797,0.21141758561134338,-1.099212408065796,0.9999799728393555,0.35139116644859314,0.21120092272758484,-1.0994065999984741,0.999980092048645,0.33270031213760376,0.2112537920475006,-1.0995216369628906,0.9999796152114868,0.4099549353122711,0.214339017868042,-0.7332180142402649,0.9999347925186157,0.28181225061416626,0.22028407454490662,-0.868150532245636,0.999984860420227,0.4037718176841736,0.2593138813972473,-0.9910184741020203,0.9999936819076538,0.3663884997367859,0.2600691616535187,-1.0282905101776123,0.9999969005584717,0.4947616755962372,0.3442399799823761,-0.4438673257827759,0.9999580383300781,0.13155822455883026,0.3726585805416107,-0.7332913279533386,0.999963641166687,0.5454557538032532,0.5056611895561218,-0.18817391991615295,0.9819172024726868,0.13213782012462616,0.5589013695716858,-0.6969766616821289,0.9960439205169678,0.6049637794494629,0.6409490704536438,-0.38726088404655457,0.9868992567062378,0.1972394436597824,0.7192842364311218,-0.8894699215888977,0.9782821536064148,0.6346396207809448,0.6809980273246765,-0.47417134046554565,0.9724595546722412,0.20206338167190552,0.7635111808776855,-0.9895014762878418,0.9567449688911438,0.6190496683120728,0.6812270283699036,-0.5726383924484253,0.9747782349586487,0.23718121647834778,0.7574931979179382,-1.0732395648956299,0.9598678946495056,0.6021949052810669,0.6724163293838501,-0.4310992360115051,0.9747041463851929,0.24494469165802002,0.7429647445678711,-0.924905002117157,0.9625161290168762,0.4521681070327759,0.6424804925918579,0.09951061010360718,0.9988296627998352,0.2731413245201111,0.6598732471466064,-0.09910688549280167,0.9992169141769409,0.46823251247406006,0.8539493083953857,0.32662028074264526,0.937698245048523,0.30925408005714417,0.8779869079589844,0.06760210543870926,0.9705331325531006,0.48484906554222107,0.9672199487686157,1.0267270803451538,0.8329861760139465,0.3378681242465973,0.9915310144424438,0.6420254111289978,0.8936596512794495,0.4642524719238281,0.9805358648300171,1.0800188779830933,0.7919638752937317,0.3266690671443939,0.9937099814414978,0.6854159832000732,0.6645048260688782,0.5575950741767883,1.029434084892273,0.8470919728279114,0.7681565880775452,0.3835894465446472,1.1053996086120605,0.33268415927886963,0.769478440284729
18786.761510826378,0.3948865830898285,0.23670393228530884,-1.0980852842330933,0.9999916553497314,0.40164828300476074,0.21050024032592773,-1.0520371198654175,0.999976634979248,0.4110735356807709,0.20959347486495972,-1.052109718322754,0.9999697208404541,0.42016175389289856,0.20906242728233337,-1.0520671606063843,0.9999648332595825,0.3692169487476349,0.21083232760429382,-1.0784616470336914,0.9999830722808838,0.35106146335601807,0.21083036065101624,-1.0786722898483276,0.9999833106994629,0.3323642909526825,0.21087387204170227,-1.0787773132324219,0.9999830722808838,0.4120674729347229,0.21363547444343567,-0.7247878909111023,0.9999409914016724,0.2813712954521179,0.2206958532333374,-0.8596949577331543,0.9999876022338867,0.404389888048172,0.25862643122673035,-0.971649169921875,0.9999936819076538,0.3669135570526123,0.25925618410110474,-1.008936882019043,0.9999971389770508,0.49713200330734253,0.34593918919563293,-0.4533693790435791,0.9999490976333618,0.12734609842300415,0.3727114498615265,-0.7252644896507263,0.9999620914459229,0.5446088910102844,0.5080381631851196,-0.18420907855033875,0.9806684851646423,0.12677861750125885,0.559848427772522,-0.6854518055915833,0.9962984919548035,0.6051194667816162,0.6435502171516418,-0.335757851600647,0.9858194589614868,0.1910729557275772,0.7197556495666504,-0.8528854250907898,0.9790777564048767,0.6340330839157104,0.6823188066482544,-0.41283175349235535,0.9703960418701172,0.1995215266942978,0.764604926109314,-0.9436218738555908,0.9573525190353394,0.6198856234550476,0.6831831932067871,-0.5066870450973511,0.9727957248687744,0.23285172879695892,0.7586832642555237,-1.024630069732666,0.9606717824935913,0.6033949255943298,0.6742249727249146,-0.37649887800216675,0.9733139872550964,0.2395235300064087,0.7436894178390503,-0.8865411877632141,0.963862955570221,0.4527701437473297,0.6435522437095642,0.08454815298318863,0.9989596605300903,0.27106973528862,0.6600374579429626,-0.08420827984809875,0.9993029832839966,0.4690036177635193,0.8513852953910828,0.30525901913642883,0.9434124231338501,0.3114405870437622,0.8779549598693848,0.09279125183820724,0.9665513038635254,0.4825321137905121,0.96834796667099,1.005488395690918,0.8360790610313416,0.33995068073272705,0.9887856841087341,0.6662908792495728,0.8874841928482056,0.4605349898338318,0.9797074198722839,1.0597500801086426,0.794176459312439,0.33161184191703796,0.9922070503234863,0.7107455730438232,0.6643961071968079,0.5458706021308899,1.0324039459228516,0.8384999632835388,0.7679282426834106,0.37347596883773804,1.1005967855453491,0.37438780069351196,0.7635173797607422
18803.428177493046,0.3962746262550354,0.2365517020225525,-1.0435985326766968,0.9999909400939941,0.40277528762817383,0.2103222906589508,-1.002938985824585,0.9999724626541138,0.4120792746543884,0.2094792127609253,-1.0030187368392944,0.9999651908874512,0.4208078980445862,0.20894956588745117,-1.0029950141906738,0.9999593496322632,0.37111544609069824,0.21051958203315735,-1.0288434028625488,0.9999806880950928,0.35315200686454773,0.2104600965976715,-1.0290495157241821,0.9999814033508301,0.33443066477775574,0.21045005321502686,-1.0291601419448853,0.9999809265136719,0.411700963973999,0.21346616744995117,-0.6921977996826172,0.9999366998672485,0.2834487557411194,0.2202528715133667,-0.8245009779930115,0.9999868869781494,0.40528544783592224,0.25844815373420715,-0.9215050935745239,0.9999936819076538,0.3688626289367676,0.25894466042518616,-0.9580385088920593,0.9999972581863403,0.4978717565536499,0.34438127279281616,-0.4278673827648163,0.9999581575393677,0.1297844648361206,0.3717564642429352,-0.6923625469207764,0.9999693632125854,0.5461611747741699,0.5048131346702576,-0.149734228849411,0.9838431477546692,0.12890194356441498,0.5596349239349365,-0.6446044445037842,0.9968235492706299,0.6045083403587341,0.6394993662834167,-0.2839977443218231,0.9881265163421631,0.19020703434944153,0.7204448580741882,-0.8039106726646423,0.979945182800293,0.6342765688896179,0.6800360679626465,-0.3590490520000458,0.9748217463493347,0.20119903981685638,0.7649271488189697,-0.8909664154052734,0.9596033692359924,0.6179722547531128,0.6807063221931458,-0.44867655634880066,0.9769158959388733,0.23427355289459229,0.7572569847106934,-0.9727089405059814,0.9627152681350708,0.6007165312767029,0.671664297580719,-0.32175788283348083,0.977134644985199,0.23872177302837372,0.7420234680175781,-0.837232232093811,0.965539276599884,0.45359236001968384,0.6436285376548767,0.08440688252449036,0.9987586736679077,0.2702541947364807,0.6607331037521362,-0.08404470235109329,0.999213457107544,0.46986258029937744,0.8605775237083435,0.2985825538635254,0.9426831007003784,0.3106788098812103,0.886029839515686,0.07699580490589142,0.965111494064331,0.4870077073574066,0.9736210703849792,0.9683997631072998,0.8213462233543396,0.33909931778907776,0.9974568486213684,0.6167625188827515,0.8670448660850525,0.4666955769062042,0.9856977462768555,1.0213686227798462,0.7783143520355225,0.32853347063064575,0.9961053729057312,0.6588362455368042,0.618457019329071,0.5537863969802856,1.0358364582061768,0.8096144199371338,0.749269425868988,0.39086127281188965,1.11769700050354,0.3248482644557953,0.7214797735214233
18820.094844159714,0.39528048038482666,0.2361617386341095,-1.095526099205017,0.9999908208847046,0.40193188190460205,0.21015891432762146,-1.0474237203598022,0.9999737739562988,0.41106918454170227,0.20935627818107605,-1.0475205183029175,0.9999668598175049,0.41954758763313293,0.20887401700019836,-1.047484040260315,0.9999613761901855,0.3702663481235504,0.2103777825832367,-1.0754529237747192,0.9999802112579346,0.3521466851234436,0.2104070484638214,-1.075641393661499,0.9999803304672241,0.3334657549858093,0.21044278144836426,-1.0757577419281006,0.9999794960021973,0.4094938337802887,0.21383973956108093,-0.7125054597854614,0.9999353885650635,0.28270184993743896,0.2202705442905426,-0.8548428416252136,0.999984622001648,0.40429285168647766,0.25782498717308044,-0.9664079546928406,0.9999934434890747,0.36781224608421326,0.25836679339408875,-1.005832552909851,0.9999969005584717,0.4969397187232971,0.3452560603618622,-0.4440615177154541,0.9999562501907349,0.12745922803878784,0.3704204559326172,-0.714126467704773,0.9999579191207886,0.5424794554710388,0.5088433027267456,-0.19043289124965668,0.9823326468467712,0.12520059943199158,0.5569782257080078,-0.6808446049690247,0.9959003329277039,0.6037434339523315,0.6429976224899292,-0.38715705275535583,0.9876459240913391,0.19305074214935303,0.7173306941986084,-0.8709671497344971,0.9776284098625183,0.6354862451553345,0.6822537183761597,-0.47539380192756653,0.9741088151931763,0.20061655342578888,0.7627038955688477,-0.9673991203308105,0.9559774994850159,0.6190378665924072,0.6829240918159485,-0.5711495280265808,0.9762631058692932,0.2364310771226883,0.7567982077598572,-1.0512428283691406,0.9591203927993774,0.6017791628837585,0.6741118431091309,-0.4298146367073059,0.9762089252471924,0.2434156835079193,0.7414198517799377,-0.9059300422668457,0.9619005918502808,0.45323556661605835,0.6439724564552307,0.08526204526424408,0.9989006519317627,0.2710247039794922,0.6608502864837646,-0.08483872562646866,0.9992239475250244,0.4692816436290741,0.8526610732078552,0.3000625669956207,0.94014573097229,0.3113175928592682,0.8763647675514221,0.08544577658176422,0.9654922485351562,0.482471227645874,0.9690154790878296,1.0083253383636475,0.8317327499389648,0.34039247035980225,0.9916693568229675,0.6654560565948486,0.8848333954811096,0.461540162563324,0.9815537333488464,1.063018798828125,0.7934033274650574,0.3304222822189331,0.9953059554100037,0.7098847031593323,0.6653426289558411,0.5499515533447266,1.029956340789795,0.8360586762428284,0.7670673131942749,0.37811279296875,1.1009035110473633,0.3669266402721405,0.7609536051750183
18836.76151082638,0.3938232660293579,0.23459506034851074,-1.0403207540512085,0.999990701675415,0.3998890221118927,0.2089136838912964,-0.9972559213638306,0.999971866607666,0.4091047942638397,0.20830559730529785,-0.9973578453063965,0.9999643564224243,0.41875311732292175,0.20794740319252014,-0.997344970703125,0.9999587535858154,0.36753520369529724,0.20888546109199524,-1.022193431854248,0.9999798536300659,0.3493306636810303,0.20895490050315857,-1.022375226020813,0.9999802112579346,0.3301559388637543,0.20929491519927979,-1.0224815607070923,0.9999796152114868,0.411783903837204,0.21350541710853577,-0.681095540523529,0.9999336004257202,0.28092822432518005,0.21963822841644287,-0.8085311055183411,0.9999855756759644,0.4031263589859009,0.25696849822998047,-0.9169611930847168,0.9999932050704956,0.36353543400764465,0.25867095589637756,-0.9519930481910706,0.9999969005584717,0.4987039566040039,0.34398365020751953,-0.4132887125015259,0.9999593496322632,0.13343559205532074,0.37010273337364197,-0.6775262355804443,0.9999656677246094,0.5473122596740723,0.504575252532959,-0.14067354798316956,0.9823878407478333,0.1310514360666275,0.5593134760856628,-0.6325210928916931,0.9965041875839233,0.6035963296890259,0.6367726922035217,-0.2833113670349121,0.9883787631988525,0.18744702637195587,0.7231410145759583,-0.8024383783340454,0.9789214730262756,0.6353482604026794,0.6780641078948975,-0.36050134897232056,0.9753809571266174,0.20099183917045593,0.7675944566726685,-0.8929588794708252,0.9576478004455566,0.6177188754081726,0.6788047552108765,-0.45075520873069763,0.9773377180099487,0.23432712256908417,0.7582539319992065,-0.9739601016044617,0.960808515548706,0.6002845168113708,0.6698116660118103,-0.3215090334415436,0.9775272607803345,0.23736906051635742,0.7441747784614563,-0.835952639579773,0.9642031788825989,0.45424899458885193,0.6426909565925598,0.08477354794740677,0.9989392161369324,0.2721894383430481,0.6606070399284363,-0.08439118415117264,0.9993353486061096,0.4689866006374359,0.8583117127418518,0.30938851833343506,0.9388319253921509,0.3131575286388397,0.8848021030426025,0.09346836805343628,0.9615047574043274,0.48528948426246643,0.9704067707061768,1.0007128715515137,0.8047584891319275,0.3396380841732025,0.9976322650909424,0.6486474275588989,0.860489547252655,0.4655040502548218,0.9823627471923828,1.0563238859176636,0.7600026726722717,0.3261544704437256,0.9966809153556824,0.6924142837524414,0.601245105266571,0.554504930973053,1.0329041481018066,0.8496972918510437,0.7314796447753906,0.3893696665763855,1.1173498630523682,0.35942843556404114,0.71435546875
18853.42817749305,0.3977258503437042,0.23674145340919495,-1.088097095489502,0.9999892711639404,0.40417784452438354,0.2104969620704651,-1.043684720993042,0.9999691247940063,0.41294392943382263,0.20967212319374084,-1.043777346611023,0.9999610185623169,0.4210275113582611,0.20912912487983704,-1.0437736511230469,0.9999548196792603,0.3731909692287445,0.21060675382614136,-1.071694254875183,0.9999768733978271,0.3547493517398834,0.21036210656166077,-1.071842074394226,0.9999771118164062,0.33563369512557983,0.21023529767990112,-1.071959137916565,0.9999758005142212,0.4099796712398529,0.2134518325328827,-0.7169520258903503,0.9999300241470337,0.2825203537940979,0.2196485698223114,-0.8578042387962341,0.9999831914901733,0.4055936336517334,0.2588171660900116,-0.9604980945587158,0.9999929666519165,0.3701860010623932,0.2596079409122467,-0.9995090365409851,0.999996542930603,0.49484825134277344,0.34385883808135986,-0.4401269853115082,0.9999605417251587,0.13180136680603027,0.37166815996170044,-0.7207351922988892,0.9999610185623169,0.5421849489212036,0.5046149492263794,-0.16235734522342682,0.9808558821678162,0.1277858167886734,0.5570389032363892,-0.6825483441352844,0.9956925511360168,0.6041891574859619,0.6390798091888428,-0.3284022808074951,0.9865049719810486,0.18787561357021332,0.7181195616722107,-0.8561217784881592,0.9751507043838501,0.6336852312088013,0.6801748871803284,-0.4114387631416321,0.9721928834915161,0.20065635442733765,0.764500617980957,-0.9504207968711853,0.9520895481109619,0.6170045137405396,0.6808469891548157,-0.5065739750862122,0.9745814800262451,0.23445260524749756,0.757013201713562,-1.036709189414978,0.9553767442703247,0.5998687744140625,0.6719169020652771,-0.37004080414772034,0.9746476411819458,0.23832747340202332,0.7419108152389526,-0.8919461965560913,0.9587712287902832,0.45444387197494507,0.6430473923683167,0.08796252310276031,0.9989703893661499,0.27110713720321655,0.6604294776916504,-0.08746951073408127,0.999257504940033,0.4721859395503998,0.8496130704879761,0.3199966549873352,0.9399244785308838,0.31258589029312134,0.8801001310348511,0.1049063429236412,0.9652040600776672,0.48813381791114807,0.9716436266899109,1.028219223022461,0.8175351619720459,0.34019535779953003,0.9892484545707703,0.691293478012085,0.8715763688087463,0.4686151444911957,0.9846507906913757,1.0836551189422607,0.7826563119888306,0.32972219586372375,0.990562379360199,0.7375536561012268,0.6565253138542175,0.5536221265792847,1.0326929092407227,0.8610844016075134,0.7410961389541626,0.38044121861457825,1.101478099822998,0.40246516466140747,0.7320461869239807
18870.094844159717,0.3970800042152405,0.23701447248458862,-1.0757709741592407,0.9999898672103882,0.403265118598938,0.21067985892295837,-1.0290297269821167,0.9999717473983765,0.41172462701797485,0.20975476503372192,-1.0291498899459839,0.9999641180038452,0.41972869634628296,0.20912602543830872,-1.0291721820831299,0.9999582767486572,0.3728698790073395,0.21116751432418823,-1.0574302673339844,0.9999780654907227,0.35469111800193787,0.2112559974193573,-1.0575799942016602,0.9999779462814331,0.3355642557144165,0.21141573786735535,-1.057698369026184,0.999976634979248,0.4084540903568268,0.21342355012893677,-0.6927852034568787,0.9999375343322754,0.28225845098495483,0.22146913409233093,-0.8356084227561951,0.9999843835830688,0.4052334427833557,0.2584850490093231,-0.9448135495185852,0.9999934434890747,0.3709512948989868,0.25968271493911743,-0.9844228029251099,0.9999967813491821,0.4944116771221161,0.3449607491493225,-0.40772560238838196,0.9999645948410034,0.13017341494560242,0.37183070182800293,-0.697197675704956,0.9999600648880005,0.5423175692558289,0.5051195621490479,-0.12361988425254822,0.9826198816299438,0.1249622032046318,0.5572013854980469,-0.6618970632553101,0.9958319067955017,0.6028785705566406,0.6398620009422302,-0.2995963394641876,0.9886117577552795,0.18941541016101837,0.7173068523406982,-0.8530184030532837,0.9760289788246155,0.6338115334510803,0.6797935962677002,-0.38289976119995117,0.9762005805969238,0.20432648062705994,0.763167679309845,-0.9523670077323914,0.9529721736907959,0.6148073673248291,0.6804038286209106,-0.4814464747905731,0.9783024787902832,0.23739799857139587,0.7551826238632202,-1.0360616445541382,0.9563138484954834,0.5963332653045654,0.6715217232704163,-0.34230828285217285,0.9780176281929016,0.2407059371471405,0.7392257452011108,-0.8880314230918884,0.9590161442756653,0.45416584610939026,0.6446647644042969,0.09140446037054062,0.9989686012268066,0.2705793082714081,0.6627333164215088,-0.09087952226400375,0.9992389678955078,0.47207552194595337,0.8520622253417969,0.31440335512161255,0.9406887292861938,0.3116197884082794,0.8820995092391968,0.08620602637529373,0.9641838669776917,0.48718634247779846,0.9689565896987915,1.0498837232589722,0.8058008551597595,0.34024450182914734,0.9891289472579956,0.6908098459243774,0.8639140725135803,0.4658048152923584,0.9830207824707031,1.1078550815582275,0.7687309980392456,0.332266628742218,0.989634096622467,0.7386906743049622,0.6266376972198486,0.5564804077148438,1.0308623313903809,0.8765677213668823,0.7281168699264526,0.3808836042881012,1.107665777206421,0.3897716999053955,0.7199159860610962
18886.761510826385,0.39488422870635986,0.23982453346252441,-1.0920912027359009,0.9999912977218628,0.4028931260108948,0.2132701873779297,-1.050232172012329,0.9999746084213257,0.41144317388534546,0.21218207478523254,-1.0502928495407104,0.9999675750732422,0.41977381706237793,0.2113339602947235,-1.050297498703003,0.999962568283081,0.37050771713256836,0.21421730518341064,-1.0772435665130615,0.9999817609786987,0.35155758261680603,0.21424788236618042,-1.077437162399292,0.9999816417694092,0.3325188159942627,0.21430790424346924,-1.0775535106658936,0.9999809265136719,0.41094574332237244,0.21512380242347717,-0.7336991429328918,0.9999403953552246,0.2802531123161316,0.2224133014678955,-0.8714796304702759,0.9999862909317017,0.4023383855819702,0.2606486976146698,-0.967910647392273,0.9999939203262329,0.36675235629081726,0.2623628079891205,-1.0060245990753174,0.9999971389770508,0.49679258465766907,0.3439566195011139,-0.46803340315818787,0.9999545812606812,0.12839508056640625,0.3712761700153351,-0.7331843376159668,0.9999655485153198,0.5434455871582031,0.5067648887634277,-0.20984487235546112,0.9824435710906982,0.13064800202846527,0.5571461319923401,-0.6989490389823914,0.995964527130127,0.6047070622444153,0.6417625546455383,-0.3723523020744324,0.9877228736877441,0.19305038452148438,0.7182776927947998,-0.8664257526397705,0.9792353510856628,0.6344542503356934,0.6817722916603088,-0.45361313223838806,0.9745529890060425,0.20008237659931183,0.7626715302467346,-0.957491934299469,0.959552526473999,0.6160065531730652,0.6825941801071167,-0.5492729544639587,0.9767767786979675,0.23395398259162903,0.7567226886749268,-1.0423240661621094,0.9625853896141052,0.5984163284301758,0.6742411255836487,-0.414074182510376,0.9768280982971191,0.2413189858198166,0.7420986294746399,-0.9017682075500488,0.9654104709625244,0.45567587018013,0.641315758228302,0.0826730877161026,0.9987990856170654,0.27432486414909363,0.6590317487716675,-0.0823100358247757,0.9992522597312927,0.46958470344543457,0.852850615978241,0.31013795733451843,0.9506404399871826,0.3103579878807068,0.8733887672424316,0.0930231362581253,0.9720812439918518,0.4830946624279022,0.9685725569725037,0.9790244698524475,0.8563538789749146,0.34017664194107056,0.9912327527999878,0.6427459716796875,0.9038582444190979,0.4623521566390991,0.9822773337364197,1.0298738479614258,0.8114932179450989,0.3305757939815521,0.9929061532020569,0.6841244101524353,0.6938914656639099,0.5535455942153931,1.0307807922363281,0.8105725646018982,0.7863308787345886,0.3715263903141022,1.0987157821655273,0.35144680738449097,0.7847273349761963
18903.428177493053,0.3941996395587921,0.23641714453697205,-1.1248207092285156,0.9999911785125732,0.4007042348384857,0.2107415497303009,-1.0771002769470215,0.999975323677063,0.4098411798477173,0.2099911868572235,-1.0772209167480469,0.9999692440032959,0.41873061656951904,0.20952856540679932,-1.0772531032562256,0.9999639987945557,0.368669331073761,0.21073442697525024,-1.1058918237686157,0.9999803304672241,0.35037416219711304,0.21064618229866028,-1.1060632467269897,0.9999802112579346,0.3318082094192505,0.21060773730278015,-1.1061924695968628,0.99997878074646,0.40971216559410095,0.21432146430015564,-0.7307863235473633,0.9999454021453857,0.28165552020072937,0.22044512629508972,-0.8763614296913147,0.9999853372573853,0.4032861590385437,0.2583999037742615,-0.9895421862602234,0.9999942779541016,0.36675742268562317,0.25857773423194885,-1.03001868724823,0.9999970197677612,0.4959064722061157,0.3449198603630066,-0.44649529457092285,0.9999666213989258,0.1294635385274887,0.36965179443359375,-0.7104740142822266,0.9999569654464722,0.5426898002624512,0.5067629814147949,-0.1710609644651413,0.9840935468673706,0.12591098248958588,0.5547224879264832,-0.6664338111877441,0.9955304265022278,0.6035072803497314,0.6411091089248657,-0.3779216408729553,0.9894338250160217,0.18679417669773102,0.7160400152206421,-0.8730823397636414,0.9766829609870911,0.6338319778442383,0.6812563538551331,-0.46762600541114807,0.9777808785438538,0.1974828839302063,0.7626999616622925,-0.9723904132843018,0.9547171592712402,0.6189353466033936,0.6819595098495483,-0.5701878070831299,0.9798412322998047,0.2323782593011856,0.7557659149169922,-1.0606110095977783,0.9581537246704102,0.6016367077827454,0.6735634207725525,-0.4231014847755432,0.9795173406600952,0.23747077584266663,0.7403110265731812,-0.9099765419960022,0.9606569409370422,0.45515772700309753,0.6431862711906433,0.07682793587446213,0.9989181756973267,0.27101510763168335,0.6603022813796997,-0.0763135626912117,0.9991760849952698,0.4693305790424347,0.8565263152122498,0.25323188304901123,0.947816789150238,0.3117482364177704,0.8831154108047485,0.06698775291442871,0.9644302129745483,0.4854527413845062,0.9741305708885193,1.0143160820007324,0.8238659501075745,0.3434823155403137,0.993603527545929,0.680280864238739,0.8754492998123169,0.4648781418800354,0.9854788184165955,1.073817253112793,0.777698278427124,0.33536460995674133,0.9937788248062134,0.7280614376068115,0.63959139585495,0.5518922209739685,1.0354233980178833,0.835292637348175,0.7458518147468567,0.3757898807525635,1.1086232662200928,0.3727685809135437,0.7424780130386353
18920.09484415972,0.3947768211364746,0.2386719286441803,-1.073753833770752,0.9999916553497314,0.40151074528694153,0.21254870295524597,-1.0289050340652466,0.9999755620956421,0.41067904233932495,0.21178340911865234,-1.029022455215454,0.9999703168869019,0.4192001223564148,0.21125248074531555,-1.0290206670761108,0.9999648332595825,0.37022683024406433,0.2128170132637024,-1.0574085712432861,0.9999806880950928,0.351887971162796,0.21260976791381836,-1.0575428009033203,0.9999809265136719,0.33323079347610474,0.21253564953804016,-1.057645320892334,0.9999790191650391,0.4083312749862671,0.21552178263664246,-0.7007741332054138,0.9999479055404663,0.2805556058883667,0.22134780883789062,-0.8441338539123535,0.9999853372573853,0.4031201899051666,0.25992098450660706,-0.9452431201934814,0.9999945163726807,0.3683614432811737,0.2607620358467102,-0.9850468635559082,0.9999971389770508,0.4948369562625885,0.3441559970378876,-0.4390227198600769,0.9999713897705078,0.1256333440542221,0.372058242559433,-0.6958880424499512,0.9999597072601318,0.5425783395767212,0.5045120716094971,-0.17701037228107452,0.9859521389007568,0.12756307423114777,0.5567483901977539,-0.6544312238693237,0.9954771399497986,0.6032546162605286,0.6408368349075317,-0.36951300501823425,0.9898871779441833,0.18901993334293365,0.7181389331817627,-0.8435984253883362,0.9770594239234924,0.6322696805000305,0.6816380023956299,-0.46031370759010315,0.9783129692077637,0.19960492849349976,0.7649180889129639,-0.9385814666748047,0.9566380381584167,0.6158146262168884,0.6822858452796936,-0.554540753364563,0.9802649021148682,0.23560886085033417,0.757594108581543,-1.0291777849197388,0.9599178433418274,0.5988566875457764,0.6734472513198853,-0.41146403551101685,0.9801586866378784,0.24125242233276367,0.7416588068008423,-0.8812421560287476,0.9626193642616272,0.4477783143520355,0.6450631022453308,0.07295000553131104,0.9989822506904602,0.2637021243572235,0.6612545847892761,-0.07242023944854736,0.999198853969574,0.4692319631576538,0.8524181842803955,0.27675187587738037,0.9404197335243225,0.31004494428634644,0.8753595352172852,0.10183562338352203,0.9598061442375183,0.4882190227508545,0.9711674451828003,0.9886531829833984,0.8080785274505615,0.33849290013313293,0.9909674525260925,0.6849839687347412,0.8597508668899536,0.4700227677822113,0.9843664169311523,1.0443438291549683,0.7741788029670715,0.33142757415771484,0.9909933805465698,0.7307573556900024,0.6504104733467102,0.551624059677124,1.032899260520935,0.8236575722694397,0.7244207859039307,0.37405136227607727,1.0969284772872925,0.3994651138782501,0.7159114480018616
18936.76151082639,0.3956194221973419,0.23592349886894226,-1.0392202138900757,0.999988317489624,0.4030511975288391,0.21026334166526794,-0.9931725859642029,0.9999669790267944,0.41182079911231995,0.20948225259780884,-0.9933075308799744,0.9999585151672363,0.41983500123023987,0.2089938521385193,-0.9933441281318665,0.9999526739120483,0.37143146991729736,0.21059650182724,-1.0206325054168701,0.999974250793457,0.3533889949321747,0.2105693817138672,-1.0207856893539429,0.9999741315841675,0.33488237857818604,0.2105690836906433,-1.0208985805511475,0.9999725818634033,0.40937983989715576,0.2134910523891449,-0.665072500705719,0.9999293088912964,0.2838001847267151,0.22026962041854858,-0.803035318851471,0.9999810457229614,0.4041333496570587,0.2576621174812317,-0.9115274548530579,0.9999924898147583,0.36859130859375,0.25812649726867676,-0.9497910737991333,0.9999961853027344,0.4952976405620575,0.3439956605434418,-0.3949320316314697,0.999962568283081,0.13254840672016144,0.370339959859848,-0.6722097396850586,0.9999527931213379,0.5439921617507935,0.5037834644317627,-0.12100926041603088,0.9834897518157959,0.1267346888780594,0.5550547242164612,-0.6344572305679321,0.995368480682373,0.604823648929596,0.6406472325325012,-0.28081393241882324,0.9883375763893127,0.18737997114658356,0.716690182685852,-0.812386155128479,0.972531259059906,0.633864164352417,0.6806768774986267,-0.3619898557662964,0.9752981662750244,0.20169775187969208,0.7628149390220642,-0.9075672030448914,0.9467756152153015,0.6153577566146851,0.6811093091964722,-0.4561728537082672,0.9774526357650757,0.2343023717403412,0.7546226978302002,-0.9897255301475525,0.9505478739738464,0.5977177023887634,0.6722131967544556,-0.3213459849357605,0.9773557186126709,0.2371009737253189,0.738595724105835,-0.8468470573425293,0.954012393951416,0.45480433106422424,0.6443796753883362,0.08618823438882828,0.9989187717437744,0.27212172746658325,0.66158527135849,-0.08567766100168228,0.999168872833252,0.47131529450416565,0.8550757169723511,0.2890826165676117,0.9371134042739868,0.3131088316440582,0.8835932016372681,0.07915152609348297,0.9594072699546814,0.48797154426574707,0.9702919125556946,1.014467716217041,0.7891708016395569,0.340674489736557,0.9921568632125854,0.6702706813812256,0.8492591977119446,0.4683140814304352,0.9832830429077148,1.0719752311706543,0.7499516606330872,0.33363625407218933,0.9912999868392944,0.7171375155448914,0.5993936061859131,0.5510696172714233,1.0337936878204346,0.8459741473197937,0.7087549567222595,0.3825117349624634,1.1092897653579712,0.37369173765182495,0.700369656085968
18953.428177493057,0.3936447501182556,0.23653820157051086,-1.0930808782577515,0.9999904632568359,0.40023329854011536,0.21065375208854675,-1.0491513013839722,0.9999724626541138,0.41010546684265137,0.209962397813797,-1.049234390258789,0.9999650716781616,0.4192796051502228,0.20949900150299072,-1.0492087602615356,0.9999598264694214,0.36855608224868774,0.21091699600219727,-1.0760587453842163,0.9999796152114868,0.3503807783126831,0.21099013090133667,-1.0761938095092773,0.9999794960021973,0.33166074752807617,0.21116751432418823,-1.0763013362884521,0.9999785423278809,0.41075432300567627,0.21400144696235657,-0.7204796075820923,0.9999352693557739,0.28096625208854675,0.22054994106292725,-0.8565906882286072,0.9999847412109375,0.40396279096603394,0.25821831822395325,-0.9646439552307129,0.9999932050704956,0.36735799908638,0.25897330045700073,-1.0022029876708984,0.9999967813491821,0.49794667959213257,0.3425713777542114,-0.43791505694389343,0.9999604225158691,0.13079650700092316,0.36885976791381836,-0.718391478061676,0.9999654293060303,0.5445292592048645,0.5020574331283569,-0.16338804364204407,0.9804376363754272,0.1265709549188614,0.5534176230430603,-0.6825905442237854,0.9959543943405151,0.6004948616027832,0.6393032073974609,-0.3366779685020447,0.9868571162223816,0.18572986125946045,0.7158762812614441,-0.8639504313468933,0.9773205518722534,0.6324394345283508,0.6794893741607666,-0.4208453595638275,0.9730626940727234,0.19955864548683167,0.7635916471481323,-0.9602049589157104,0.9558549523353577,0.6165769100189209,0.6800201535224915,-0.5174790024757385,0.9752665758132935,0.2330746352672577,0.7549161911010742,-1.046892762184143,0.9589307308197021,0.598179817199707,0.6713310480117798,-0.3790930509567261,0.9751664400100708,0.2361677587032318,0.7384031414985657,-0.9002658724784851,0.9619921445846558,0.4548686146736145,0.6421380639076233,0.09250499308109283,0.9989058971405029,0.2729000151157379,0.6599416732788086,-0.09199279546737671,0.9992809891700745,0.47225308418273926,0.8477318286895752,0.34784838557243347,0.944807767868042,0.31143903732299805,0.8760520219802856,0.10760194063186646,0.9707189798355103,0.48778319358825684,0.9688534140586853,1.0251868963241577,0.8390117287635803,0.33882802724838257,0.9913123250007629,0.6698706150054932,0.8883692622184753,0.466962069272995,0.9832530617713928,1.0773370265960693,0.8001261353492737,0.3302285075187683,0.991980791091919,0.7132248282432556,0.6755725741386414,0.5579280257225037,1.0303404331207275,0.8529906272888184,0.7657560706138611,0.3813820481300354,1.1010183095932007,0.3748131990432739,0.754370391368866
18970.094844159725,0.39540424942970276,0.2364470660686493,-1.1343706846237183,0.9999902248382568,0.40288838744163513,0.21018779277801514,-1.0836505889892578,0.9999724626541138,0.4119187593460083,0.20931991934776306,-1.0837631225585938,0.9999648332595825,0.4204755425453186,0.20872026681900024,-1.0837759971618652,0.9999595880508423,0.3702974021434784,0.21055349707603455,-1.1116217374801636,0.9999786615371704,0.35141944885253906,0.2105373740196228,-1.111815333366394,0.99997878074646,0.33252543210983276,0.21072015166282654,-1.111932635307312,0.9999779462814331,0.4107867479324341,0.21288615465164185,-0.7316471934318542,0.999932050704956,0.28124815225601196,0.2198815941810608,-0.8730952739715576,0.9999836683273315,0.4038216471672058,0.258667916059494,-0.9985137581825256,0.9999932050704956,0.3667297661304474,0.25938042998313904,-1.0377331972122192,0.9999966621398926,0.49384984374046326,0.3449915945529938,-0.4350176453590393,0.9999579191207886,0.1301751434803009,0.3735141456127167,-0.7248838543891907,0.9999581575393677,0.5437835454940796,0.5074124336242676,-0.17092160880565643,0.9809730052947998,0.1277521401643753,0.5591385960578918,-0.6859912276268005,0.995594322681427,0.6045830845832825,0.6443290114402771,-0.3832819163799286,0.98667311668396,0.19367332756519318,0.7194170951843262,-0.8892953991889954,0.9758154153823853,0.6342941522598267,0.6831366419792175,-0.4720882475376129,0.972301721572876,0.19885963201522827,0.7648288607597351,-0.9918367266654968,0.9523807764053345,0.6175545454025269,0.684008777141571,-0.5737866163253784,0.9747176170349121,0.23500405251979828,0.7576596140861511,-1.07532799243927,0.9557318091392517,0.6002482175827026,0.6751806735992432,-0.4285363256931305,0.9743362069129944,0.24261614680290222,0.742591381072998,-0.9246605038642883,0.9582288861274719,0.45667779445648193,0.6434105634689331,0.09682434797286987,0.9988371729850769,0.27681082487106323,0.6618310213088989,-0.09640462696552277,0.9991705417633057,0.4693237543106079,0.854755699634552,0.32385531067848206,0.9355002045631409,0.3125085234642029,0.8794507384300232,0.07347536832094193,0.9668259024620056,0.484164834022522,0.9685547947883606,1.0554418563842773,0.8214192986488342,0.3411335051059723,0.9934300184249878,0.6746529340744019,0.883573055267334,0.4635695517063141,0.9822601079940796,1.1120190620422363,0.7784209251403809,0.32852205634117126,0.9953305721282959,0.7207541465759277,0.6435281038284302,0.5574084520339966,1.028862714767456,0.8726344108581543,0.760395348072052,0.38546156883239746,1.1071802377700806,0.36124810576438904,0.7585508823394775
18986.761510826393,0.3938477635383606,0.23581543564796448,-1.0656784772872925,0.9999896287918091,0.401716411113739,0.21089956164360046,-1.0210468769073486,0.9999691247940063,0.4105871617794037,0.2101520299911499,-1.0211561918258667,0.9999606609344482,0.4193183183670044,0.20966795086860657,-1.0211865901947021,0.9999545812606812,0.3686330318450928,0.21109804511070251,-1.0468957424163818,0.9999774694442749,0.3493098318576813,0.21104353666305542,-1.0470784902572632,0.999977707862854,0.3306809365749359,0.2112654745578766,-1.0471922159194946,0.9999769926071167,0.4106544852256775,0.2141132950782776,-0.6971119046211243,0.9999293088912964,0.28082093596458435,0.22058039903640747,-0.828694760799408,0.9999840259552002,0.40176504850387573,0.258433073759079,-0.9394748210906982,0.9999926090240479,0.3634434640407562,0.2594054937362671,-0.9758748412132263,0.999996542930603,0.4934697449207306,0.34573614597320557,-0.42521974444389343,0.999956488609314,0.1305513232946396,0.3735484480857849,-0.6879560947418213,0.9999616146087646,0.5411592721939087,0.5049026012420654,-0.1452781856060028,0.9821358323097229,0.12453611195087433,0.5584336519241333,-0.642656683921814,0.9959982633590698,0.603692352771759,0.6391422152519226,-0.2917934060096741,0.987281858921051,0.18631869554519653,0.7217352986335754,-0.8198221921920776,0.9772529006004333,0.6330376863479614,0.6792234778404236,-0.3679264485836029,0.9730367064476013,0.19687098264694214,0.7669752836227417,-0.9119687080383301,0.9544148445129395,0.6160498261451721,0.6796298027038574,-0.46324214339256287,0.9753716588020325,0.2311018705368042,0.7583577632904053,-0.9948872923851013,0.9578203558921814,0.5981141328811646,0.6710848808288574,-0.33237090706825256,0.975432813167572,0.23507250845432281,0.7433165907859802,-0.854598879814148,0.9609708786010742,0.45312193036079407,0.6446405649185181,0.07848489284515381,0.9989103078842163,0.2709008753299713,0.6622276306152344,-0.07808603346347809,0.9992712140083313,0.4698350429534912,0.8565205335617065,0.2952830493450165,0.9455594420433044,0.3093053698539734,0.8839967250823975,0.09305296838283539,0.9644075632095337,0.4856943190097809,0.9730225801467896,1.0035277605056763,0.8233159184455872,0.3405616879463196,0.9951772093772888,0.6755399703979492,0.8726706504821777,0.46592381596565247,0.9845428466796875,1.0590474605560303,0.7746532559394836,0.33324649930000305,0.9945330619812012,0.7211065292358398,0.6263773441314697,0.5500749945640564,1.0352673530578613,0.8341429233551025,0.747055172920227,0.3758549094200134,1.1085071563720703,0.3808204233646393,0.7383139133453369
19003.42817749306,0.3933917284011841,0.24043980240821838,-1.1323847770690918,0.9999921321868896,0.4023781716823578,0.214044451713562,-1.0881438255310059,0.9999773502349854,0.41154417395591736,0.2131635844707489,-1.0882189273834229,0.9999712705612183,0.4202432334423065,0.21258145570755005,-1.0882360935211182,0.9999669790267944,0.36945709586143494,0.21449792385101318,-1.1161744594573975,0.9999829530715942,0.35038092732429504,0.21448925137519836,-1.1163660287857056,0.9999829530715942,0.331398069858551,0.2144046127796173,-1.116473913192749,0.9999821186065674,0.4125080108642578,0.21654823422431946,-0.7544330954551697,0.9999462366104126,0.2800290882587433,0.2231959104537964,-0.8970767855644226,0.9999871253967285,0.40141329169273376,0.2621259391307831,-1.0012372732162476,0.9999948740005493,0.3641650974750519,0.26305869221687317,-1.0407907962799072,0.9999974966049194,0.49605855345726013,0.3458561599254608,-0.47627484798431396,0.999963641166687,0.12833696603775024,0.3722516596317291,-0.7364566326141357,0.9999649524688721,0.5433700084686279,0.5065650939941406,-0.22307388484477997,0.9839657545089722,0.12847362458705902,0.5574194192886353,-0.6903812289237976,0.9960053563117981,0.6051428914070129,0.6429972052574158,-0.43070581555366516,0.9888321161270142,0.18971073627471924,0.7184489965438843,-0.8775375485420227,0.978886067867279,0.6328002214431763,0.6828243136405945,-0.5214566588401794,0.9763461351394653,0.19710849225521088,0.7630888819694519,-0.9738398194313049,0.9585399627685547,0.6160123348236084,0.6834033727645874,-0.6205352544784546,0.9785215854644775,0.23054316639900208,0.7566467523574829,-1.0600587129592896,0.9616904258728027,0.5998790860176086,0.674735963344574,-0.4749620854854584,0.9782872796058655,0.23714062571525574,0.7419406771659851,-0.9137219786643982,0.9644999504089355,0.45948565006256104,0.6385497450828552,0.08110201358795166,0.9986947178840637,0.2784907817840576,0.6574311256408691,-0.08068020641803741,0.9991235136985779,0.46801814436912537,0.851768970489502,0.28404703736305237,0.9451423287391663,0.3154866099357605,0.8761857151985168,0.07548769563436508,0.9682148694992065,0.48506927490234375,0.9710142016410828,0.982140302658081,0.8355260491371155,0.3415340185165405,0.9922457933425903,0.6415494084358215,0.8897492289543152,0.4637369215488434,0.9837265610694885,1.0355050563812256,0.7896608114242554,0.32935965061187744,0.9940409064292908,0.6839892864227295,0.6651912331581116,0.5562392473220825,1.0323997735977173,0.8055886030197144,0.7662350535392761,0.38074278831481934,1.1022964715957642,0.3385067284107208,0.7633286118507385
19020.09484415973,0.39491724967956543,0.23710858821868896,-1.081081509590149,0.9999903440475464,0.4040188491344452,0.2111015021800995,-1.0327764749526978,0.9999723434448242,0.4126397967338562,0.210412859916687,-1.0328744649887085,0.9999641180038452,0.42059001326560974,0.2099672257900238,-1.0328823328018188,0.9999581575393677,0.3708871603012085,0.2114814817905426,-1.0629500150680542,0.9999794960021973,0.35212719440460205,0.21149569749832153,-1.0631252527236938,0.9999794960021973,0.3331366181373596,0.211512953042984,-1.0632262229919434,0.9999786615371704,0.4106278419494629,0.21466049551963806,-0.6981759667396545,0.999932050704956,0.28224867582321167,0.22026491165161133,-0.8505114316940308,0.999984860420227,0.4021567702293396,0.25923213362693787,-0.9518867135047913,0.9999934434890747,0.3658859431743622,0.26008519530296326,-0.9941194653511047,0.9999969005584717,0.4928443431854248,0.3460824489593506,-0.427142858505249,0.999957799911499,0.12722107768058777,0.37309902906417847,-0.7119014859199524,0.9999611377716064,0.54160475730896,0.5068935751914978,-0.1622285693883896,0.98146653175354,0.12885113060474396,0.55952388048172,-0.6764691472053528,0.9955763816833496,0.6065716743469238,0.6436393857002258,-0.3472776710987091,0.9876892566680908,0.18987150490283966,0.7222626805305481,-0.861200213432312,0.9775053858757019,0.6351935267448425,0.6833478212356567,-0.4320155680179596,0.9745053052902222,0.19581297039985657,0.7664675712585449,-0.9586929678916931,0.9568285942077637,0.6180053353309631,0.6840258240699768,-0.530455470085144,0.9767257571220398,0.23116959631443024,0.7592339515686035,-1.0456488132476807,0.9600819945335388,0.6016765832901001,0.6749664545059204,-0.39067164063453674,0.976622462272644,0.23789624869823456,0.7451320886611938,-0.897711992263794,0.9627833366394043,0.4560564458370209,0.6440591216087341,0.09175731241703033,0.9990624785423279,0.27407392859458923,0.6621713638305664,-0.09138821810483932,0.9993458390235901,0.46893706917762756,0.8522614240646362,0.3255985975265503,0.9439237713813782,0.30992990732192993,0.8788079619407654,0.09361827373504639,0.9673319458961487,0.4836386740207672,0.9686167240142822,1.0516607761383057,0.834789514541626,0.3415638506412506,0.9884659647941589,0.69908207654953,0.8895270824432373,0.46140360832214355,0.981181263923645,1.1083903312683105,0.7974295616149902,0.3333760201931,0.9909917712211609,0.7461851835250854,0.6692442297935486,0.5502524375915527,1.0309711694717407,0.8847606182098389,0.7701590657234192,0.3708389699459076,1.0996639728546143,0.4059133529663086,0.7680739760398865
19036.761510826396,0.3946484625339508,0.23975929617881775,-1.0921404361724854,0.9999910593032837,0.4046723544597626,0.2133985161781311,-1.0456675291061401,0.9999740123748779,0.413241446018219,0.21271389722824097,-1.04578697681427,0.9999667406082153,0.421170175075531,0.21222305297851562,-1.0458223819732666,0.9999613761901855,0.37194034457206726,0.2139316201210022,-1.0760829448699951,0.9999803304672241,0.3536195755004883,0.2139519453048706,-1.0762654542922974,0.999980092048645,0.3343120515346527,0.21385812759399414,-1.0763763189315796,0.9999790191650391,0.41135722398757935,0.21645110845565796,-0.7094515562057495,0.9999420642852783,0.28219252824783325,0.22206398844718933,-0.8625073432922363,0.9999856948852539,0.40157103538513184,0.26175791025161743,-0.9606512784957886,0.999994158744812,0.366430401802063,0.2622785270214081,-1.0032720565795898,0.9999971389770508,0.49299049377441406,0.34502217173576355,-0.4300297200679779,0.9999661445617676,0.12716206908226013,0.37245500087738037,-0.7102832794189453,0.9999644756317139,0.5417046546936035,0.505072832107544,-0.15894892811775208,0.984233021736145,0.12725946307182312,0.558882474899292,-0.6681671142578125,0.9957898259162903,0.6044192910194397,0.6412680149078369,-0.3480373024940491,0.9893234372138977,0.19018372893333435,0.7205183506011963,-0.8609613180160522,0.9782268404960632,0.6340323686599731,0.6812069416046143,-0.4332394301891327,0.9772465229034424,0.19911551475524902,0.7655987739562988,-0.9589530825614929,0.9577269554138184,0.6151341795921326,0.6816362738609314,-0.533137857913971,0.9793466925621033,0.23364247381687164,0.7582724690437317,-1.0457158088684082,0.9610005021095276,0.5976268649101257,0.6728287935256958,-0.3916964828968048,0.9792399406433105,0.23897302150726318,0.7436801195144653,-0.8971981406211853,0.963334858417511,0.4547749161720276,0.6423667669296265,0.085132896900177,0.9988908171653748,0.2725801467895508,0.6607966423034668,-0.08467130362987518,0.9992313385009766,0.47017553448677063,0.8547616600990295,0.28551340103149414,0.9434697031974792,0.30961140990257263,0.8837735652923584,0.07776543498039246,0.9639918804168701,0.48815059661865234,0.968155026435852,1.0296770334243774,0.8091193437576294,0.34278053045272827,0.9942563772201538,0.6744254231452942,0.8769983053207397,0.468754380941391,0.980537474155426,1.0884500741958618,0.7728602290153503,0.3335225284099579,0.9933948516845703,0.7205851674079895,0.6415767073631287,0.5558921694755554,1.0320593118667603,0.8658416867256165,0.7379855513572693,0.37906232476234436,1.110568881034851,0.3730015754699707,0.7442170977592468
19053.428177493064,0.3955996334552765,0.23641711473464966,-1.1090545654296875,0.9999903440475464,0.404694139957428,0.21092179417610168,-1.061881422996521,0.9999723434448242,0.413485050201416,0.21011260151863098,-1.061962366104126,0.999964714050293,0.4216461777687073,0.20955204963684082,-1.0619573593139648,0.9999589920043945,0.37123000621795654,0.21140247583389282,-1.0907288789749146,0.9999796152114868,0.35202115774154663,0.21117150783538818,-1.0909204483032227,0.9999796152114868,0.3327256739139557,0.21153980493545532,-1.0910362005233765,0.9999786615371704,0.4129457473754883,0.21453338861465454,-0.7263877391815186,0.9999347925186157,0.28004494309425354,0.22049731016159058,-0.872109055519104,0.9999850988388062,0.40213799476623535,0.2590678632259369,-0.9790318012237549,0.9999936819076538,0.3667312562465668,0.2604362964630127,-1.0194153785705566,0.9999969005584717,0.4961869716644287,0.344789981842041,-0.4456081986427307,0.9999573230743408,0.12714716792106628,0.37439364194869995,-0.7296785712242126,0.9999644756317139,0.5431279540061951,0.5074992179870605,-0.18142633140087128,0.9818893671035767,0.1291103959083557,0.5581322908401489,-0.6888126134872437,0.9959043860435486,0.6042269468307495,0.6435135006904602,-0.3704352378845215,0.9876877665519714,0.19561581313610077,0.7192751169204712,-0.8729007840156555,0.9777225255966187,0.6333645582199097,0.683763325214386,-0.4552537500858307,0.9745951890945435,0.20256440341472626,0.7630007863044739,-0.9698357582092285,0.95679771900177,0.6153262853622437,0.6846718192100525,-0.5555187463760376,0.9767980575561523,0.23628480732440948,0.7578364014625549,-1.0564533472061157,0.9600737690925598,0.59846031665802,0.6760912537574768,-0.41443076729774475,0.9766353368759155,0.24299269914627075,0.7435697317123413,-0.9093897938728333,0.962843656539917,0.4564497470855713,0.6436591148376465,0.09434022754430771,0.9988890290260315,0.27712827920913696,0.6615620851516724,-0.09390567243099213,0.9993144273757935,0.46965181827545166,0.851310133934021,0.3310735821723938,0.9528779983520508,0.3116292655467987,0.8772817254066467,0.0806623101234436,0.9761345982551575,0.48236310482025146,0.9682188630104065,1.050405740737915,0.8606928586959839,0.3417876660823822,0.9912974238395691,0.6706668138504028,0.9117038249969482,0.46051716804504395,0.9816582798957825,1.1057026386260986,0.8195294141769409,0.334060400724411,0.9933041930198669,0.7154763340950012,0.7026210427284241,0.5572342872619629,1.0283132791519165,0.877526044845581,0.7971339225769043,0.3745219111442566,1.1000056266784668,0.3690486252307892,0.7996962070465088
19070.094844159732,0.39308327436447144,0.23952241241931915,-1.1442362070083618,0.9999903440475464,0.4021795988082886,0.21323037147521973,-1.098010778427124,0.9999735355377197,0.41133493185043335,0.21232390403747559,-1.0980850458145142,0.9999663829803467,0.41992753744125366,0.21162691712379456,-1.098096489906311,0.9999610185623169,0.3690124750137329,0.21388587355613708,-1.1276618242263794,0.9999792575836182,0.34974604845046997,0.2136821746826172,-1.1278722286224365,0.9999793767929077,0.3311198353767395,0.2140411138534546,-1.1279830932617188,0.9999780654907227,0.41376104950904846,0.2154712975025177,-0.7592219114303589,0.999937891960144,0.2784866392612457,0.2226412296295166,-0.9089629650115967,0.9999845027923584,0.4005297124385834,0.26104843616485596,-1.0119785070419312,0.9999939203262329,0.3650972843170166,0.26231569051742554,-1.0535176992416382,0.9999969005584717,0.497624009847641,0.34345516562461853,-0.47432848811149597,0.999962568283081,0.12906436622142792,0.3748248219490051,-0.7536449432373047,0.9999583959579468,0.5436719655990601,0.5071858167648315,-0.21322205662727356,0.9842961430549622,0.13104954361915588,0.5582597851753235,-0.7101901769638062,0.996129035949707,0.6055377721786499,0.643820583820343,-0.4217400848865509,0.9898170232772827,0.19597941637039185,0.7182309627532959,-0.8977376222610474,0.9791832566261292,0.6346029043197632,0.6844154596328735,-0.5113139152526855,0.9782714247703552,0.2004968672990799,0.7632188200950623,-0.9962239265441895,0.9590160250663757,0.6174440979957581,0.684831440448761,-0.6131822466850281,0.9802583456039429,0.23512014746665955,0.7580169439315796,-1.0837656259536743,0.9620935320854187,0.6012858152389526,0.6764510273933411,-0.4668065011501312,0.9799119830131531,0.24315869808197021,0.7434139251708984,-0.9345100522041321,0.9646109342575073,0.4604555070400238,0.6397424936294556,0.09001562744379044,0.9989655017852783,0.2813376784324646,0.657504677772522,-0.08963944017887115,0.999241828918457,0.46814560890197754,0.8498601913452148,0.3005058765411377,0.948158323764801,0.31094279885292053,0.876258373260498,0.07846507430076599,0.9710227251052856,0.48314541578292847,0.9682512283325195,1.0396844148635864,0.8472051024436951,0.3419632017612457,0.9855109453201294,0.6859768629074097,0.9003408551216125,0.46148717403411865,0.9805580377578735,1.0969849824905396,0.8047739267349243,0.3365788161754608,0.9875895380973816,0.7327399849891663,0.6797577738761902,0.544497013092041,1.032528042793274,0.8645234107971191,0.7847800850868225,0.37036386132240295,1.0976817607879639,0.38456714153289795,0.7840487957000732
19086.7615108264,0.3940677344799042,0.23784784972667694,-1.1042784452438354,0.9999911785125732,0.40456512570381165,0.2118223011493683,-1.059097409248352,0.9999756813049316,0.41370296478271484,0.2110534906387329,-1.0591758489608765,0.9999687671661377,0.4220971167087555,0.2105487883090973,-1.0591809749603271,0.9999635219573975,0.37031564116477966,0.21223211288452148,-1.0878461599349976,0.9999817609786987,0.3514788746833801,0.2119905650615692,-1.0880661010742188,0.9999819993972778,0.3326635956764221,0.21225517988204956,-1.0881850719451904,0.999981164932251,0.4153362214565277,0.21539711952209473,-0.7295539379119873,0.9999445676803589,0.28063052892684937,0.22093415260314941,-0.8753148317337036,0.9999874830245972,0.4011269509792328,0.26039981842041016,-0.9759478569030762,0.9999945163726807,0.36542320251464844,0.26147085428237915,-1.0162830352783203,0.9999973773956299,0.49586179852485657,0.34379759430885315,-0.4498685598373413,0.9999595880508423,0.13036735355854034,0.37302079796791077,-0.7349821329116821,0.9999675750732422,0.5423914194107056,0.5073420405387878,-0.18166087567806244,0.9814251661300659,0.12861526012420654,0.5588201880455017,-0.6966596841812134,0.9965236783027649,0.6032599210739136,0.6439406275749207,-0.35806331038475037,0.9877008199691772,0.1958991438150406,0.7198550701141357,-0.8783420920372009,0.9800958633422852,0.6322531700134277,0.6832172870635986,-0.440202921628952,0.9746907949447632,0.20194783806800842,0.764143705368042,-0.9735652804374695,0.9604958891868591,0.614360511302948,0.6842036843299866,-0.5398101806640625,0.9769203662872314,0.23411475121974945,0.7597138285636902,-1.0578906536102295,0.9635134339332581,0.597985565662384,0.6758466958999634,-0.40131473541259766,0.976976215839386,0.241292804479599,0.7450317144393921,-0.9135401844978333,0.966230034828186,0.45818841457366943,0.6411398649215698,0.09389439970254898,0.9988906979560852,0.2810952067375183,0.6598053574562073,-0.09346763789653778,0.9992759823799133,0.46949854493141174,0.8481011986732483,0.2987019121646881,0.9419912099838257,0.31088322401046753,0.8779404163360596,0.06468821316957474,0.9692678451538086,0.48396581411361694,0.9658284783363342,1.0162253379821777,0.8247100710868835,0.340988427400589,0.9843960404396057,0.6477988362312317,0.8871328830718994,0.4613880217075348,0.9787047505378723,1.0721442699432373,0.7868718504905701,0.33494696021080017,0.9884684085845947,0.692598819732666,0.6582202911376953,0.5471950769424438,1.0304151773452759,0.8503223061561584,0.7532792687416077,0.3750220537185669,1.1022288799285889,0.3491555154323578,0.7550622820854187
19103.428177493068,0.3983699679374695,0.23815356194972992,-1.0751566886901855,0.9999915361404419,0.40652263164520264,0.21187332272529602,-1.0286790132522583,0.9999760389328003,0.4147210121154785,0.21096321940422058,-1.0287559032440186,0.9999698400497437,0.42239102721214294,0.21023812890052795,-1.0287134647369385,0.9999650716781616,0.3736492097377777,0.21307265758514404,-1.0595341920852661,0.9999819993972778,0.35585352778434753,0.2131025195121765,-1.059707760810852,0.9999817609786987,0.33613917231559753,0.2133270800113678,-1.0597991943359375,0.9999805688858032,0.4113997220993042,0.21495568752288818,-0.7003493905067444,0.9999426603317261,0.2840597629547119,0.22149860858917236,-0.8556568026542664,0.9999853372573853,0.4057338237762451,0.25980398058891296,-0.9478139281272888,0.999994158744812,0.37223875522613525,0.261508971452713,-0.9908512234687805,0.9999971389770508,0.49302050471305847,0.34407517313957214,-0.4471392333507538,0.9999642372131348,0.13197694718837738,0.3739528954029083,-0.7176429033279419,0.9999582767486572,0.5418887734413147,0.5063749551773071,-0.2176135927438736,0.9841213226318359,0.12710469961166382,0.5594531297683716,-0.6952045559883118,0.9956350922584534,0.6038995981216431,0.6438475847244263,-0.42209604382514954,0.9898058772087097,0.1906188726425171,0.7200349569320679,-0.8743317127227783,0.9766977429389954,0.633952260017395,0.6845591068267822,-0.5126241445541382,0.9783092141151428,0.19978752732276917,0.7635890245437622,-0.9681503176689148,0.9551385045051575,0.6171091794967651,0.6850159168243408,-0.6081348061561584,0.9801324009895325,0.23255717754364014,0.7556629180908203,-1.054124355316162,0.9583867788314819,0.600219190120697,0.676453709602356,-0.4649218022823334,0.9798634648323059,0.23767094314098358,0.7403534650802612,-0.910224437713623,0.9615961313247681,0.457082599401474,0.643760085105896,0.08420690894126892,0.9988166093826294,0.2781638503074646,0.6603682041168213,-0.08380817621946335,0.9991949200630188,0.47006314992904663,0.8458813428878784,0.3065745532512665,0.9504626989364624,0.3077658414840698,0.8756204843521118,0.09019912034273148,0.9703922271728516,0.4815230667591095,0.9663264751434326,0.999442458152771,0.8603786826133728,0.3374013900756836,0.9882170557975769,0.659135639667511,0.9061026573181152,0.45857760310173035,0.9821327328681946,1.052269458770752,0.8191236853599548,0.33292466402053833,0.9919061660766602,0.7016041874885559,0.7049524188041687,0.5538316965103149,1.0226528644561768,0.8340336084365845,0.7999200224876404,0.359639972448349,1.0972561836242676,0.36735644936561584,0.796440601348877
19120.094844159736,0.39745932817459106,0.23620134592056274,-1.0900899171829224,0.9999892711639404,0.4047366976737976,0.2105555236339569,-1.0405879020690918,0.9999701976776123,0.4129040837287903,0.2098844051361084,-1.0406553745269775,0.9999622106552124,0.42051422595977783,0.20936498045921326,-1.0406100749969482,0.9999561309814453,0.37231722474098206,0.21130627393722534,-1.070817232131958,0.9999784231185913,0.35459479689598083,0.21141156554222107,-1.0710095167160034,0.9999785423278809,0.3356279134750366,0.2116071581840515,-1.0711085796356201,0.9999779462814331,0.408849835395813,0.21453100442886353,-0.7097463011741638,0.9999227523803711,0.28386807441711426,0.22094255685806274,-0.8623871207237244,0.9999828338623047,0.40437769889831543,0.258431613445282,-0.9636794924736023,0.9999922513961792,0.37004879117012024,0.25988608598709106,-1.0059763193130493,0.9999964237213135,0.4925059676170349,0.34705281257629395,-0.45421841740608215,0.9999388456344604,0.12912535667419434,0.3746897280216217,-0.7295533418655396,0.9999513626098633,0.538522481918335,0.5089834928512573,-0.21833550930023193,0.9783097505569458,0.13063356280326843,0.559411883354187,-0.7023689150810242,0.9955691695213318,0.6018723249435425,0.6432966589927673,-0.416553258895874,0.9849740266799927,0.1947816014289856,0.7180922031402588,-0.8763391375541687,0.9758428931236267,0.631105899810791,0.68220055103302,-0.5046247839927673,0.9694889783859253,0.20342986285686493,0.7632901072502136,-0.9702540040016174,0.9530496001243591,0.6138416528701782,0.6830371618270874,-0.598857045173645,0.971991777420044,0.2348533719778061,0.7577924728393555,-1.052970290184021,0.9562475681304932,0.5971495509147644,0.6747775673866272,-0.45923593640327454,0.9717229008674622,0.24142609536647797,0.7428556680679321,-0.9110738635063171,0.9594563245773315,0.45882871747016907,0.6426622271537781,0.08957485109567642,0.9987480640411377,0.28072792291641235,0.6615554690361023,-0.0892709344625473,0.9991831183433533,0.47073113918304443,0.8458829522132874,0.3380111753940582,0.9457648396492004,0.3114176392555237,0.8753345012664795,0.09915328770875931,0.9704992175102234,0.48074015974998474,0.9655731320381165,1.017043113708496,0.8629451394081116,0.33818358182907104,0.985390305519104,0.6688010096549988,0.9035397171974182,0.45834439992904663,0.9798598885536194,1.067988395690918,0.8139001131057739,0.33041316270828247,0.9880810976028442,0.7110699415206909,0.6852768063545227,0.550213634967804,1.0233259201049805,0.8398802280426025,0.8062593936920166,0.3680858612060547,1.094709873199463,0.36950576305389404,0.793204665184021
19136.761510826404,0.3962089419364929,0.23538276553153992,-1.073142170906067,0.9999911785125732,0.40298202633857727,0.2092524766921997,-1.0202749967575073,0.9999759197235107,0.4114767611026764,0.20844954252243042,-1.0203670263290405,0.9999696016311646,0.4192625880241394,0.20789575576782227,-1.0202935934066772,0.999964714050293,0.37105873227119446,0.2099224030971527,-1.0512796640396118,0.9999815225601196,0.35299837589263916,0.20986837148666382,-1.0514330863952637,0.9999814033508301,0.3339848518371582,0.2099475860595703,-1.0515217781066895,0.9999802112579346,0.40687283873558044,0.21312442421913147,-0.6812581419944763,0.99993896484375,0.2828545570373535,0.219393789768219,-0.837260901927948,0.9999841451644897,0.40398934483528137,0.2574835419654846,-0.9446079134941101,0.9999935626983643,0.36930665373802185,0.2587326765060425,-0.9879856109619141,0.9999967813491821,0.49130845069885254,0.34655076265335083,-0.4305342733860016,0.9999520778656006,0.12874193489551544,0.37403514981269836,-0.7047550082206726,0.9999446868896484,0.5371021628379822,0.5097043514251709,-0.18665510416030884,0.9803449511528015,0.13025230169296265,0.5599590539932251,-0.6780123114585876,0.9944275617599487,0.6045461893081665,0.6451261043548584,-0.37941983342170715,0.9863325953483582,0.1912984848022461,0.7169958353042603,-0.8603882193565369,0.972287654876709,0.6319372653961182,0.6848106384277344,-0.4657105803489685,0.9716373682022095,0.1990499049425125,0.762358546257019,-0.9547839760780334,0.9479541182518005,0.6154533624649048,0.6858654022216797,-0.5595805048942566,0.9739270210266113,0.23318207263946533,0.756269633769989,-1.0390207767486572,0.9516225457191467,0.6000792980194092,0.6770122647285461,-0.4214538633823395,0.9739224314689636,0.23961889743804932,0.7412525415420532,-0.8956740498542786,0.9547772407531738,0.45603400468826294,0.6436411738395691,0.08617576956748962,0.9990907907485962,0.27749329805374146,0.6603575944900513,-0.08586607873439789,0.9992966651916504,0.470318078994751,0.846878707408905,0.3224934935569763,0.948971688747406,0.31094732880592346,0.8742285370826721,0.10709245502948761,0.9693049192428589,0.4833381175994873,0.9674677848815918,1.0486992597579956,0.8684596419334412,0.34123119711875916,0.9881172180175781,0.7116549611091614,0.9076704978942871,0.4631253182888031,0.9818392992019653,1.1045987606048584,0.8280192017555237,0.3339740037918091,0.9927181601524353,0.7583038210868835,0.7048100233078003,0.5502685308456421,1.0250754356384277,0.876847505569458,0.8168758153915405,0.36970171332359314,1.0947257280349731,0.41925346851348877,0.8072236180305481
19153.42817749307,0.3988538980484009,0.2357061803340912,-1.0761663913726807,0.9999895095825195,0.40526407957077026,0.20974144339561462,-1.0269584655761719,0.9999712705612183,0.41330474615097046,0.2089954912662506,-1.027068853378296,0.9999641180038452,0.4207580089569092,0.20844373106956482,-1.0270617008209229,0.9999583959579468,0.3738822042942047,0.21058905124664307,-1.056960105895996,0.9999780654907227,0.35624364018440247,0.21061971783638,-1.0571190118789673,0.9999780654907227,0.33695313334465027,0.21079513430595398,-1.0572351217269897,0.9999767541885376,0.40738338232040405,0.21348944306373596,-0.6918575167655945,0.999936580657959,0.28420430421829224,0.22004055976867676,-0.8423803448677063,0.9999834299087524,0.40576738119125366,0.257880836725235,-0.9474217295646667,0.9999933242797852,0.3722163438796997,0.2593177855014801,-0.9891440868377686,0.9999966621398926,0.49347570538520813,0.3464537262916565,-0.42698729038238525,0.9999490976333618,0.1277609020471573,0.37390586733818054,-0.7042105197906494,0.999947190284729,0.5421050190925598,0.5079379081726074,-0.16612493991851807,0.9821573495864868,0.1312997043132782,0.5601876378059387,-0.6700138449668884,0.9953014850616455,0.603110671043396,0.6463072896003723,-0.3549315929412842,0.9867992997169495,0.1945815086364746,0.7195390462875366,-0.8575603365898132,0.9746348261833191,0.6338249444961548,0.6858479380607605,-0.44240686297416687,0.9726049900054932,0.2035476565361023,0.7613646984100342,-0.9545049071311951,0.9514521360397339,0.6168749332427979,0.6865487098693848,-0.5394103527069092,0.9749037623405457,0.23593151569366455,0.7537453770637512,-1.0398080348968506,0.9549700617790222,0.5995210409164429,0.6781970262527466,-0.39779359102249146,0.9749438762664795,0.24129951000213623,0.7382087707519531,-0.8931915163993835,0.9578343629837036,0.457405686378479,0.6463820934295654,0.08560334891080856,0.9987329840660095,0.2778014540672302,0.6632352471351624,-0.08510436117649078,0.9991124272346497,0.4711829721927643,0.8538721203804016,0.30658143758773804,0.9478509426116943,0.3097738027572632,0.8845743536949158,0.0803191065788269,0.9675890207290649,0.48365262150764465,0.970585823059082,1.0214446783065796,0.8354631662368774,0.3416009545326233,0.9961979389190674,0.6630861759185791,0.8800281882286072,0.46210458874702454,0.9845489263534546,1.076268196105957,0.7904666066169739,0.33635997772216797,0.9982119202613831,0.7075532674789429,0.6500595808029175,0.5448064208030701,1.0341417789459229,0.8412547707557678,0.7603568434715271,0.3744327127933502,1.1105722188949585,0.35468539595603943,0.7447820901870728
19170.09484415974,0.3971260190010071,0.23658892512321472,-1.1172139644622803,0.999988317489624,0.4046702980995178,0.21088910102844238,-1.0691052675247192,0.9999676942825317,0.41267073154449463,0.21021273732185364,-1.0691813230514526,0.9999594688415527,0.42040568590164185,0.20972785353660583,-1.06916344165802,0.9999525547027588,0.3728431761264801,0.21157094836235046,-1.0988507270812988,0.9999761581420898,0.35548508167266846,0.21174955368041992,-1.0990495681762695,0.9999760389328003,0.336529403924942,0.21200400590896606,-1.099171757698059,0.9999748468399048,0.40900689363479614,0.21472159028053284,-0.7345792651176453,0.9999233484268188,0.2846844494342804,0.22140249609947205,-0.8844500184059143,0.9999814033508301,0.40399399399757385,0.25867322087287903,-0.9882800579071045,0.9999918937683105,0.3703850507736206,0.26017865538597107,-1.0298508405685425,0.9999960660934448,0.49582424759864807,0.34602540731430054,-0.46947991847991943,0.9999408721923828,0.13151884078979492,0.37323832511901855,-0.7352810502052307,0.9999493360519409,0.5389477610588074,0.5088003873825073,-0.22227029502391815,0.9812730550765991,0.1273288130760193,0.5573940873146057,-0.6996805667877197,0.9953502416610718,0.602392315864563,0.6455269455909729,-0.42008545994758606,0.9865555763244629,0.19273269176483154,0.7165787816047668,-0.8826286196708679,0.9771361351013184,0.6324276924133301,0.6851384043693542,-0.5072175860404968,0.9718656539916992,0.19982731342315674,0.7614611983299255,-0.9771288633346558,0.9553038477897644,0.6164987683296204,0.6855877041816711,-0.6058970093727112,0.9741699695587158,0.23339426517486572,0.7547991275787354,-1.0626955032348633,0.9585059285163879,0.6000675559043884,0.6771413087844849,-0.4640447795391083,0.9741165041923523,0.24049986898899078,0.7400161027908325,-0.9184241890907288,0.9611248970031738,0.4549387991428375,0.643900990486145,0.08099920302629471,0.9986135959625244,0.27519237995147705,0.6589566469192505,-0.08063444495201111,0.999119222164154,0.4702190160751343,0.8484381437301636,0.29440054297447205,0.9541773200035095,0.308709979057312,0.8758238554000854,0.08225864171981812,0.9724128842353821,0.48097413778305054,0.9697399139404297,1.0048784017562866,0.8660088777542114,0.34078043699264526,0.9892701506614685,0.6659506559371948,0.9099270105361938,0.45724090933799744,0.983627438545227,1.0583176612854004,0.8166840076446533,0.3370084762573242,0.9927352070808411,0.7093542814254761,0.7004522681236267,0.5506800413131714,1.027766227722168,0.8236011862754822,0.8014940023422241,0.36488306522369385,1.0975115299224854,0.360500693321228,0.8035877346992493
19186.761510826407,0.39763742685317993,0.23649433255195618,-1.1296132802963257,0.9999878406524658,0.405659556388855,0.21109482645988464,-1.0810050964355469,0.9999672174453735,0.41344738006591797,0.21026074886322021,-1.081110954284668,0.9999597072601318,0.42106151580810547,0.20964503288269043,-1.081129789352417,0.9999529123306274,0.37298211455345154,0.2121134102344513,-1.1121639013290405,0.999974250793457,0.35544678568840027,0.21224993467330933,-1.1123565435409546,0.9999741315841675,0.33615735173225403,0.21270769834518433,-1.112481951713562,0.9999722242355347,0.41004952788352966,0.21479937434196472,-0.7382416725158691,0.9999266862869263,0.2851191461086273,0.2222604751586914,-0.8938837647438049,0.9999802112579346,0.40451478958129883,0.25855356454849243,-0.9965450763702393,0.9999922513961792,0.37083351612091064,0.26025909185409546,-1.039846420288086,0.9999959468841553,0.49564844369888306,0.3453107476234436,-0.459358811378479,0.9999557733535767,0.13377515971660614,0.37269219756126404,-0.7391231656074524,0.9999488592147827,0.5415256023406982,0.5085033178329468,-0.2094033658504486,0.9821288585662842,0.12556904554367065,0.5581880211830139,-0.7021453976631165,0.9954848289489746,0.6036839485168457,0.6452510356903076,-0.42765751481056213,0.9879637956619263,0.19364924728870392,0.717754602432251,-0.8960903286933899,0.9765791893005371,0.6334744095802307,0.6847410798072815,-0.5188743472099304,0.974794864654541,0.20032678544521332,0.7630707025527954,-0.9951494932174683,0.9544972777366638,0.6170615553855896,0.6852824687957764,-0.6202735304832458,0.9770855903625488,0.2342933863401413,0.7578623294830322,-1.0814049243927002,0.9577509164810181,0.6004931330680847,0.676893413066864,-0.47304460406303406,0.9767266511917114,0.24181042611598969,0.7430874109268188,-0.9323636889457703,0.960118293762207,0.4554865062236786,0.6431876420974731,0.0865086168050766,0.9987879395484924,0.2759447395801544,0.6593860983848572,-0.08608166873455048,0.9991397857666016,0.46948567032814026,0.8504101634025574,0.3007354736328125,0.9483493566513062,0.3113139867782593,0.8734395503997803,0.0806174948811531,0.9702451825141907,0.4825945794582367,0.9681451916694641,1.039074182510376,0.8508764505386353,0.34248095750808716,0.9907305836677551,0.6864595413208008,0.900841474533081,0.4617255926132202,0.981941819190979,1.095749020576477,0.8039277791976929,0.33595436811447144,0.9933453798294067,0.7327011823654175,0.6815304756164551,0.5471349954605103,1.0300419330596924,0.8601899147033691,0.7874491810798645,0.3686324954032898,1.1003097295761108,0.38123777508735657,0.7877988815307617
19203.428177493075,0.3999319076538086,0.23852361738681793,-1.050720453262329,0.9999914169311523,0.4072962701320648,0.21178904175758362,-1.0054090023040771,0.9999756813049316,0.4150964915752411,0.21105173230171204,-1.0055115222930908,0.9999693632125854,0.42235344648361206,0.21041178703308105,-1.0055145025253296,0.9999645948410034,0.3758019208908081,0.21307775378227234,-1.0361237525939941,0.9999818801879883,0.3583458960056305,0.21330499649047852,-1.0362889766693115,0.9999816417694092,0.33822333812713623,0.21362391114234924,-1.0363911390304565,0.9999808073043823,0.40916910767555237,0.2152637541294098,-0.6828866004943848,0.9999464750289917,0.28384721279144287,0.22236347198486328,-0.8371384739875793,0.9999867677688599,0.40627521276474,0.2604182958602905,-0.9251660704612732,0.9999943971633911,0.37341952323913574,0.26233577728271484,-0.9679889678955078,0.9999972581863403,0.4924008846282959,0.3450314700603485,-0.4296291768550873,0.9999589920043945,0.12825210392475128,0.372738242149353,-0.6975724697113037,0.9999574422836304,0.5416484475135803,0.5076349377632141,-0.17478391528129578,0.983812153339386,0.12379246950149536,0.5591927766799927,-0.6610533595085144,0.9960736036300659,0.6050997972488403,0.6454402208328247,-0.3546651303768158,0.9884989857673645,0.1943259835243225,0.7205209136009216,-0.8331418633460999,0.9789207577705383,0.6346813440322876,0.6859702467918396,-0.4410901963710785,0.975702702999115,0.20385833084583282,0.7622783184051514,-0.925316572189331,0.9585458040237427,0.6168776750564575,0.6866190433502197,-0.5353879332542419,0.9778076410293579,0.23745763301849365,0.7537544965744019,-1.0080679655075073,0.9616079330444336,0.59977787733078,0.6780698895454407,-0.396225243806839,0.9779516458511353,0.24235105514526367,0.7381880879402161,-0.8670993447303772,0.9640449285507202,0.4584747552871704,0.645037829875946,0.07728434354066849,0.998784601688385,0.27752143144607544,0.6616066098213196,-0.07681235671043396,0.9991532564163208,0.4692676067352295,0.8578647375106812,0.2778080403804779,0.9482817053794861,0.31176918745040894,0.8866703510284424,0.07939626276493073,0.9647279977798462,0.4853093922138214,0.9719151258468628,0.9803406596183777,0.8283002376556396,0.34243613481521606,0.9966473579406738,0.6470934748649597,0.8745627403259277,0.464390367269516,0.9848623871803284,1.034932017326355,0.7851697206497192,0.3372829854488373,0.9976234436035156,0.6907839775085449,0.644847571849823,0.5456913113594055,1.0367119312286377,0.8126168251037598,0.7518432140350342,0.3727026879787445,1.1106127500534058,0.35127201676368713,0.7379782199859619
19220.094844159743,0.3961171805858612,0.2380063384771347,-1.0885236263275146,0.9999909400939941,0.4032157361507416,0.2125421166419983,-1.0409798622131348,0.9999752044677734,0.4117063879966736,0.21188119053840637,-1.0410919189453125,0.9999691247940063,0.41962531208992004,0.21144932508468628,-1.0411092042922974,0.9999641180038452,0.37226787209510803,0.21231985092163086,-1.0713984966278076,0.9999805688858032,0.3543544411659241,0.21211335062980652,-1.0715745687484741,0.9999806880950928,0.3356114625930786,0.21193158626556396,-1.0716842412948608,0.9999793767929077,0.4072926640510559,0.21582454442977905,-0.7052224278450012,0.999945878982544,0.28331801295280457,0.22092607617378235,-0.858076274394989,0.9999856948852539,0.40291619300842285,0.2601902186870575,-0.9581698179244995,0.999994158744812,0.3687035143375397,0.2607087194919586,-1.000709891319275,0.9999970197677612,0.4915059804916382,0.3462862968444824,-0.4333683252334595,0.999962568283081,0.12849588692188263,0.3720589280128479,-0.7101439237594604,0.9999572038650513,0.5403686165809631,0.507813572883606,-0.1626480370759964,0.98250812292099,0.12389903515577316,0.5562220811843872,-0.6704053282737732,0.9959287047386169,0.6017748117446899,0.6431050896644592,-0.348122239112854,0.9880757331848145,0.18316872417926788,0.7179631590843201,-0.8599666953086853,0.9777857661247253,0.6315882802009583,0.6841286420822144,-0.43325498700141907,0.9748032689094543,0.1954338252544403,0.7646236419677734,-0.9561828970909119,0.9565253853797913,0.6135058999061584,0.6849676966667175,-0.5326884388923645,0.9770886301994324,0.22891972959041595,0.7577252388000488,-1.0417205095291138,0.9597176909446716,0.5967071652412415,0.6760756969451904,-0.3918389081954956,0.9770982265472412,0.232294961810112,0.7417793869972229,-0.8957887887954712,0.9624059200286865,0.4558587968349457,0.641373336315155,0.08151794970035553,0.9988553524017334,0.27312952280044556,0.6575226187705994,-0.08099314570426941,0.99915611743927,0.4704539179801941,0.8546189069747925,0.2687288820743561,0.9405069351196289,0.3133528232574463,0.882666289806366,0.06879888474941254,0.9614648818969727,0.4876929223537445,0.971481204032898,0.9981914162635803,0.8036577701568604,0.34370991587638855,0.9915626645088196,0.6574501395225525,0.8625399470329285,0.4683101177215576,0.9844613671302795,1.0549709796905518,0.7628076672554016,0.3371235728263855,0.9927703738212585,0.7029213905334473,0.6241276860237122,0.5500635504722595,1.0333459377288818,0.8242783546447754,0.7235586047172546,0.3776880204677582,1.1063300371170044,0.35426363348960876,0.7189354300498962
19236.76151082641,0.3951354920864105,0.23763605952262878,-1.1099586486816406,0.9999905824661255,0.4022452235221863,0.21147561073303223,-1.0618289709091187,0.999972939491272,0.4111518859863281,0.210575133562088,-1.061949372291565,0.9999667406082153,0.4194321036338806,0.2100081741809845,-1.0619674921035767,0.999961256980896,0.3699871599674225,0.21176502108573914,-1.0912549495697021,0.9999783039093018,0.3516427278518677,0.21162280440330505,-1.0914212465286255,0.9999785423278809,0.3329721987247467,0.2114715576171875,-1.091516137123108,0.999976634979248,0.4088077247142792,0.2143898904323578,-0.7182911038398743,0.9999390840530396,0.28128907084465027,0.22051548957824707,-0.8664240837097168,0.9999828338623047,0.40332019329071045,0.25938835740089417,-0.9761367440223694,0.9999936819076538,0.367247611284256,0.2599968910217285,-1.017383337020874,0.9999966621398926,0.49289026856422424,0.3450123071670532,-0.4474470317363739,0.9999657869338989,0.12796731293201447,0.37082114815711975,-0.708605170249939,0.9999518394470215,0.5419188737869263,0.5077529549598694,-0.18438935279846191,0.9846273064613342,0.12662315368652344,0.5577875375747681,-0.6644971966743469,0.9950292706489563,0.6036040782928467,0.6448752880096436,-0.384485125541687,0.988658607006073,0.1876620054244995,0.7215155363082886,-0.8574270009994507,0.973146915435791,0.6344598531723022,0.6855592131614685,-0.4754895567893982,0.9756976962089539,0.19808565080165863,0.7658905386924744,-0.9551422595977783,0.9486839771270752,0.6153075098991394,0.6857451796531677,-0.5738976001739502,0.9779301881790161,0.23181141912937164,0.7575961947441101,-1.0442893505096436,0.952533483505249,0.5973833799362183,0.6771069169044495,-0.4284285604953766,0.9775950312614441,0.23618537187576294,0.7420302629470825,-0.8949798941612244,0.9556823372840881,0.45423683524131775,0.6443333625793457,0.07410725206136703,0.9989939332008362,0.26929721236228943,0.6610644459724426,-0.07364001125097275,0.9991833567619324,0.4693147838115692,0.8541882038116455,0.28896865248680115,0.944955050945282,0.31084927916526794,0.8772880434989929,0.10650482773780823,0.9610691070556641,0.48520317673683167,0.9692660570144653,1.028704047203064,0.8257322907447815,0.3413991332054138,0.9899600744247437,0.7181662321090698,0.8707641959190369,0.46290135383605957,0.9826531410217285,1.086649775505066,0.7797104716300964,0.33825385570526123,0.9914317727088928,0.7659263610839844,0.646697461605072,0.5461499094963074,1.0380040407180786,0.8517650961875916,0.7557307481765747,0.3717809319496155,1.0979140996932983,0.4203745126724243,0.7428748607635498
19253.42817749308,0.3971349596977234,0.23782984912395477,-1.122544527053833,0.9999916553497314,0.40389907360076904,0.21149900555610657,-1.07333505153656,0.9999773502349854,0.4126504361629486,0.2106093168258667,-1.0734436511993408,0.9999716281890869,0.42066118121147156,0.2100180983543396,-1.0734319686889648,0.9999672174453735,0.37237438559532166,0.21189624071121216,-1.1032932996749878,0.9999822378158569,0.35413312911987305,0.21189817786216736,-1.1034667491912842,0.9999821186065674,0.3355066180229187,0.21189388632774353,-1.1035614013671875,0.9999810457229614,0.4093554615974426,0.2143491804599762,-0.7268458604812622,0.9999479055404663,0.2827525734901428,0.22153574228286743,-0.8771443367004395,0.9999861717224121,0.40511855483055115,0.259206086397171,-0.9882600903511047,0.999994158744812,0.3700261116027832,0.26008954644203186,-1.0300778150558472,0.9999970197677612,0.492442786693573,0.345049649477005,-0.4484853148460388,0.9999617338180542,0.1282411813735962,0.3722595274448395,-0.7233394384384155,0.999955415725708,0.5415756106376648,0.5085923671722412,-0.18371295928955078,0.9811301827430725,0.12449502944946289,0.5551985502243042,-0.6825470328330994,0.9955701231956482,0.6044604778289795,0.6460410356521606,-0.3839034140110016,0.9863177537918091,0.18546980619430542,0.7169455289840698,-0.8745500445365906,0.9747005105018616,0.6314327120780945,0.685933530330658,-0.4715108275413513,0.9715408086776733,0.19730336964130402,0.7627373337745667,-0.9713737368583679,0.9504406452178955,0.6145333051681519,0.6867863535881042,-0.5709198117256165,0.974037766456604,0.23027829825878143,0.7555181384086609,-1.0570852756500244,0.9541225433349609,0.5986477136611938,0.6778196096420288,-0.4282718896865845,0.9740970134735107,0.23374693095684052,0.7394100427627563,-0.9105874300003052,0.9573063850402832,0.45596644282341003,0.6424205303192139,0.0817999467253685,0.9989008903503418,0.27240628004074097,0.6595944762229919,-0.08129587024450302,0.9991766810417175,0.471264123916626,0.8495490550994873,0.2890366017818451,0.9433226585388184,0.31316712498664856,0.8767781257629395,0.09098559617996216,0.9643307328224182,0.48660096526145935,0.9679261445999146,1.0290508270263672,0.8272231817245483,0.3420536518096924,0.9886271357536316,0.6957269310951233,0.8799156546592712,0.4641591012477875,0.9823497533798218,1.0866984128952026,0.7885541915893555,0.33622345328330994,0.9898377656936646,0.7427639961242676,0.6621638536453247,0.5529205799102783,1.029685378074646,0.8527498841285706,0.757667601108551,0.3764905631542206,1.0992944240570068,0.39459776878356934,0.7518627643585205
19270.094844159747,0.3948497176170349,0.23317691683769226,-1.1402961015701294,0.9999916553497314,0.40250012278556824,0.20810332894325256,-1.091938853263855,0.9999767541885376,0.41261595487594604,0.20756322145462036,-1.0920240879058838,0.9999703168869019,0.4210948944091797,0.20729327201843262,-1.0920193195343018,0.9999659061431885,0.3694170415401459,0.20826205611228943,-1.119631290435791,0.9999827146530151,0.35083431005477905,0.20832926034927368,-1.1198350191116333,0.9999828338623047,0.33212319016456604,0.2087254524230957,-1.119951605796814,0.9999823570251465,0.41214779019355774,0.21266397833824158,-0.7483504414558411,0.9999430179595947,0.2824598550796509,0.2185809314250946,-0.8885726928710938,0.9999872446060181,0.4047960042953491,0.2551092207431793,-1.0074576139450073,0.9999939203262329,0.3663800358772278,0.25662922859191895,-1.0461878776550293,0.9999971389770508,0.4971122145652771,0.34376731514930725,-0.4577811360359192,0.9999595880508423,0.13156644999980927,0.37120553851127625,-0.7421585321426392,0.9999622106552124,0.5436440110206604,0.5039283037185669,-0.18076065182685852,0.9826083183288574,0.12502126395702362,0.5564347505569458,-0.7075597047805786,0.9968467354774475,0.6029292345046997,0.6421972513198853,-0.36335310339927673,0.9888577461242676,0.185080423951149,0.7220364212989807,-0.8971406817436218,0.9812757968902588,0.631001353263855,0.683791995048523,-0.4486471116542816,0.9760087728500366,0.19923095405101776,0.7670384645462036,-0.9963977336883545,0.9607266783714294,0.6134260892868042,0.6851468682289124,-0.5477747917175293,0.9780120849609375,0.2330217808485031,0.7579929232597351,-1.0798444747924805,0.9635127782821655,0.5967447757720947,0.6757619976997375,-0.40660160779953003,0.9777151346206665,0.2365974336862564,0.7429291009902954,-0.9320849180221558,0.9660944938659668,0.45544835925102234,0.6407880187034607,0.09194738417863846,0.9988656044006348,0.270440012216568,0.6598478555679321,-0.09153510630130768,0.999245285987854,0.4683954417705536,0.8533998131752014,0.31485018134117126,0.9409708380699158,0.3184332251548767,0.8820367455482483,0.07771595567464828,0.9656217098236084,0.48513704538345337,0.9712612628936768,1.033689022064209,0.8260998725891113,0.3442035913467407,0.9940744042396545,0.6623262166976929,0.8776960372924805,0.4640899896621704,0.984268307685852,1.089697241783142,0.7776476144790649,0.33282122015953064,0.9944393634796143,0.707380473613739,0.6289292573928833,0.5573469400405884,1.0328748226165771,0.8570892810821533,0.7567116022109985,0.3902037441730499,1.1116273403167725,0.35243964195251465,0.7446761131286621
19286.761510826414,0.39502382278442383,0.23461824655532837,-1.090081810951233,0.9999892711639404,0.40185844898223877,0.2088436782360077,-1.0417537689208984,0.9999697208404541,0.4114072620868683,0.20795756578445435,-1.041884422302246,0.9999620914459229,0.4199816882610321,0.2074001133441925,-1.041907548904419,0.999956488609314,0.37037622928619385,0.2095763385295868,-1.0698988437652588,0.9999760389328003,0.3518872857093811,0.2094026803970337,-1.0700929164886475,0.999976396560669,0.33312785625457764,0.20967048406600952,-1.070214033126831,0.9999752044677734,0.4102227985858917,0.21210917830467224,-0.7026363015174866,0.9999319314956665,0.2811206877231598,0.2189842164516449,-0.8446730375289917,0.9999821186065674,0.4041364789009094,0.25584152340888977,-0.958853542804718,0.9999929666519165,0.36644628643989563,0.2582496106624603,-0.998166561126709,0.9999964237213135,0.49652501940727234,0.34351634979248047,-0.4259358048439026,0.9999642372131348,0.1303301900625229,0.3721081614494324,-0.7007791996002197,0.999953031539917,0.5423328280448914,0.5046898126602173,-0.14460614323616028,0.9839318990707397,0.13114789128303528,0.5575975775718689,-0.6589395403862,0.9957929849624634,0.6013548374176025,0.6445406675338745,-0.32268670201301575,0.9894573092460632,0.18951913714408875,0.719852089881897,-0.852048397064209,0.9769516587257385,0.6301321983337402,0.6859819889068604,-0.40847352147102356,0.9776550531387329,0.20091256499290466,0.7664046287536621,-0.9508869051933289,0.9551526308059692,0.610657274723053,0.6871347427368164,-0.5059850811958313,0.9795814156532288,0.23342089354991913,0.7572740912437439,-1.0376558303833008,0.9584425091743469,0.5931293964385986,0.6772692799568176,-0.36484628915786743,0.9792992472648621,0.23708420991897583,0.7417283654212952,-0.8884227871894836,0.9611557722091675,0.4536685049533844,0.645068883895874,0.08699739724397659,0.9990617632865906,0.27076470851898193,0.6628763675689697,-0.08656530827283859,0.9992625117301941,0.4702199697494507,0.8581192493438721,0.2944639027118683,0.9352512359619141,0.3129212260246277,0.8828564882278442,0.0815468579530716,0.9591071009635925,0.48660242557525635,0.973380446434021,1.0430232286453247,0.7989498972892761,0.3423630893230438,0.9933479428291321,0.6931338906288147,0.8547347784042358,0.4663086533546448,0.9854839444160461,1.102799654006958,0.7573287487030029,0.3324289619922638,0.9929688572883606,0.7418020367622375,0.6024585366249084,0.552412748336792,1.037050485610962,0.8741726279258728,0.7279878854751587,0.3853650391101837,1.1102993488311768,0.3932999074459076,0.713756799697876
19303.428177493082,0.3943033814430237,0.23218059539794922,-1.1134670972824097,0.99998939037323,0.4030313491821289,0.20673242211341858,-1.0613558292388916,0.9999719858169556,0.4131249189376831,0.20609581470489502,-1.0614949464797974,0.9999649524688721,0.42153701186180115,0.20559871196746826,-1.0615227222442627,0.9999591112136841,0.3683812618255615,0.20752334594726562,-1.0893827676773071,0.9999772310256958,0.35024094581604004,0.2078961431980133,-1.0895358324050903,0.9999771118164062,0.33185437321662903,0.20823746919631958,-1.0896553993225098,0.9999758005142212,0.4150502681732178,0.21130239963531494,-0.7082177996635437,0.9999344348907471,0.28357651829719543,0.21828830242156982,-0.849562406539917,0.9999833106994629,0.4052298963069916,0.25445106625556946,-0.9777130484580994,0.999992847442627,0.3659736216068268,0.25594255328178406,-1.0167371034622192,0.9999964237213135,0.49799180030822754,0.3436804413795471,-0.41461706161499023,0.9999638795852661,0.13281257450580597,0.3718854486942291,-0.7015763521194458,0.999951958656311,0.5392882823944092,0.5071783065795898,-0.1353370100259781,0.9814249277114868,0.127285435795784,0.5566576719284058,-0.6690388321876526,0.9957551956176758,0.5988239049911499,0.6425718069076538,-0.34164687991142273,0.9895228743553162,0.1855124980211258,0.7198258638381958,-0.8848681449890137,0.9767672419548035,0.6292352676391602,0.6830132603645325,-0.4312646687030792,0.9781633019447327,0.19951219856739044,0.7645831108093262,-0.9903389811515808,0.9543537497520447,0.6104735136032104,0.6846067309379578,-0.5331053137779236,0.9800664186477661,0.2324623316526413,0.7552502155303955,-1.0762890577316284,0.9576502442359924,0.5930243730545044,0.6755154132843018,-0.3863595128059387,0.9795415997505188,0.23577910661697388,0.7397196292877197,-0.9214848875999451,0.9603554606437683,0.45471346378326416,0.6442884802818298,0.09625847637653351,0.9991449117660522,0.27118146419525146,0.662845253944397,-0.09581199288368225,0.9993292093276978,0.47083795070648193,0.8572767972946167,0.33537787199020386,0.9393516182899475,0.3147294819355011,0.8844456672668457,0.098774254322052,0.9635865688323975,0.4851304590702057,0.9717975854873657,1.109047770500183,0.8168532252311707,0.3418549597263336,0.9924464225769043,0.7376642227172852,0.8647440671920776,0.4644607603549957,0.9838607311248779,1.1708067655563354,0.7724577784538269,0.3316909074783325,0.9921078085899353,0.7890129089355469,0.6166830062866211,0.5534659028053284,1.034403920173645,0.9339188933372498,0.7450140714645386,0.39143824577331543,1.109914779663086,0.4324335753917694,0.7265352606773376
