0,1
13510.057112584243,-575.0
13510.057175081454,-514.0
13510.057237578667,-505.0
13510.05730007588,-551.0
13510.057362573092,-593.0
13510.057425070305,-495.0
13510.057487567517,-396.0
13510.05755006473,-401.0
13510.057612561943,-463.0
13510.057675059155,-478.0
13510.057737556368,-414.0
13510.05780005358,-407.0
13510.057862550791,-361.0
13510.057925048004,-397.0
13510.057987545217,-505.0
13510.05805004243,-548.0
13510.058112539642,-563.0
13510.058175036855,-550.0
13510.058237534067,-580.0
13510.05830003128,-607.0
13510.058362528493,-586.0
13510.058425025705,-613.0
13510.058487522918,-605.0
13510.058550020129,-521.0
13510.058612517341,-555.0
13510.058675014554,-646.0
13510.058737511767,-579.0
13510.05880000898,-521.0
13510.058862506192,-552.0
13510.058925003405,-442.0
13510.058987500617,-418.0
13510.05904999783,-511.0
13510.059112495042,-532.0
13510.059174992255,-485.0
13510.059237489466,-457.0
13510.059299986679,-444.0
13510.059362483891,-455.0
13510.059424981104,-477.0
13510.059487478316,-485.0
13510.059549975529,-469.0
13510.059612472742,-421.0
13510.059674969954,-496.0
13510.059737467167,-516.0
13510.05979996438,-504.0
13510.059862461592,-561.0
13510.059924958803,-525.0
13510.059987456016,-484.0
13510.060049953228,-522.0
13510.060112450441,-522.0
13510.060174947654,-531.0
13510.060237444866,-546.0
13510.060299942079,-496.0
13510.060362439292,-508.0
13510.060424936504,-531.0
13510.060487433717,-513.0
13510.06054993093,-500.0
13510.06061242814,-469.0
13510.060674925353,-436.0
13510.060737422566,-401.0
13510.060799919778,-453.0
13510.06086241699,-484.0
13510.060924914203,-427.0
13510.060987411416,-385.0
13510.061049908629,-397.0
13510.061112405841,-341.0
13510.061174903054,-443.0
13510.061237400267,-501.0
13510.061299897478,-417.0
13510.06136239469,-492.0
13510.061424891903,-432.0
13510.061487389115,-456.0
13510.061549886328,-544.0
13510.06161238354,-458.0
13510.061674880753,-491.0
13510.061737377966,-513.0
13510.061799875179,-541.0
13510.061862372391,-587.0
13510.061924869604,-552.0
13510.061987366815,-595.0
13510.062049864027,-557.0
13510.06211236124,-537.0
13510.062174858453,-597.0
13510.062237355665,-536.0
13510.062299852878,-584.0
13510.06236235009,-613.0
13510.062424847303,-557.0
13510.062487344516,-547.0
13510.062549841728,-500.0
13510.062612338941,-519.0
13510.062674836152,-494.0
13510.062737333365,-469.0
13510.062799830577,-511.0
13510.06286232779,-484.0
13510.062924825002,-488.0
13510.062987322215,-464.0
13510.063049819428,-453.0
13510.06311231664,-490.0
13510.063174813853,-448.0
13510.063237311066,-470.0
13510.063299808278,-475.0
13510.06336230549,-477.0
13510.063424802702,-514.0
13510.063487299914,-487.0
13510.063549797127,-474.0
13510.06361229434,-466.0
13510.063674791552,-521.0
13510.063737288765,-483.0
13510.063799785978,-486.0
13510.06386228319,-552.0
13510.063924780403,-494.0
13510.063987277616,-507.0
13510.064049774826,-518.0
13510.064112272039,-531.0
13510.064174769252,-570.0
13510.064237266464,-515.0
13510.064299763677,-482.0
13510.06436226089,-507.0
13510.064424758102,-509.0
13510.064487255315,-516.0
13510.064549752527,-491.0
13510.06461224974,-467.0
13510.064674746953,-501.0
13510.064737244164,-491.0
13510.064799741376,-483.0
13510.064862238589,-472.0
13510.064924735801,-462.0
13510.064987233014,-488.0
13510.065049730227,-485.0
13510.06511222744,-498.0
13510.065174724652,-510.0
13510.065237221865,-512.0
13510.065299719077,-494.0
13510.06536221629,-470.0
13510.0654247135,-507.0
13510.065487210713,-515.0
13510.065549707926,-497.0
13510.065612205139,-529.0
13510.065674702351,-497.0
13510.065737199564,-455.0
13510.065799696777,-492.0
13510.06586219399,-481.0
13510.065924691202,-464.0
13510.065987188415,-486.0
13510.066049685625,-455.0
13510.066112182838,-435.0
13510.06617468005,-465.0
13510.066237177263,-463.0
13510.066299674476,-453.0
13510.066362171689,-444.0
13510.066424668901,-434.0
13510.066487166114,-440.0
13510.066549663326,-451.0
13510.066612160539,-480.0
13510.066674657752,-482.0
13510.066737154963,-429.0
13510.066799652175,-458.0
13510.066862149388,-471.0
13510.0669246466,-448.0
13510.066987143813,-473.0
13510.067049641026,-431.0
13510.067112138238,-435.0
13510.067174635451,-471.0
13510.067237132664,-444.0
13510.067299629876,-443.0
13510.067362127089,-446.0
13510.0674246243,-427.0
13510.067487121512,-438.0
13510.067549618725,-451.0
13510.067612115938,-497.0
13510.06767461315,-500.0
13510.067737110363,-423.0
13510.067799607576,-442.0
13510.067862104788,-488.0
13510.067924602,-463.0
13510.067987099213,-456.0
13510.068049596426,-458.0
13510.068112093637,-451.0
13510.06817459085,-454.0
13510.068237088062,-436.0
13510.068299585275,-410.0
13510.068362082488,-436.0
13510.0684245797,-446.0
13510.068487076913,-469.0
13510.068549574125,-475.0
13510.068612071338,-487.0
13510.06867456855,-488.0
13510.068737065763,-426.0
13510.068799562974,-418.0
13510.068862060187,-447.0
13510.0689245574,-457.0
13510.068987054612,-452.0
13510.069049551825,-474.0
13510.069112049037,-478.0
13510.06917454625,-469.0
13510.069237043463,-467.0
13510.069299540675,-463.0
13510.069362037888,-467.0
13510.0694245351,-455.0
13510.069487032311,-458.0
13510.069549529524,-457.0
13510.069612026737,-476.0
13510.06967452395,-499.0
13510.069737021162,-450.0
13510.069799518375,-445.0
13510.069862015587,-449.0
13510.0699245128,-436.0
13510.069987010012,-444.0
13510.070049507225,-467.0
13510.070112004438,-462.0
13510.070174501649,-453.0
13510.070236998861,-443.0
13510.070299496074,-443.0
13510.070361993286,-459.0
13510.0704244905,-445.0
13510.070486987712,-458.0
13510.070549484924,-436.0
13510.070611982137,-443.0
13510.07067447935,-469.0
13510.070736976562,-430.0
13510.070799473775,-443.0
13510.070861970986,-448.0
13510.070924468198,-439.0
13510.070986965411,-470.0
13510.071049462624,-464.0
13510.071111959836,-455.0
13510.071174457049,-459.0
13510.071236954262,-448.0
13510.071299451474,-460.0
13510.071361948687,-451.0
13510.0714244459,-428.0
13510.071486943112,-426.0
13510.071549440323,-417.0
13510.071611937536,-426.0
13510.071674434748,-458.0
13510.071736931961,-419.0
13510.071799429174,-403.0
13510.071861926386,-424.0
13510.071924423599,-437.0
13510.071986920811,-424.0
13510.072049418024,-397.0
13510.072111915237,-407.0
13510.07217441245,-388.0
13510.07223690966,-376.0
13510.072299406873,-402.0
13510.072361904085,-404.0
13510.072424401298,-391.0
13510.07248689851,-427.0
13510.072549395723,-423.0
13510.072611892936,-427.0
13510.072674390149,-447.0
13510.072736887361,-389.0
13510.072799384574,-370.0
13510.072861881787,-390.0
13510.072924378997,-408.0
13510.07298687621,-395.0
13510.073049373423,-380.0
13510.073111870635,-391.0
13510.073174367848,-386.0
13510.07323686506,-398.0
13510.073299362273,-417.0
13510.073361859486,-398.0
13510.073424356699,-411.0
13510.073486853911,-411.0
13510.073549351124,-387.0
13510.073611848335,-424.0
13510.073674345547,-425.0
13510.07373684276,-358.0
13510.073799339973,-371.0
13510.073861837185,-400.0
13510.073924334398,-381.0
13510.07398683161,-414.0
13510.074049328823,-416.0
13510.074111826036,-420.0
13510.074174323248,-423.0
13510.074236820461,-407.0
13510.074299317672,-421.0
13510.074361814884,-410.0
13510.074424312097,-393.0
13510.07448680931,-402.0
13510.074549306522,-387.0
13510.074611803735,-387.0
13510.074674300948,-412.0
13510.07473679816,-365.0
13510.074799295373,-389.0
13510.074861792586,-416.0
13510.074924289798,-380.0
13510.074986787009,-375.0
13510.075049284222,-405.0
13510.075111781434,-420.0
13510.075174278647,-412.0
13510.07523677586,-425.0
13510.075299273072,-430.0
13510.075361770285,-407.0
13510.075424267498,-386.0
13510.07548676471,-409.0
13510.075549261923,-411.0
13510.075611759135,-424.0
13510.075674256346,-452.0
13510.075736753559,-422.0
13510.075799250772,-395.0
13510.075861747984,-429.0
13510.075924245197,-470.0
13510.07598674241,-419.0
13510.076049239622,-414.0
13510.076111736835,-423.0
13510.076174234047,-422.0
13510.07623673126,-421.0
13510.076299228473,-401.0
13510.076361725683,-398.0
13510.076424222896,-377.0
13510.076486720109,-387.0
13510.076549217321,-360.0
13510.076611714534,-374.0
13510.076674211747,-397.0
13510.07673670896,-351.0
13510.076799206172,-368.0
13510.076861703385,-399.0
13510.076924200597,-405.0
13510.076986697808,-406.0
13510.07704919502,-415.0
13510.077111692233,-410.0
13510.077174189446,-392.0
13510.077236686659,-406.0
13510.077299183871,-427.0
13510.077361681084,-421.0
13510.077424178296,-405.0
13510.07748667551,-381.0
13510.077549172722,-382.0
13510.077611669934,-400.0
13510.077674167145,-435.0
13510.077736664358,-384.0
13510.07779916157,-339.0
13510.077861658783,-384.0
13510.077924155996,-356.0
13510.077986653208,-366.0
13510.078049150421,-383.0
13510.078111647634,-344.0
13510.078174144846,-354.0
13510.078236642059,-362.0
13510.078299139272,-342.0
13510.078361636482,-345.0
13510.078424133695,-332.0
13510.078486630908,-325.0
13510.07854912812,-346.0
13510.078611625333,-367.0
13510.078674122546,-393.0
13510.078736619758,-361.0
13510.078799116971,-351.0
13510.078861614184,-371.0
13510.078924111396,-358.0
13510.078986608609,-372.0
13510.07904910582,-368.0
13510.079111603032,-361.0
13510.079174100245,-361.0
13510.079236597458,-340.0
13510.07929909467,-342.0
13510.079361591883,-338.0
13510.079424089095,-302.0
13510.079486586308,-304.0
13510.07954908352,-299.0
13510.079611580733,-303.0
13510.079674077946,-319.0
13510.079736575157,-281.0
13510.07979907237,-296.0
13510.079861569582,-306.0
13510.079924066795,-319.0
13510.079986564007,-307.0
13510.08004906122,-316.0
13510.080111558433,-332.0
13510.080174055645,-311.0
13510.080236552858,-323.0
13510.08029905007,-305.0
13510.080361547283,-312.0
13510.080424044494,-329.0
13510.080486541707,-325.0
13510.08054903892,-325.0
13510.080611536132,-344.0
13510.080674033345,-348.0
13510.080736530557,-310.0
13510.08079902777,-332.0
13510.080861524983,-346.0
13510.080924022195,-333.0
13510.080986519408,-320.0
13510.08104901662,-327.0
13510.081111513831,-327.0
13510.081174011044,-297.0
13510.081236508257,-293.0
13510.08129900547,-304.0
13510.081361502682,-281.0
13510.081423999894,-286.0
13510.081486497107,-324.0
13510.08154899432,-324.0
13510.081611491532,-332.0
13510.081673988745,-333.0
13510.081736485958,-284.0
13510.081798983168,-286.0
13510.081861480381,-293.0
13510.081923977594,-305.0
13510.081986474806,-309.0
13510.082048972019,-292.0
13510.082111469232,-311.0
13510.082173966444,-330.0
13510.082236463657,-355.0
13510.08229896087,-336.0
13510.082361458082,-327.0
13510.082423955295,-322.0
13510.082486452506,-306.0
13510.082548949718,-324.0
13510.082611446931,-344.0
13510.082673944144,-365.0
13510.082736441356,-327.0
13510.082798938569,-325.0
13510.082861435782,-347.0
13510.082923932994,-325.0
13510.082986430207,-336.0
13510.08304892742,-352.0
13510.083111424632,-345.0
13510.083173921843,-372.0
13510.083236419056,-378.0
13510.083298916268,-359.0
13510.08336141348,-352.0
13510.083423910693,-354.0
13510.083486407906,-351.0
13510.083548905119,-345.0
13510.083611402331,-365.0
13510.083673899544,-346.0
13510.083736396757,-305.0
13510.08379889397,-312.0
13510.08386139118,-321.0
13510.083923888393,-313.0
13510.083986385605,-315.0
13510.084048882818,-319.0
13510.08411138003,-284.0
13510.084173877243,-285.0
13510.084236374456,-308.0
13510.084298871669,-288.0
13510.084361368881,-257.0
13510.084423866094,-261.0
13510.084486363306,-261.0
13510.084548860517,-296.0
13510.08461135773,-327.0
13510.084673854943,-305.0
13510.084736352155,-283.0
13510.084798849368,-310.0
13510.08486134658,-297.0
13510.084923843793,-259.0
13510.084986341006,-293.0
13510.085048838218,-293.0
13510.085111335431,-313.0
13510.085173832644,-290.0
13510.085236329855,-254.0
13510.085298827067,-310.0
13510.08536132428,-313.0
13510.085423821492,-304.0
13510.085486318705,-342.0
13510.085548815918,-316.0
13510.08561131313,-296.0
13510.085673810343,-338.0
13510.085736307556,-324.0
13510.085798804768,-334.0
13510.085861301981,-332.0
13510.085923799192,-321.0
13510.085986296404,-330.0
13510.086048793617,-318.0
13510.08611129083,-320.0
13510.086173788042,-327.0
13510.086236285255,-314.0
13510.086298782468,-281.0
13510.08636127968,-268.0
13510.086423776893,-280.0
13510.086486274105,-283.0
13510.086548771318,-264.0
13510.086611268529,-294.0
13510.086673765742,-315.0
13510.086736262954,-249.0
13510.086798760167,-271.0
13510.08686125738,-316.0
13510.086923754592,-270.0
13510.086986251805,-267.0
13510.087048749017,-272.0
13510.08711124623,-263.0
13510.087173743443,-300.0
13510.087236240655,-267.0
13510.087298737866,-260.0
13510.087361235079,-286.0
13510.087423732291,-248.0
13510.087486229504,-276.0
13510.087548726717,-281.0
13510.08761122393,-271.0
13510.087673721142,-295.0
13510.087736218355,-257.0
13510.087798715567,-254.0
13510.08786121278,-283.0
13510.08792370999,-264.0
13510.087986207203,-245.0
13510.088048704416,-264.0
13510.088111201629,-299.0
13510.088173698841,-287.0
13510.088236196054,-244.0
13510.088298693267,-233.0
13510.08836119048,-225.0
13510.088423687692,-218.0
13510.088486184904,-220.0
13510.088548682117,-238.0
13510.088611179328,-245.0
13510.08867367654,-229.0
13510.088736173753,-212.0
13510.088798670966,-240.0
13510.088861168178,-249.0
13510.088923665391,-242.0
13510.088986162604,-217.0
13510.089048659816,-205.0
13510.089111157029,-229.0
13510.089173654242,-225.0
13510.089236151454,-222.0
13510.089298648665,-243.0
13510.089361145878,-219.0
13510.08942364309,-197.0
13510.089486140303,-221.0
13510.089548637516,-220.0
13510.089611134728,-215.0
13510.089673631941,-245.0
13510.089736129154,-189.0
13510.089798626366,-154.0
13510.089861123579,-173.0
13510.089923620792,-173.0
13510.089986118002,-182.0
13510.090048615215,-181.0
13510.090111112428,-193.0
13510.09017360964,-182.0
13510.090236106853,-197.0
13510.090298604066,-212.0
13510.090361101278,-194.0
13510.09042359849,-186.0
13510.090486095703,-154.0
13510.090548592916,-126.0
13510.090611090129,-117.0
13510.09067358734,-148.0
13510.090736084552,-145.0
13510.090798581765,-130.0
13510.090861078977,-130.0
13510.09092357619,-144.0
13510.090986073403,-137.0
13510.091048570615,-110.0
13510.091111067828,-125.0
13510.09117356504,-136.0
13510.091236062253,-129.0
13510.091298559466,-134.0
13510.091361056677,-156.0
13510.09142355389,-158.0
13510.091486051102,-184.0
13510.091548548315,-221.0
13510.091611045527,-216.0
13510.09167354274,-230.0
13510.091736039953,-206.0
13510.091798537165,-210.0
13510.091861034378,-202.0
13510.09192353159,-182.0
13510.091986028803,-217.0
13510.092048526014,-213.0
13510.092111023227,-203.0
13510.09217352044,-206.0
13510.092236017652,-191.0
13510.092298514865,-203.0
13510.092361012077,-203.0
13510.09242350929,-216.0
13510.092486006502,-200.0
13510.092548503715,-150.0
13510.092611000928,-159.0
13510.09267349814,-187.0
13510.092735995351,-167.0
13510.092798492564,-162.0
13510.092860989776,-175.0
13510.09292348699,-184.0
13510.092985984202,-177.0
13510.093048481414,-167.0
13510.093110978627,-192.0
13510.09317347584,-194.0
13510.093235973052,-153.0
13510.093298470265,-152.0
13510.093360967478,-169.0
13510.093423464688,-168.0
13510.093485961901,-179.0
13510.093548459114,-176.0
13510.093610956326,-164.0
13510.093673453539,-153.0
13510.093735950752,-133.0
13510.093798447964,-148.0
13510.093860945177,-148.0
13510.09392344239,-135.0
13510.093985939602,-135.0
13510.094048436815,-151.0
13510.094110934026,-126.0
13510.094173431238,-99.0
13510.09423592845,-139.0
13510.094298425664,-141.0
13510.094360922876,-143.0
13510.094423420089,-140.0
13510.094485917301,-133.0
13510.094548414514,-120.0
13510.094610911727,-134.0
13510.09467340894,-144.0
13510.094735906152,-104.0
13510.094798403363,-113.0
13510.094860900575,-135.0
13510.094923397788,-78.0
13510.094985895,-91.0
13510.095048392213,-71.0
13510.095110889426,-105.0
13510.095173386639,-134.0
13510.095235883851,-78.0
13510.095298381064,-102.0
13510.095360878277,-87.0
13510.09542337549,-112.0
13510.0954858727,-103.0
13510.095548369913,-148.0
13510.095610867125,-137.0
13510.095673364338,-107.0
13510.09573586155,-75.0
13510.095798358763,-93.0
13510.095860855976,-103.0
13510.095923353188,-84.0
13510.095985850401,-95.0
13510.096048347614,-73.0
13510.096110844826,-86.0
13510.096173342037,-46.0
13510.09623583925,-43.0
13510.096298336462,-77.0
13510.096360833675,-69.0
13510.096423330888,-52.0
13510.0964858281,-86.0
13510.096548325313,-92.0
13510.096610822526,-74.0
13510.096673319738,-95.0
13510.096735816951,-61.0
13510.096798314164,-65.0
13510.096860811374,-76.0
13510.096923308587,-79.0
13510.0969858058,-94.0
13510.097048303012,-71.0
13510.097110800225,-81.0
13510.097173297438,-52.0
13510.09723579465,-16.0
13510.097298291863,-14.0
13510.097360789076,7.0
13510.097423286288,-18.0
13510.0974857835,-26.0
13510.097548280712,-8.0
13510.097610777924,-16.0
13510.097673275137,-34.0
13510.09773577235,-4.0
13510.097798269562,6.0
13510.097860766775,11.0
13510.097923263987,9.0
13510.0979857612,-3.0
13510.098048258413,0.0
13510.098110755625,-13.0
13510.098173252838,4.0
13510.098235750049,18.0
13510.098298247261,-21.0
13510.098360744474,-28.0
13510.098423241687,-2.0
13510.0984857389,-24.0
13510.098548236112,-4.0
13510.098610733325,-17.0
13510.098673230537,-52.0
13510.09873572775,-3.0
13510.098798224963,10.0
13510.098860722173,5.0
13510.098923219386,-15.0
13510.098985716599,18.0
13510.099048213811,-40.0
13510.099110711024,7.0
13510.099173208237,-19.0
13510.09923570545,30.0
13510.099298202662,41.0
13510.099360699875,-39.0
13510.099423197087,11.0
13510.0994856943,-19.0
13510.099548191512,53.0
13510.099610688723,-51.0
13510.099673185936,-68.0
13510.099735683149,34.0
13510.099798180361,25.0
13510.099860677574,-15.0
13510.099923174786,28.0
13510.099985672,18.0
13510.100048169212,-33.0
13510.100110666424,-4.0
13510.100173163637,-11.0
13510.100235660848,0.0
13510.10029815806,-6.0
13510.100360655273,-13.0
13510.100423152486,15.0
13510.100485649698,38.0
13510.100548146911,56.0
13510.100610644124,17.0
13510.100673141336,7.0
13510.100735638549,39.0
13510.100798135762,29.0
13510.100860632974,35.0
13510.100923130185,26.0
13510.100985627398,26.0
13510.10104812461,50.0
13510.101110621823,51.0
13510.101173119036,45.0
13510.101235616248,63.0
13510.10129811346,76.0
13510.101360610674,60.0
13510.101423107886,46.0
13510.101485605099,36.0
13510.101548102311,52.0
13510.101610599522,27.0
13510.101673096735,6.0
13510.101735593948,64.0
13510.10179809116,47.0
13510.101860588373,43.0
13510.101923085585,87.0
13510.101985582798,65.0
13510.10204808001,38.0
13510.102110577223,55.0
13510.102173074436,59.0
13510.102235571649,38.0
13510.10229806886,49.0
13510.102360566072,66.0
13510.102423063285,52.0
13510.102485560497,52.0
13510.10254805771,78.0
13510.102610554923,42.0
13510.102673052135,43.0
13510.102735549348,107.0
13510.10279804656,89.0
13510.102860543773,84.0
13510.102923040986,84.0
13510.102985538197,81.0
13510.10304803541,75.0
13510.103110532622,63.0
13510.103173029835,68.0
13510.103235527047,58.0
13510.10329802426,54.0
13510.103360521472,51.0
13510.103423018685,87.0
13510.103485515898,85.0
13510.10354801311,74.0
13510.103610510323,66.0
13510.103673007534,33.0
13510.103735504747,75.0
13510.10379800196,73.0
13510.103860499172,41.0
13510.103922996384,31.0
13510.103985493597,35.0
13510.10404799081,49.0
13510.104110488022,62.0
13510.104172985235,78.0
13510.104235482448,49.0
13510.10429797966,23.0
13510.104360476871,48.0
13510.104422974084,69.0
13510.104485471296,47.0
13510.104547968509,60.0
13510.104610465722,54.0
13510.104672962934,22.0
13510.104735460147,83.0
13510.10479795736,83.0
13510.104860454572,51.0
13510.104922951785,82.0
13510.104985448997,93.0
13510.105047946208,87.0
13510.105110443421,92.0
13510.105172940634,81.0
13510.105235437846,57.0
13510.105297935059,65.0
13510.105360432271,81.0
13510.105422929484,82.0
13510.105485426697,95.0
13510.10554792391,107.0
13510.105610421122,50.0
13510.105672918335,18.0
13510.105735415545,107.0
13510.105797912758,99.0
13510.10586040997,59.0
13510.105922907183,98.0
13510.105985404396,81.0
13510.106047901609,92.0
13510.106110398821,100.0
13510.106172896034,89.0
13510.106235393247,123.0
13510.10629789046,106.0
13510.106360387672,87.0
13510.106422884883,112.0
13510.106485382095,91.0
13510.106547879308,101.0
13510.10661037652,100.0
13510.106672873733,86.0
13510.106735370946,136.0
13510.106797868159,128.0
13510.106860365371,116.0
13510.106922862584,88.0
13510.106985359796,65.0
13510.10704785701,91.0
13510.10711035422,100.0
13510.107172851433,89.0
13510.107235348645,83.0
13510.107297845858,106.0
13510.10736034307,83.0
13510.107422840283,57.0
13510.107485337496,59.0
13510.107547834708,70.0
13510.107610331921,61.0
13510.107672829134,27.0
13510.107735326346,97.0
13510.107797823557,93.0
13510.10786032077,66.0
13510.107922817982,64.0
13510.107985315195,42.0
13510.108047812408,76.0
13510.10811030962,85.0
13510.108172806833,69.0
13510.108235304046,66.0
13510.108297801258,44.0
13510.10836029847,46.0
13510.108422795684,54.0
13510.108485292894,55.0
13510.108547790107,55.0
13510.10861028732,30.0
13510.108672784532,-7.0
13510.108735281745,38.0
13510.108797778958,40.0
13510.10886027617,23.0
13510.108922773383,38.0
13510.108985270595,30.0
13510.109047767808,47.0
13510.10911026502,36.0
13510.109172762232,27.0
13510.109235259444,46.0
13510.109297756657,57.0
13510.10936025387,56.0
13510.109422751082,40.0
13510.109485248295,35.0
13510.109547745507,35.0
13510.10961024272,1.0
13510.109672739933,7.0
13510.109735237145,73.0
13510.109797734358,76.0
13510.109860231569,69.0
13510.109922728781,91.0
13510.109985225994,97.0
13510.110047723207,93.0
13510.11011022042,86.0
13510.110172717632,69.0
13510.110235214845,82.0
13510.110297712057,78.0
13510.11036020927,80.0
13510.110422706482,94.0
13510.110485203695,69.0
13510.110547700906,92.0
13510.110610198119,94.0
13510.110672695331,77.0
13510.110735192544,126.0
13510.110797689757,116.0
13510.11086018697,104.0
13510.110922684182,100.0
13510.110985181394,82.0
13510.111047678607,67.0
13510.11111017582,64.0
13510.11117267303,69.0
13510.111235170243,52.0
13510.111297667456,67.0
13510.111360164668,88.0
13510.111422661881,82.0
13510.111485159094,40.0
13510.111547656306,46.0
13510.111610153519,85.0
13510.111672650732,71.0
13510.111735147944,106.0
13510.111797645157,107.0
13510.111860142368,83.0
13510.11192263958,70.0
13510.111985136793,72.0
13510.112047634006,88.0
13510.112110131218,77.0
13510.112172628431,106.0
13510.112235125644,102.0
13510.112297622856,86.0
13510.112360120069,76.0
13510.112422617281,71.0
13510.112485114494,66.0
13510.112547611705,57.0
13510.112610108918,55.0
13510.11267260613,27.0
13510.112735103343,75.0
13510.112797600555,79.0
13510.112860097768,56.0
13510.11292259498,77.0
13510.112985092193,71.0
13510.113047589406,67.0
13510.113110086619,66.0
13510.113172583831,63.0
13510.113235081042,67.0
13510.113297578255,68.0
13510.113360075467,43.0
13510.11342257268,39.0
13510.113485069893,67.0
13510.113547567105,63.0
13510.113610064318,33.0
13510.11367256153,27.0
13510.113735058743,76.0
13510.113797555956,60.0
13510.113860053169,58.0
13510.11392255038,64.0
13510.113985047592,40.0
13510.114047544805,60.0
13510.114110042017,68.0
13510.11417253923,52.0
13510.114235036443,83.0
13510.114297533655,95.0
13510.114360030868,92.0
13510.11442252808,100.0
13510.114485025293,91.0
13510.114547522506,108.0
13510.114610019717,95.0
13510.11467251693,75.0
13510.114735014142,144.0
13510.114797511354,131.0
13510.114860008567,92.0
13510.11492250578,97.0
13510.114985002992,111.0
13510.115047500205,124.0
13510.115109997418,92.0
13510.11517249463,100.0
13510.115234991843,110.0
13510.115297489054,87.0
13510.115359986266,107.0
13510.115422483479,93.0
13510.115484980692,75.0
13510.115547477904,94.0
13510.115609975117,76.0
13510.11567247233,58.0
13510.115734969542,108.0
13510.115797466755,85.0
13510.115859963968,48.0
13510.11592246118,58.0
13510.115984958391,79.0
13510.116047455604,80.0
13510.116109952816,75.0
13510.116172450029,78.0
13510.116234947242,102.0
13510.116297444454,117.0
13510.116359941667,127.0
13510.11642243888,146.0
13510.116484936092,105.0
13510.116547433305,97.0
13510.116609930517,97.0
13510.116672427728,76.0
13510.11673492494,139.0
13510.116797422153,124.0
13510.116859919366,106.0
13510.116922416579,123.0
13510.116984913791,106.0
13510.117047411004,101.0
13510.117109908217,55.0
13510.11717240543,60.0
13510.117234902642,109.0
13510.117297399855,91.0
13510.117359897065,63.0
13510.117422394278,64.0
13510.11748489149,68.0
13510.117547388703,89.0
13510.117609885916,64.0
13510.117672383129,37.0
13510.117734880341,124.0
13510.117797377554,90.0
13510.117859874767,46.0
13510.11792237198,78.0
13510.117984869192,76.0
13510.118047366403,77.0
13510.118109863615,82.0
13510.118172360828,88.0
13510.11823485804,84.0
13510.118297355253,61.0
13510.118359852466,47.0
13510.118422349678,64.0
13510.118484846891,73.0
13510.118547344104,85.0
13510.118609841316,69.0
13510.118672338529,55.0
13510.11873483574,100.0
13510.118797332952,46.0
13510.118859830165,32.0
13510.118922327378,55.0
13510.11898482459,45.0
13510.119047321803,72.0
13510.119109819016,48.0
13510.119172316228,24.0
13510.119234813441,47.0
13510.119297310654,73.0
13510.119359807866,83.0
13510.119422305077,90.0
13510.11948480229,109.0
13510.119547299502,53.0
13510.119609796715,26.0
13510.119672293928,40.0
13510.11973479114,94.0
13510.119797288353,95.0
13510.119859785565,39.0
13510.119922282778,77.0
13510.11998477999,38.0
13510.120047277203,28.0
13510.120109774414,72.0
13510.120172271627,45.0
13510.12023476884,80.0
13510.120297266052,78.0
13510.120359763265,32.0
13510.120422260477,57.0
13510.12048475769,87.0
13510.120547254903,92.0
13510.120609752115,60.0
13510.120672249328,55.0
13510.12073474654,121.0
13510.120797243751,96.0
13510.120859740964,58.0
13510.120922238177,58.0
13510.12098473539,66.0
13510.121047232602,79.0
13510.121109729815,80.0
13510.121172227027,72.0
13510.12123472424,104.0
13510.121297221453,113.0
13510.121359718665,74.0
13510.121422215878,91.0
13510.121484713089,78.0
13510.121547210301,51.0
13510.121609707514,57.0
13510.121672204727,56.0
13510.12173470194,110.0
13510.121797199152,81.0
13510.121859696364,39.0
13510.121922193577,60.0
13510.12198469079,71.0
13510.122047188002,54.0
13510.122109685213,21.0
13510.122172182426,18.0
13510.122234679638,21.0
13510.122297176851,53.0
13510.122359674064,78.0
13510.122422171276,70.0
13510.122484668489,57.0
13510.122547165702,57.0
13510.122609662914,34.0
13510.122672160127,17.0
13510.12273465734,89.0
13510.12279715455,77.0
13510.122859651763,37.0
13510.122922148976,43.0
13510.122984646188,18.0
13510.123047143401,34.0
13510.123109640614,37.0
13510.123172137826,30.0
13510.123234635039,81.0
13510.123297132252,83.0
13510.123359629464,88.0
13510.123422126677,87.0
13510.123484623888,58.0
13510.1235471211,79.0
13510.123609618313,86.0
13510.123672115526,55.0
13510.123734612738,106.0
13510.12379710995,92.0
13510.123859607163,60.0
13510.123922104376,75.0
13510.123984601589,66.0
13510.124047098801,66.0
13510.124109596014,57.0
13510.124172093225,71.0
13510.124234590437,82.0
13510.12429708765,65.0
13510.124359584863,63.0
13510.124422082075,71.0
13510.124484579288,67.0
13510.1245470765,94.0
13510.124609573713,64.0
13510.124672070926,19.0
13510.124734568139,82.0
13510.124797065351,70.0
13510.124859562562,46.0
13510.124922059775,60.0
13510.124984556987,79.0
13510.1250470542,74.0
13510.125109551413,51.0
13510.125172048625,78.0
13510.125234545838,77.0
13510.12529704305,62.0
13510.125359540263,58.0
13510.125422037476,59.0
13510.125484534688,39.0
13510.1255470319,42.0
13510.125609529112,83.0
13510.125672026325,99.0
13510.125734523537,109.0
13510.12579702075,61.0
13510.125859517962,75.0
13510.125922015175,92.0
13510.125984512388,56.0
13510.1260470096,50.0
13510.126109506813,46.0
13510.126172004026,48.0
13510.126234501236,42.0
13510.12629699845,62.0
13510.126359495662,51.0
13510.126421992874,55.0
13510.126484490087,77.0
13510.1265469873,65.0
13510.126609484512,28.0
13510.126671981725,11.0
13510.126734478938,101.0
13510.12679697615,113.0
13510.126859473363,79.0
13510.126921970574,77.0
13510.126984467786,79.0
13510.127046964999,75.0
13510.127109462212,49.0
13510.127171959424,59.0
13510.127234456637,88.0
13510.12729695385,111.0
13510.127359451062,101.0
13510.127421948275,79.0
13510.127484445487,103.0
13510.1275469427,123.0
13510.12760943991,60.0
13510.127671937124,22.0
13510.127734434336,95.0
13510.127796931549,80.0
13510.127859428761,75.0
13510.127921925974,106.0
13510.127984423187,92.0
13510.1280469204,86.0
13510.128109417612,113.0
13510.128171914825,97.0
13510.128234412037,79.0
13510.128296909248,100.0
13510.12835940646,88.0
13510.128421903673,83.0
13510.128484400886,93.0
13510.128546898099,100.0
13510.128609395311,80.0
13510.128671892524,69.0
13510.128734389737,101.0
13510.12879688695,38.0
13510.128859384162,29.0
13510.128921881374,63.0
13510.128984378585,42.0
13510.129046875798,40.0
13510.12910937301,47.0
13510.129171870223,59.0
13510.129234367436,79.0
13510.129296864648,94.0
13510.129359361861,76.0
13510.129421859074,85.0
13510.129484356286,97.0
13510.129546853499,65.0
13510.129609350712,46.0
13510.129671847923,82.0
13510.129734345135,138.0
13510.129796842348,143.0
13510.12985933956,145.0
13510.129921836773,133.0
13510.129984333986,98.0
13510.130046831198,94.0
13510.130109328411,120.0
13510.130171825624,128.0
13510.130234322836,108.0
13510.130296820049,103.0
13510.13035931726,95.0
13510.130421814472,130.0
13510.130484311685,115.0
13510.130546808898,83.0
13510.13060930611,82.0
13510.130671803323,63.0
13510.130734300536,137.0
13510.130796797748,131.0
13510.13085929496,91.0
13510.130921792173,136.0
13510.130984289386,151.0
13510.131046786597,135.0
13510.13110928381,148.0
13510.131171781022,163.0
13510.131234278235,127.0
13510.131296775447,143.0
13510.13135927266,132.0
13510.131421769873,114.0
13510.131484267085,118.0
13510.131546764298,123.0
13510.13160926151,99.0
13510.131671758723,88.0
13510.131734255934,168.0
13510.131796753147,137.0
13510.13185925036,126.0
13510.131921747572,144.0
13510.131984244785,127.0
13510.132046741997,134.0
13510.13210923921,112.0
13510.132171736423,111.0
13510.132234233635,109.0
13510.132296730848,128.0
13510.13235922806,151.0
13510.132421725271,146.0
13510.132484222484,152.0
13510.132546719697,160.0
13510.13260921691,139.0
13510.132671714122,124.0
13510.132734211335,157.0
13510.132796708547,154.0
13510.13285920576,156.0
13510.132921702972,166.0
13510.132984200185,141.0
13510.133046697396,137.0
13510.133109194609,133.0
13510.133171691821,126.0
13510.133234189034,136.0
13510.133296686246,164.0
13510.13335918346,160.0
13510.133421680672,140.0
13510.133484177884,131.0
13510.133546675097,133.0
13510.13360917231,122.0
13510.133671669522,91.0
13510.133734166733,133.0
13510.133796663946,125.0
13510.133859161158,105.0
13510.133921658371,122.0
13510.133984155584,112.0
13510.134046652796,130.0
13510.134109150009,99.0
13510.134171647222,111.0
13510.134234144434,151.0
13510.134296641647,117.0
13510.13435913886,105.0
13510.13442163607,104.0
13510.134484133283,105.0
13510.134546630496,121.0
13510.134609127708,92.0
13510.13467162492,96.0
13510.134734122134,175.0
13510.134796619346,133.0
13510.134859116559,110.0
13510.134921613771,147.0
13510.134984110984,119.0
13510.135046608197,128.0
13510.135109105408,123.0
13510.13517160262,101.0
13510.135234099833,118.0
13510.135296597045,133.0
13510.135359094258,133.0
13510.13542159147,135.0
13510.135484088683,140.0
13510.135546585896,144.0
13510.135609083109,118.0
13510.135671580321,121.0
13510.135734077534,177.0
13510.135796574745,135.0
13510.135859071957,140.0
13510.13592156917,168.0
13510.135984066383,140.0
13510.136046563595,128.0
13510.136109060808,127.0
13510.13617155802,156.0
13510.136234055233,181.0
13510.136296552446,191.0
13510.136359049658,178.0
13510.136421546871,200.0
13510.136484044082,194.0
13510.136546541295,188.0
13510.136609038507,188.0
13510.13667153572,134.0
13510.136734032933,174.0
13510.136796530145,181.0
13510.136859027358,155.0
13510.13692152457,122.0
13510.136984021783,120.0
13510.137046518996,145.0
13510.137109016208,140.0
13510.13717151342,142.0
13510.137234010632,138.0
13510.137296507844,179.0
13510.137359005057,172.0
13510.13742150227,162.0
13510.137483999482,175.0
13510.137546496695,167.0
13510.137608993908,158.0
13510.13767149112,160.0
13510.137733988333,227.0
13510.137796485546,200.0
13510.137858982756,163.0
13510.137921479969,174.0
13510.137983977182,178.0
13510.138046474394,191.0
13510.138108971607,180.0
13510.13817146882,185.0
13510.138233966032,206.0
13510.138296463245,176.0
13510.138358960457,176.0
13510.13842145767,186.0
13510.138483954883,156.0
13510.138546452094,179.0
13510.138608949306,181.0
13510.138671446519,139.0
13510.138733943731,211.0
13510.138796440944,197.0
13510.138858938157,144.0
13510.13892143537,174.0
13510.138983932582,144.0
13510.139046429795,124.0
13510.139108927007,164.0
13510.13917142422,152.0
13510.13923392143,164.0
13510.139296418643,188.0
13510.139358915856,166.0
13510.139421413069,173.0
13510.139483910281,158.0
13510.139546407494,157.0
13510.139608904707,161.0
13510.13967140192,142.0
13510.139733899132,186.0
13510.139796396345,179.0
13510.139858893557,175.0
13510.139921390768,173.0
13510.13998388798,170.0
13510.140046385193,176.0
13510.140108882406,146.0
13510.140171379619,176.0
13510.140233876831,211.0
13510.140296374044,180.0
13510.140358871256,173.0
13510.14042136847,178.0
13510.140483865682,182.0
13510.140546362894,203.0
13510.140608860105,185.0
13510.140671357318,177.0
13510.14073385453,215.0
13510.140796351743,204.0
13510.140858848956,196.0
13510.140921346168,204.0
13510.140983843381,198.0
13510.141046340594,177.0
13510.141108837806,176.0
13510.141171335019,182.0
13510.141233832232,194.0
13510.141296329442,199.0
13510.141358826655,186.0
13510.141421323868,204.0
13510.14148382108,201.0
13510.141546318293,203.0
13510.141608815506,192.0
13510.141671312718,182.0
13510.14173380993,238.0
13510.141796307144,199.0
13510.141858804356,183.0
13510.141921301569,211.0
13510.14198379878,197.0
13510.142046295992,216.0
13510.142108793205,212.0
13510.142171290418,195.0
13510.14223378763,185.0
13510.142296284843,186.0
13510.142358782055,203.0
13510.142421279268,222.0
13510.14248377648,200.0
13510.142546273693,211.0
13510.142608770906,231.0
13510.142671268117,213.0
13510.14273376533,269.0
13510.142796262542,262.0
13510.142858759755,231.0
13510.142921256967,231.0
13510.14298375418,237.0
13510.143046251393,252.0
13510.143108748605,208.0
13510.143171245818,211.0
13510.14323374303,244.0
13510.143296240243,246.0
13510.143358737454,246.0
13510.143421234667,229.0
13510.14348373188,213.0
13510.143546229092,229.0
13510.143608726305,225.0
13510.143671223517,207.0
13510.14373372073,223.0
13510.143796217943,231.0
13510.143858715155,220.0
13510.143921212368,225.0
13510.143983709579,220.0
13510.144046206791,206.0
13510.144108704004,220.0
13510.144171201217,237.0
13510.14423369843,250.0
13510.144296195642,267.0
13510.144358692854,245.0
13510.144421190067,228.0
13510.14448368728,240.0
13510.144546184492,225.0
13510.144608681705,200.0
13510.144671178916,209.0
13510.144733676128,257.0
13510.144796173341,240.0
13510.144858670554,219.0
13510.144921167766,193.0
13510.144983664979,176.0
13510.145046162192,179.0
13510.145108659404,188.0
13510.145171156617,197.0
13510.14523365383,186.0
13510.145296151042,204.0
13510.145358648253,212.0
13510.145421145466,198.0
13510.145483642678,177.0
13510.145546139891,194.0
13510.145608637104,193.0
13510.145671134316,175.0
13510.145733631529,234.0
13510.145796128741,225.0
13510.145858625954,189.0
13510.145921123167,202.0
13510.14598362038,212.0
13510.14604611759,214.0
13510.146108614803,195.0
13510.146171112016,229.0
13510.146233609228,236.0
13510.14629610644,218.0
13510.146358603653,239.0
13510.146421100866,216.0
13510.146483598079,210.0
13510.146546095291,245.0
13510.146608592504,214.0
13510.146671089717,201.0
13510.146733586927,269.0
13510.14679608414,255.0
13510.146858581353,196.0
13510.146921078565,193.0
13510.146983575778,192.0
13510.14704607299,219.0
13510.147108570203,204.0
13510.147171067416,180.0
13510.147233564629,207.0
13510.147296061841,186.0
13510.147358559054,183.0
13510.147421056265,192.0
13510.147483553477,174.0
13510.14754605069,215.0
13510.147608547903,192.0
13510.147671045115,147.0
13510.147733542328,219.0
13510.14779603954,223.0
13510.147858536753,200.0
13510.147921033966,197.0
13510.147983531178,178.0
13510.148046028391,174.0
13510.148108525602,166.0
13510.148171022814,173.0
13510.148233520027,217.0
13510.14829601724,215.0
13510.148358514452,189.0
13510.148421011665,191.0
13510.148483508878,184.0
13510.14854600609,196.0
13510.148608503303,201.0
13510.148671000516,173.0
13510.148733497728,205.0
13510.148795994939,209.0
13510.148858492152,185.0
13510.148920989364,193.0
13510.148983486577,214.0
13510.14904598379,223.0
13510.149108481002,183.0
13510.149170978215,205.0
13510.149233475428,233.0
13510.14929597264,217.0
13510.149358469853,180.0
13510.149420967065,185.0
13510.149483464276,197.0
13510.149545961489,191.0
13510.149608458702,171.0
13510.149670955914,155.0
13510.149733453127,255.0
13510.14979595034,284.0
13510.149858447552,259.0
13510.149920944765,255.0
13510.149983441977,246.0
13510.15004593919,251.0
13510.150108436403,261.0
13510.150170933613,234.0
13510.150233430826,234.0
13510.150295928039,254.0
13510.150358425251,208.0
13510.150420922464,206.0
13510.150483419677,244.0
13510.15054591689,240.0
13510.150608414102,206.0
13510.150670911315,209.0
13510.150733408527,274.0
13510.15079590574,256.0
13510.15085840295,216.0
13510.150920900163,226.0
13510.150983397376,231.0
13510.151045894589,227.0
13510.151108391801,219.0
13510.151170889014,223.0
13510.151233386227,236.0
13510.15129588344,223.0
13510.151358380652,233.0
13510.151420877864,204.0
13510.151483375077,147.0
13510.151545872288,175.0
13510.1516083695,156.0
13510.151670866713,129.0
13510.151733363926,181.0
13510.151795861138,166.0
13510.151858358351,149.0
13510.151920855564,146.0
13510.151983352776,121.0
13510.152045849989,126.0
13510.152108347202,138.0
13510.152170844414,127.0
13510.152233341625,129.0
13510.152295838838,129.0
13510.15235833605,115.0
13510.152420833263,132.0
13510.152483330476,128.0
13510.152545827688,150.0
13510.152608324901,146.0
13510.152670822114,109.0
13510.152733319326,179.0
13510.152795816539,161.0
13510.152858313751,117.0
13510.152920810962,134.0
13510.152983308175,158.0
13510.153045805388,157.0
13510.1531083026,146.0
13510.153170799813,165.0
13510.153233297026,160.0
13510.153295794238,171.0
13510.15335829145,161.0
13510.153420788663,147.0
13510.153483285876,166.0
13510.153545783089,175.0
13510.1536082803,144.0
13510.153670777512,115.0
13510.153733274725,173.0
13510.153795771937,158.0
13510.15385826915,114.0
13510.153920766363,143.0
13510.153983263575,152.0
13510.154045760788,147.0
13510.154108258,158.0
13510.154170755213,159.0
13510.154233252426,143.0
13510.154295749637,138.0
13510.15435824685,133.0
13510.154420744062,147.0
13510.154483241275,167.0
13510.154545738487,159.0
13510.1546082357,139.0
13510.154670732913,152.0
13510.154733230125,209.0
13510.154795727338,175.0
13510.15485822455,148.0
13510.154920721761,170.0
13510.154983218974,169.0
13510.155045716187,183.0
13510.1551082134,181.0
13510.155170710612,173.0
13510.155233207824,202.0
13510.155295705037,195.0
13510.15535820225,190.0
13510.155420699462,197.0
13510.155483196675,190.0
13510.155545693888,200.0
13510.1556081911,189.0
13510.155670688311,165.0
13510.155733185524,236.0
13510.155795682736,257.0
13510.155858179949,208.0
13510.155920677162,202.0
13510.155983174374,201.0
13510.156045671587,213.0
13510.1561081688,225.0
13510.156170666012,203.0
13510.156233163225,202.0
13510.156295660436,208.0
13510.156358157648,216.0
13510.156420654861,243.0
13510.156483152074,212.0
13510.156545649286,227.0
13510.156608146499,246.0
13510.156670643712,213.0
13510.156733140924,271.0
13510.156795638137,283.0
13510.15685813535,213.0
13510.156920632562,213.0
13510.156983129773,239.0
13510.157045626986,239.0
13510.157108124198,214.0
13510.15717062141,217.0
13510.157233118623,238.0
13510.157295615836,228.0
13510.157358113049,225.0
13510.157420610261,223.0
13510.157483107474,232.0
13510.157545604687,252.0
13510.1576081019,233.0
13510.15767059911,210.0
13510.157733096323,256.0
13510.157795593535,249.0
13510.157858090748,218.0
13510.15792058796,238.0
13510.157983085173,217.0
13510.158045582386,192.0
13510.158108079599,193.0
13510.158170576811,211.0
13510.158233074024,226.0
13510.158295571237,204.0
13510.158358068447,210.0
13510.15842056566,233.0
13510.158483062873,210.0
13510.158545560085,217.0
13510.158608057298,223.0
13510.15867055451,178.0
13510.158733051723,216.0
13510.158795548936,215.0
13510.158858046148,204.0
13510.158920543361,234.0
13510.158983040574,221.0
13510.159045537785,209.0
13510.159108034997,218.0
13510.15917053221,221.0
13510.159233029422,244.0
13510.159295526635,249.0
13510.159358023848,228.0
13510.15942052106,241.0
13510.159483018273,222.0
13510.159545515486,230.0
13510.159608012698,206.0
13510.159670509911,164.0
13510.159733007122,251.0
13510.159795504334,238.0
13510.159858001547,193.0
13510.15992049876,206.0
13510.159982995972,215.0
13510.160045493185,236.0
13510.160107990398,231.0
13510.16017048761,227.0
13510.160232984823,223.0
13510.160295482036,212.0
13510.160357979248,230.0
13510.160420476459,234.0
13510.160482973672,239.0
13510.160545470884,252.0
13510.160607968097,249.0
13510.16067046531,226.0
13510.160732962522,251.0
13510.160795459735,247.0
13510.160857956947,218.0
13510.16092045416,230.0
13510.160982951373,237.0
13510.161045448585,225.0
13510.161107945796,229.0
13510.161170443009,223.0
13510.161232940221,226.0
13510.161295437434,239.0
13510.161357934647,227.0
13510.16142043186,231.0
13510.161482929072,218.0
13510.161545426285,210.0
13510.161607923497,192.0
13510.16167042071,189.0
13510.161732917923,249.0
13510.161795415133,224.0
13510.161857912346,185.0
13510.161920409559,201.0
13510.161982906771,211.0
13510.162045403984,190.0
13510.162107901197,199.0
13510.16217039841,213.0
13510.162232895622,200.0
13510.162295392834,232.0
13510.162357890047,223.0
13510.16242038726,200.0
13510.16248288447,207.0
13510.162545381683,247.0
13510.162607878896,252.0
13510.162670376109,242.0
13510.162732873321,302.0
13510.162795370534,283.0
13510.162857867746,271.0
13510.162920364959,275.0
13510.162982862172,263.0
13510.163045359384,285.0
13510.163107856597,272.0
13510.163170353808,268.0
13510.16323285102,292.0
13510.163295348233,268.0
13510.163357845446,256.0
13510.163420342658,284.0
13510.163482839871,286.0
13510.163545337084,273.0
13510.163607834296,268.0
13510.163670331509,271.0
13510.163732828722,314.0
13510.163795325934,293.0
13510.163857823145,255.0
13510.163920320358,262.0
13510.16398281757,257.0
13510.164045314783,268.0
13510.164107811996,282.0
13510.164170309208,241.0
13510.16423280642,222.0
13510.164295303633,252.0
13510.164357800846,270.0
13510.164420298059,270.0
13510.164482795271,265.0
13510.164545292482,270.0
13510.164607789695,257.0
13510.164670286907,253.0
13510.16473278412,335.0
13510.164795281333,371.0
13510.164857778545,313.0
13510.164920275758,282.0
13510.16498277297,305.0
13510.165045270183,297.0
13510.165107767396,285.0
13510.165170264609,296.0
13510.16523276182,277.0
13510.165295259032,290.0
13510.165357756245,312.0
13510.165420253457,283.0
13510.16548275067,274.0
13510.165545247883,306.0
13510.165607745095,300.0
13510.165670242308,256.0
13510.16573273952,313.0
13510.165795236733,322.0
13510.165857733946,296.0
13510.165920231157,306.0
13510.16598272837,306.0
13510.166045225582,335.0
13510.166107722795,311.0
13510.166170220007,285.0
13510.16623271722,304.0
13510.166295214432,298.0
13510.166357711645,291.0
13510.166420208858,308.0
13510.16648270607,292.0
13510.166545203283,285.0
13510.166607700494,297.0
13510.166670197706,276.0
13510.16673269492,327.0
13510.166795192132,337.0
13510.166857689344,297.0
13510.166920186557,285.0
13510.16698268377,296.0
13510.167045180982,316.0
13510.167107678195,326.0
13510.167170175408,346.0
13510.167232672618,341.0
13510.167295169831,332.0
13510.167357667044,369.0
13510.167420164256,381.0
13510.167482661469,344.0
13510.167545158682,331.0
13510.167607655894,302.0
13510.167670153107,279.0
13510.16773265032,339.0
13510.167795147532,320.0
13510.167857644745,316.0
13510.167920141956,341.0
13510.167982639168,332.0
13510.16804513638,310.0
13510.168107633594,294.0
13510.168170130806,306.0
13510.168232628019,285.0
13510.168295125231,277.0
13510.168357622444,294.0
13510.168420119657,267.0
13510.16848261687,245.0
13510.168545114082,283.0
13510.168607611293,277.0
13510.168670108505,227.0
13510.168732605718,283.0
13510.16879510293,277.0
13510.168857600143,234.0
13510.168920097356,252.0
13510.168982594569,247.0
13510.169045091781,248.0
13510.169107588994,265.0
13510.169170086207,282.0
13510.16923258342,290.0
13510.16929508063,295.0
13510.169357577843,290.0
13510.169420075055,297.0
13510.169482572268,294.0
13510.16954506948,298.0
13510.169607566693,300.0
13510.169670063906,293.0
13510.169732561119,368.0
13510.169795058331,345.0
13510.169857555544,315.0
13510.169920052756,320.0
13510.169982549967,326.0
13510.17004504718,361.0
13510.170107544393,361.0
13510.170170041605,346.0
13510.170232538818,343.0
13510.17029503603,355.0
13510.170357533243,342.0
13510.170420030456,331.0
13510.170482527668,316.0
13510.170545024881,339.0
13510.170607522094,311.0
13510.170670019304,273.0
13510.170732516517,320.0
13510.17079501373,314.0
13510.170857510942,289.0
13510.170920008155,281.0
13510.170982505368,296.0
13510.17104500258,285.0
13510.171107499793,249.0
13510.171169997006,267.0
13510.171232494218,294.0
13510.17129499143,296.0
13510.171357488642,291.0
13510.171419985854,281.0
13510.171482483067,263.0
13510.17154498028,290.0
13510.171607477492,271.0
13510.171669974705,240.0
13510.171732471917,319.0
13510.17179496913,273.0
13510.171857466343,234.0
13510.171919963555,276.0
13510.171982460768,232.0
13510.172044957979,235.0
13510.172107455192,265.0
13510.172169952404,217.0
13510.172232449617,202.0
13510.17229494683,224.0
13510.172357444042,215.0
13510.172419941255,223.0
13510.172482438467,248.0
13510.17254493568,235.0
13510.172607432893,204.0
13510.172669930105,221.0
13510.172732427316,289.0
13510.172794924529,276.0
13510.172857421741,262.0
13510.172919918954,275.0
13510.172982416167,270.0
13510.17304491338,248.0
13510.173107410592,201.0
13510.173169907805,201.0
13510.173232405017,222.0
13510.17329490223,215.0
13510.173357399442,215.0
13510.173419896653,205.0
13510.173482393866,200.0
13510.173544891079,232.0
13510.173607388291,202.0
13510.173669885504,172.0
13510.173732382716,241.0
13510.17379487993,250.0
13510.173857377142,252.0
13510.173919874354,246.0
13510.173982371567,213.0
13510.17404486878,217.0
13510.17410736599,214.0
13510.174169863203,210.0
13510.174232360416,216.0
13510.174294857628,215.0
13510.174357354841,203.0
13510.174419852054,209.0
13510.174482349266,206.0
13510.174544846479,205.0
13510.174607343692,219.0
13510.174669840904,187.0
13510.174732338117,202.0
13510.174794835328,228.0
13510.17485733254,200.0
13510.174919829753,196.0
13510.174982326966,210.0
13510.175044824178,202.0
13510.17510732139,202.0
13510.175169818604,210.0
13510.175232315816,205.0
13510.175294813029,220.0
13510.175357310241,217.0
13510.175419807454,225.0
13510.175482304665,219.0
13510.175544801878,218.0
13510.17560729909,217.0
13510.175669796303,181.0
13510.175732293515,218.0
13510.175794790728,200.0
13510.17585728794,194.0
13510.175919785153,241.0
13510.175982282366,233.0
13510.176044779579,206.0
13510.176107276791,200.0
13510.176169774002,221.0
13510.176232271215,206.0
13510.176294768427,222.0
13510.17635726564,256.0
13510.176419762853,222.0
13510.176482260065,215.0
13510.176544757278,241.0
13510.17660725449,200.0
13510.176669751703,177.0
13510.176732248916,234.0
13510.176794746129,212.0
13510.17685724334,205.0
13510.176919740552,188.0
13510.176982237765,155.0
13510.177044734977,180.0
13510.17710723219,169.0
13510.177169729403,176.0
13510.177232226615,195.0
13510.177294723828,182.0
13510.17735722104,189.0
13510.177419718253,198.0
13510.177482215466,167.0
13510.177544712677,177.0
13510.17760720989,170.0
13510.177669707102,169.0
13510.177732204314,214.0
13510.177794701527,167.0
13510.17785719874,167.0
13510.177919695952,199.0
13510.177982193165,181.0
13510.178044690378,204.0
13510.17810718759,227.0
13510.178169684801,211.0
13510.178232182014,200.0
13510.178294679226,204.0
13510.178357176439,208.0
13510.178419673652,222.0
13510.178482170864,228.0
13510.178544668077,218.0
13510.17860716529,196.0
13510.178669662502,161.0
13510.178732159715,207.0
13510.178794656927,228.0
13510.178857154138,220.0
13510.178919651351,181.0
13510.178982148564,155.0
13510.179044645776,194.0
13510.179107142989,203.0
13510.179169640202,194.0
13510.179232137414,209.0
13510.179294634627,213.0
13510.17935713184,186.0
13510.179419629052,218.0
13510.179482126265,234.0
13510.179544623476,224.0
13510.179607120688,206.0
13510.1796696179,165.0
13510.179732115113,215.0
13510.179794612326,220.0
13510.179857109539,217.0
13510.179919606751,218.0
13510.179982103964,181.0
13510.180044601177,178.0
13510.18010709839,162.0
13510.180169595602,172.0
13510.180232092813,168.0
13510.180294590025,175.0
13510.180357087238,206.0
13510.18041958445,185.0
13510.180482081663,163.0
13510.180544578876,179.0
13510.180607076089,177.0
13510.180669573301,142.0
13510.180732070514,161.0
13510.180794567726,166.0
13510.18085706494,169.0
13510.18091956215,182.0
13510.180982059363,184.0
13510.181044556575,179.0
13510.181107053788,176.0
13510.181169551,203.0
13510.181232048213,198.0
13510.181294545426,192.0
13510.181357042638,191.0
13510.181419539851,191.0
13510.181482037064,215.0
13510.181544534276,213.0
13510.181607031487,178.0
13510.1816695287,181.0
13510.181732025912,256.0
13510.181794523125,225.0
13510.181857020338,199.0
13510.18191951755,230.0
13510.181982014763,231.0
13510.182044511976,189.0
13510.182107009188,182.0
13510.1821695064,198.0
13510.182232003614,168.0
13510.182294500824,163.0
13510.182356998037,183.0
13510.18241949525,196.0
13510.182481992462,214.0
13510.182544489675,221.0
13510.182606986888,171.0
13510.1826694841,139.0
13510.182731981313,215.0
13510.182794478525,211.0
13510.182856975738,188.0
13510.18291947295,212.0
13510.182981970162,199.0
13510.183044467374,200.0
13510.183106964587,218.0
13510.1831694618,206.0
13510.183231959012,202.0
13510.183294456225,228.0
13510.183356953437,222.0
13510.18341945065,198.0
13510.183481947863,184.0
13510.183544445075,185.0
13510.183606942288,162.0
13510.183669439499,150.0
13510.183731936711,211.0
13510.183794433924,193.0
13510.183856931137,172.0
13510.18391942835,189.0
13510.183981925562,160.0
13510.184044422775,151.0
13510.184106919987,147.0
13510.1841694172,159.0
13510.184231914413,170.0
13510.184294411625,157.0
13510.184356908836,164.0
13510.184419406049,188.0
13510.184481903261,178.0
13510.184544400474,177.0
13510.184606897687,171.0
13510.1846693949,148.0
13510.184731892112,191.0
13510.184794389324,166.0
13510.184856886537,144.0
13510.18491938375,179.0
13510.184981880962,175.0
13510.185044378173,139.0
13510.185106875386,131.0
13510.185169372598,153.0
13510.185231869811,159.0
13510.185294367024,166.0
13510.185356864236,175.0
13510.185419361449,180.0
13510.185481858662,166.0
13510.185544355874,197.0
13510.185606853087,188.0
13510.1856693503,111.0
13510.18573184751,185.0
13510.185794344723,188.0
13510.185856841936,135.0
13510.185919339148,139.0
13510.185981836361,136.0
13510.186044333574,150.0
13510.186106830786,151.0
13510.186169327999,141.0
13510.186231825212,140.0
13510.186294322424,149.0
13510.186356819637,132.0
13510.186419316848,112.0
13510.18648181406,112.0
13510.186544311273,130.0
13510.186606808486,125.0
13510.186669305698,123.0
13510.18673180291,184.0
13510.186794300123,178.0
13510.186856797336,149.0
13510.186919294549,166.0
13510.186981791761,158.0
13510.187044288974,164.0
13510.187106786185,189.0
13510.187169283397,153.0
13510.18723178061,133.0
13510.187294277823,152.0
13510.187356775035,157.0
13510.187419272248,167.0
13510.18748176946,160.0
13510.187544266673,162.0
13510.187606763886,159.0
13510.187669261099,119.0
13510.187731758311,152.0
13510.187794255522,147.0
13510.187856752735,135.0
13510.187919249947,146.0
13510.18798174716,141.0
13510.188044244373,147.0
13510.188106741585,139.0
13510.188169238798,135.0
13510.18823173601,161.0
13510.188294233223,154.0
13510.188356730436,137.0
13510.188419227648,177.0
13510.18848172486,161.0
13510.188544222072,172.0
13510.188606719285,189.0
13510.188669216497,135.0
13510.18873171371,189.0
13510.188794210922,192.0
13510.188856708135,166.0
13510.188919205348,201.0
13510.18898170256,200.0
13510.189044199773,200.0
13510.189106696984,198.0
13510.189169194196,195.0
13510.189231691409,195.0
13510.189294188622,205.0
13510.189356685834,194.0
13510.189419183047,201.0
13510.18948168026,219.0
13510.189544177472,230.0
13510.189606674685,225.0
13510.189669171898,190.0
13510.18973166911,200.0
13510.189794166321,166.0
13510.189856663534,144.0
13510.189919160746,180.0
13510.189981657959,194.0
13510.190044155172,186.0
13510.190106652384,205.0
13510.190169149597,234.0
13510.19023164681,184.0
13510.190294144022,165.0
13510.190356641235,194.0
13510.190419138447,193.0
13510.190481635658,195.0
13510.19054413287,207.0
13510.190606630083,190.0
13510.190669127296,157.0
13510.190731624509,212.0
13510.190794121721,220.0
13510.190856618934,215.0
13510.190919116147,229.0
13510.19098161336,213.0
13510.191044110572,213.0
13510.191106607785,213.0
13510.191169104995,222.0
13510.191231602208,205.0
13510.19129409942,188.0
13510.191356596633,210.0
13510.191419093846,197.0
13510.191481591059,186.0
13510.191544088271,198.0
13510.191606585484,204.0
13510.191669082697,187.0
13510.19173157991,221.0
13510.191794077122,226.0
13510.191856574333,206.0
13510.191919071545,233.0
13510.191981568758,194.0
13510.19204406597,176.0
13510.192106563183,175.0
13510.192169060396,156.0
13510.192231557608,195.0
13510.192294054821,199.0
13510.192356552034,178.0
13510.192419049246,195.0
13510.192481546459,178.0
13510.19254404367,177.0
13510.192606540882,176.0
13510.192669038095,158.0
13510.192731535308,201.0
13510.19279403252,195.0
13510.192856529733,207.0
13510.192919026946,206.0
13510.192981524158,196.0
13510.193044021371,204.0
13510.193106518584,226.0
13510.193169015796,248.0
13510.193231513007,199.0
13510.19329401022,184.0
13510.193356507432,196.0
13510.193419004645,189.0
13510.193481501858,188.0
13510.19354399907,213.0
13510.193606496283,185.0
13510.193668993496,156.0
13510.193731490708,217.0
13510.19379398792,197.0
13510.193856485133,168.0
13510.193918982344,193.0
13510.193981479557,192.0
13510.19404397677,169.0
13510.194106473982,156.0
13510.194168971195,170.0
13510.194231468407,199.0
13510.19429396562,212.0
13510.194356462833,185.0
13510.194418960045,192.0
13510.194481457258,207.0
13510.19454395447,207.0
13510.194606451681,214.0
13510.194668948894,187.0
13510.194731446107,237.0
13510.19479394332,248.0
13510.194856440532,228.0
13510.194918937745,247.0
13510.194981434957,228.0
13510.19504393217,222.0
13510.195106429383,227.0
13510.195168926595,206.0
13510.195231423808,212.0
13510.195293921019,198.0
13510.195356418231,192.0
13510.195418915444,220.0
13510.195481412657,190.0
13510.19554390987,190.0
13510.195606407082,190.0
13510.195668904295,143.0
13510.195731401507,217.0
13510.19579389872,215.0
13510.195856395932,168.0
13510.195918893145,164.0
13510.195981390356,160.0
13510.196043887569,182.0
13510.196106384781,184.0
13510.196168881994,178.0
13510.196231379206,208.0
13510.196293876419,226.0
13510.196356373632,190.0
13510.196418870844,174.0
13510.196481368057,175.0
13510.19654386527,220.0
13510.196606362482,247.0
13510.196668859693,205.0
13510.196731356906,235.0
13510.196793854118,224.0
13510.196856351331,211.0
13510.196918848544,227.0
13510.196981345756,227.0
13510.197043842969,239.0
13510.197106340182,225.0
13510.197168837394,212.0
13510.197231334607,228.0
13510.19729383182,234.0
13510.19735632903,211.0
13510.197418826243,219.0
13510.197481323456,196.0
13510.197543820668,198.0
13510.19760631788,228.0
13510.197668815093,222.0
13510.197731312306,275.0
13510.197793809519,231.0
13510.197856306731,184.0
13510.197918803944,240.0
13510.197981301157,229.0
13510.198043798368,208.0
13510.19810629558,198.0
13510.198168792793,197.0
13510.198231290005,197.0
13510.198293787218,189.0
13510.19835628443,207.0
13510.198418781643,236.0
13510.198481278856,217.0
13510.198543776069,235.0
13510.198606273281,233.0
13510.198668770494,199.0
13510.198731267705,259.0
13510.198793764917,273.0
13510.19885626213,235.0
13510.198918759343,219.0
13510.198981256555,208.0
13510.199043753768,221.0
13510.19910625098,249.0
13510.199168748193,232.0
13510.199231245406,235.0
13510.199293742618,259.0
13510.199356239831,254.0
13510.199418737042,269.0
13510.199481234255,263.0
13510.199543731467,257.0
13510.19960622868,213.0
13510.199668725892,188.0
13510.199731223105,261.0
13510.199793720318,259.0
13510.19985621753,222.0
13510.199918714743,240.0
13510.199981211956,220.0
13510.200043709166,204.0
13510.20010620638,225.0
13510.200168703592,237.0
13510.200231200804,217.0
13510.200293698017,205.0
13510.20035619523,232.0
13510.200418692442,239.0
13510.200481189655,239.0
13510.200543686868,265.0
13510.20060618408,229.0
13510.200668681293,199.0
13510.200731178504,258.0
13510.200793675716,242.0
13510.200856172929,222.0
13510.200918670142,221.0
13510.200981167354,237.0
13510.201043664567,250.0
13510.20110616178,230.0
13510.201168658992,224.0
13510.201231156205,239.0
13510.201293653417,255.0
13510.20135615063,245.0
13510.201418647841,262.0
13510.201481145054,261.0
13510.201543642266,266.0
13510.201606139479,258.0
13510.201668636691,218.0
13510.201731133904,268.0
13510.201793631117,288.0
13510.20185612833,267.0
13510.201918625542,261.0
13510.201981122755,237.0
13510.202043619967,241.0
13510.202106117178,264.0
13510.20216861439,261.0
13510.202231111603,258.0
13510.202293608816,252.0
13510.202356106029,254.0
13510.202418603241,265.0
13510.202481100454,247.0
13510.202543597667,236.0
13510.20260609488,219.0
13510.202668592092,220.0
13510.202731089305,302.0
13510.202793586515,277.0
13510.202856083728,222.0
13510.20291858094,211.0
13510.202981078153,194.0
13510.203043575366,195.0
13510.203106072579,199.0
13510.203168569791,195.0
13510.203231067004,219.0
13510.203293564216,250.0
13510.203356061429,244.0
13510.203418558642,236.0
13510.203481055853,232.0
13510.203543553065,202.0
13510.203606050278,183.0
13510.20366854749,192.0
13510.203731044703,260.0
13510.203793541916,231.0
13510.203856039128,207.0
13510.203918536341,235.0
13510.203981033554,213.0
13510.204043530766,190.0
13510.204106027979,190.0
13510.20416852519,198.0
13510.204231022402,212.0
13510.204293519615,209.0
13510.204356016828,199.0
13510.20441851404,205.0
13510.204481011253,199.0
13510.204543508466,246.0
13510.204606005678,260.0
13510.20466850289,202.0
13510.204731000103,265.0
13510.204793497316,248.0
13510.204855994527,214.0
13510.20491849174,238.0
13510.204980988952,220.0
13510.205043486165,240.0
13510.205105983378,213.0
13510.20516848059,172.0
13510.205230977803,226.0
13510.205293475015,265.0
13510.205355972228,231.0
13510.20541846944,203.0
13510.205480966653,201.0
13510.205543463864,207.0
13510.205605961077,187.0
13510.20566845829,191.0
13510.205730955502,236.0
13510.205793452715,233.0
13510.205855949927,222.0
13510.20591844714,196.0
13510.205980944353,183.0
13510.206043441565,192.0
13510.206105938778,194.0
13510.20616843599,228.0
13510.206230933201,223.0
13510.206293430414,216.0
13510.206355927627,226.0
13510.20641842484,197.0
13510.206480922052,219.0
13510.206543419265,264.0
13510.206605916477,226.0
13510.20666841369,217.0
13510.206730910902,282.0
13510.206793408115,268.0
13510.206855905328,216.0
13510.206918402539,220.0
13510.206980899751,260.0
13510.207043396964,260.0
13510.207105894176,234.0
13510.20716839139,242.0
13510.207230888602,245.0
13510.207293385814,258.0
13510.207355883027,256.0
13510.20741838024,234.0
13510.207480877452,246.0
13510.207543374665,266.0
13510.207605871876,236.0
13510.207668369088,202.0
13510.207730866301,246.0
13510.207793363514,263.0
13510.207855860726,257.0
13510.207918357939,258.0
13510.207980855152,246.0
13510.208043352364,257.0
13510.208105849577,270.0
13510.20816834679,265.0
13510.208230844002,273.0
13510.208293341213,257.0
13510.208355838426,227.0
13510.208418335638,250.0
13510.208480832851,273.0
13510.208543330064,272.0
13510.208605827276,281.0
13510.208668324489,254.0
13510.208730821701,275.0
13510.208793318914,285.0
13510.208855816127,259.0
13510.20891831334,276.0
13510.20898081055,277.0
13510.209043307763,282.0
13510.209105804975,264.0
13510.209168302188,252.0
13510.2092307994,290.0
13510.209293296613,301.0
13510.209355793826,285.0
13510.209418291039,307.0
13510.209480788251,311.0
13510.209543285464,305.0
13510.209605782677,274.0
13510.209668279887,240.0
13510.2097307771,295.0
13510.209793274313,297.0
13510.209855771525,284.0
13510.209918268738,288.0
13510.20998076595,300.0
13510.210043263163,291.0
13510.210105760376,262.0
13510.210168257589,247.0
13510.210230754801,273.0
13510.210293252014,289.0
13510.210355749225,281.0
13510.210418246437,290.0
13510.21048074365,271.0
13510.210543240863,267.0
13510.210605738075,242.0
13510.210668235288,225.0
13510.2107307325,257.0
13510.210793229713,227.0
13510.210855726926,222.0
13510.210918224138,249.0
13510.210980721351,241.0
13510.211043218562,258.0
13510.211105715774,241.0
13510.211168212987,238.0
13510.2112307102,269.0
13510.211293207412,258.0
13510.211355704625,247.0
13510.211418201838,264.0
13510.21148069905,259.0
13510.211543196263,256.0
13510.211605693476,241.0
13510.211668190688,233.0
13510.211730687899,313.0
13510.211793185112,296.0
13510.211855682324,243.0
13510.211918179537,255.0
13510.21198067675,244.0
13510.212043173962,252.0
13510.212105671175,282.0
13510.212168168388,285.0
13510.2122306656,285.0
13510.212293162813,283.0
13510.212355660024,280.0
13510.212418157236,279.0
13510.212480654449,254.0
13510.212543151662,255.0
13510.212605648874,247.0
13510.212668146087,224.0
13510.2127306433,288.0
13510.212793140512,285.0
13510.212855637725,239.0
13510.212918134937,239.0
13510.21298063215,232.0
13510.21304312936,245.0
13510.213105626573,253.0
13510.213168123786,240.0
13510.213230620999,234.0
13510.213293118211,231.0
13510.213355615424,242.0
13510.213418112637,236.0
13510.21348060985,236.0
13510.213543107062,258.0
13510.213605604275,250.0
13510.213668101487,219.0
13510.213730598698,270.0
13510.21379309591,271.0
13510.213855593123,228.0
13510.213918090336,261.0
13510.213980587549,249.0
13510.214043084761,244.0
13510.214105581974,287.0
13510.214168079186,261.0
13510.2142305764,266.0
13510.214293073612,278.0
13510.214355570824,233.0
13510.214418068035,262.0
13510.214480565248,293.0
13510.21454306246,266.0
13510.214605559673,240.0
13510.214668056886,214.0
13510.214730554098,285.0
13510.214793051311,286.0
13510.214855548524,222.0
13510.214918045736,252.0
13510.214980542949,272.0
13510.215043040162,262.0
13510.215105537372,251.0
13510.215168034585,231.0
13510.215230531798,232.0
13510.21529302901,243.0
13510.215355526223,240.0
13510.215418023436,272.0
13510.215480520648,267.0
13510.21554301786,258.0
13510.215605515074,251.0
13510.215668012286,213.0
13510.215730509499,271.0
13510.21579300671,283.0
13510.215855503922,266.0
13510.215918001135,303.0
13510.215980498348,285.0
13510.21604299556,266.0
13510.216105492773,259.0
13510.216167989985,249.0
13510.216230487198,293.0
13510.21629298441,301.0
13510.216355481623,283.0
13510.216417978836,293.0
13510.216480476047,269.0
13510.21654297326,263.0
13510.216605470472,250.0
13510.216667967685,217.0
13510.216730464897,265.0
13510.21679296211,256.0
13510.216855459323,240.0
13510.216917956535,222.0
13510.216980453748,207.0
13510.21704295096,230.0
13510.217105448173,229.0
13510.217167945384,256.0
13510.217230442597,242.0
13510.21729293981,232.0
13510.217355437022,258.0
13510.217417934235,267.0
13510.217480431447,272.0
13510.21754292866,286.0
13510.217605425873,257.0
13510.217667923085,200.0
13510.217730420298,252.0
13510.21779291751,226.0
13510.217855414721,198.0
13510.217917911934,241.0
13510.217980409147,222.0
13510.21804290636,233.0
13510.218105403572,255.0
13510.218167900784,258.0
13510.218230397997,270.0
13510.21829289521,248.0
13510.218355392422,222.0
13510.218417889635,231.0
13510.218480386848,236.0
13510.218542884058,247.0
13510.218605381271,239.0
13510.218667878484,211.0
13510.218730375696,284.0
13510.218792872909,299.0
13510.218855370122,237.0
13510.218917867334,242.0
13510.218980364547,266.0
13510.21904286176,250.0
13510.219105358972,229.0
13510.219167856185,247.0
13510.219230353396,259.0
13510.219292850608,258.0
13510.219355347821,271.0
13510.219417845034,263.0
13510.219480342246,256.0
13510.219542839459,266.0
13510.219605336672,246.0
13510.219667833884,223.0
13510.219730331097,276.0
13510.21979282831,289.0
13510.219855325522,264.0
13510.219917822733,266.0
13510.219980319946,249.0
13510.220042817158,251.0
13510.22010531437,241.0
13510.220167811583,247.0
13510.220230308796,268.0
13510.220292806009,268.0
13510.220355303221,280.0
13510.220417800434,273.0
13510.220480297647,242.0
13510.22054279486,255.0
13510.22060529207,249.0
13510.220667789283,244.0
13510.220730286495,298.0
13510.220792783708,269.0
13510.22085528092,255.0
13510.220917778133,269.0
13510.220980275346,252.0
13510.221042772559,259.0
13510.221105269771,237.0
13510.221167766984,257.0
13510.221230264196,295.0
13510.221292761407,282.0
13510.22135525862,259.0
13510.221417755833,255.0
13510.221480253045,248.0
13510.221542750258,272.0
13510.22160524747,276.0
13510.221667744683,248.0
13510.221730241896,309.0
13510.221792739108,278.0
13510.221855236321,245.0
13510.221917733534,271.0
13510.221980230745,277.0
13510.222042727957,294.0
13510.22210522517,281.0
13510.222167722382,267.0
13510.222230219595,273.0
13510.222292716808,259.0
13510.22235521402,247.0
13510.222417711233,266.0
13510.222480208446,243.0
13510.222542705658,246.0
13510.22260520287,237.0
13510.222667700082,203.0
13510.222730197294,260.0
13510.222792694507,268.0
13510.22285519172,245.0
13510.222917688932,228.0
13510.222980186145,210.0
13510.223042683358,233.0
13510.22310518057,230.0
13510.223167677783,211.0
13510.223230174995,220.0
13510.223292672206,206.0
13510.223355169419,205.0
13510.223417666632,198.0
13510.223480163844,170.0
13510.223542661057,208.0
13510.22360515827,199.0
13510.223667655482,176.0
13510.223730152695,236.0
13510.223792649907,207.0
13510.22385514712,171.0
13510.223917644333,184.0
13510.223980141544,187.0
13510.224042638756,183.0
13510.224105135969,184.0
13510.224167633181,198.0
13510.224230130394,205.0
13510.224292627607,206.0
13510.22435512482,223.0
13510.224417622032,208.0
13510.224480119245,184.0
13510.224542616457,230.0
13510.22460511367,253.0
13510.22466761088,219.0
13510.224730108093,277.0
13510.224792605306,264.0
13510.224855102519,201.0
13510.224917599731,227.0
13510.224980096944,212.0
13510.225042594157,203.0
13510.22510509137,220.0
13510.225167588582,230.0
13510.225230085794,225.0
13510.225292583007,240.0
13510.225355080218,252.0
13510.22541757743,227.0
13510.225480074643,249.0
13510.225542571856,256.0
13510.225605069068,188.0
13510.225667566281,195.0
13510.225730063494,243.0
13510.225792560706,210.0
13510.225855057919,218.0
13510.225917555132,227.0
13510.225980052344,204.0
13510.226042549555,219.0
13510.226105046768,232.0
13510.22616754398,223.0
13510.226230041193,216.0
13510.226292538406,223.0
13510.226355035618,220.0
13510.226417532831,199.0
13510.226480030044,184.0
13510.226542527256,218.0
13510.226605024469,213.0
13510.226667521682,148.0
13510.226730018892,198.0
13510.226792516105,221.0
13510.226855013318,189.0
13510.22691751053,186.0
13510.226980007743,183.0
13510.227042504956,187.0
13510.227105002168,182.0
13510.22716749938,190.0
13510.227229996593,212.0
13510.227292493806,240.0
13510.227354991019,257.0
13510.22741748823,243.0
13510.227479985442,226.0
13510.227542482655,248.0
13510.227604979867,230.0
13510.22766747708,232.0
13510.227729974293,283.0
13510.227792471505,246.0
13510.227854968718,224.0
13510.22791746593,230.0
13510.227979963143,213.0
13510.228042460356,224.0
13510.228104957567,229.0
13510.22816745478,193.0
13510.228229951992,178.0
13510.228292449205,189.0
13510.228354946417,191.0
13510.22841744363,206.0
13510.228479940843,193.0
13510.228542438055,187.0
13510.228604935268,171.0
13510.22866743248,172.0
13510.228729929693,264.0
13510.228792426904,236.0
13510.228854924117,183.0
13510.22891742133,200.0
13510.228979918542,201.0
13510.229042415755,196.0
13510.229104912967,176.0
13510.22916741018,196.0
13510.229229907392,220.0
13510.229292404605,212.0
13510.229354901818,197.0
13510.22941739903,186.0
13510.229479896241,171.0
13510.229542393454,189.0
13510.229604890666,188.0
13510.229667387879,157.0
13510.229729885092,204.0
13510.229792382304,219.0
13510.229854879517,212.0
13510.22991737673,225.0
13510.229979873942,218.0
13510.230042371155,216.0
13510.230104868368,211.0
13510.230167365578,218.0
13510.230229862791,230.0
13510.230292360004,231.0
13510.230354857216,229.0
13510.230417354429,224.0
13510.230479851642,229.0
13510.230542348854,235.0
13510.230604846067,227.0
13510.23066734328,204.0
13510.230729840492,245.0
13510.230792337705,255.0
13510.230854834916,203.0
13510.230917332128,202.0
13510.23097982934,210.0
13510.231042326554,176.0
13510.231104823766,160.0
13510.231167320979,163.0
13510.231229818191,179.0
13510.231292315404,199.0
13510.231354812617,182.0
13510.23141730983,206.0
13510.231479807042,193.0
13510.231542304253,190.0
13510.231604801465,177.0
13510.231667298678,125.0
13510.23172979589,201.0
13510.231792293103,201.0
13510.231854790316,168.0
13510.231917287529,169.0
13510.231979784741,134.0
13510.232042281954,112.0
13510.232104779167,135.0
13510.23216727638,159.0
13510.23222977359,117.0
13510.232292270803,88.0
13510.232354768015,102.0
13510.232417265228,121.0
13510.23247976244,114.0
13510.232542259653,131.0
13510.232604756866,132.0
13510.232667254078,96.0
13510.232729751291,145.0
13510.232792248504,140.0
13510.232854745716,104.0
13510.232917242927,113.0
13510.23297974014,108.0
13510.233042237352,121.0
13510.233104734565,120.0
13510.233167231778,131.0
13510.23322972899,128.0
13510.233292226203,98.0
13510.233354723416,104.0
13510.233417220628,122.0
13510.233479717841,130.0
13510.233542215054,134.0
13510.233604712264,94.0
13510.233667209477,65.0
13510.23372970669,130.0
13510.233792203902,115.0
13510.233854701115,85.0
13510.233917198328,86.0
13510.23397969554,73.0
13510.234042192753,78.0
13510.234104689966,81.0
13510.234167187178,73.0
13510.234229684389,53.0
13510.234292181602,50.0
13510.234354678814,45.0
13510.234417176027,61.0
13510.23447967324,80.0
13510.234542170452,71.0
13510.234604667665,75.0
13510.234667164877,51.0
13510.23472966209,79.0
13510.234792159303,72.0
13510.234854656515,47.0
13510.234917153726,52.0
13510.234979650939,59.0
13510.235042148151,75.0
13510.235104645364,80.0
13510.235167142577,79.0
13510.23522963979,87.0
13510.235292137002,102.0
13510.235354634215,87.0
13510.235417131427,61.0
13510.23547962864,51.0
13510.235542125853,64.0
13510.235604623063,48.0
13510.235667120276,16.0
13510.235729617489,75.0
13510.235792114701,72.0
13510.235854611914,55.0
13510.235917109127,69.0
13510.23597960634,69.0
13510.236042103552,69.0
13510.236104600765,48.0
13510.236167097977,63.0
13510.23622959519,58.0
13510.2362920924,52.0
13510.236354589613,83.0
13510.236417086826,86.0
13510.236479584039,66.0
13510.236542081251,62.0
13510.236604578464,49.0
13510.236667075676,25.0
13510.236729572889,78.0
13510.236792070102,91.0
13510.236854567314,55.0
13510.236917064527,34.0
13510.236979561738,41.0
13510.23704205895,49.0
13510.237104556163,22.0
13510.237167053376,18.0
13510.237229550588,49.0
13510.237292047801,36.0
13510.237354545014,4.0
13510.237417042226,22.0
13510.237479539439,7.0
13510.237542036652,9.0
13510.237604533864,17.0
13510.237667031075,1.0
13510.237729528288,51.0
13510.2377920255,35.0
13510.237854522713,-6.0
13510.237917019926,17.0
13510.237979517138,26.0
13510.23804201435,15.0
13510.238104511564,35.0
13510.238167008776,61.0
13510.238229505989,41.0
13510.238292003201,11.0
13510.238354500412,5.0
13510.238416997625,10.0
13510.238479494838,13.0
13510.23854199205,15.0
13510.238604489263,-4.0
13510.238666986475,-27.0
13510.238729483688,41.0
13510.2387919809,57.0
13510.238854478113,5.0
13510.238916975326,-6.0
13510.238979472539,-1.0
13510.23904196975,2.0
13510.239104466962,2.0
13510.239166964175,16.0
13510.239229461387,14.0
13510.2392919586,6.0
13510.239354455813,-8.0
13510.239416953025,-9.0
13510.239479450238,9.0
13510.23954194745,-15.0
13510.239604444663,-31.0
13510.239666941876,-28.0
13510.239729439087,-8.0
13510.2397919363,-28.0
13510.239854433512,-42.0
13510.239916930725,-18.0
13510.239979427937,-43.0
13510.24004192515,-53.0
13510.240104422362,-53.0
13510.240166919575,-50.0
13510.240229416788,-30.0
13510.240291914,-34.0
13510.240354411213,-28.0
13510.240416908424,-26.0
13510.240479405637,-32.0
13510.24054190285,-28.0
13510.240604400062,-53.0
13510.240666897274,-50.0
13510.240729394487,-21.0
13510.2407918917,-38.0
13510.240854388912,-49.0
13510.240916886125,-26.0
13510.240979383338,-47.0
13510.24104188055,-66.0
13510.241104377761,-53.0
13510.241166874974,-78.0
13510.241229372186,-65.0
13510.241291869399,-33.0
13510.241354366612,-45.0
13510.241416863824,-46.0
13510.241479361037,-65.0
13510.24154185825,-71.0
13510.241604355462,-75.0
13510.241666852675,-100.0
13510.241729349887,-57.0
13510.241791847098,-57.0
13510.241854344311,-96.0
13510.241916841524,-110.0
13510.241979338736,-104.0
13510.242041835949,-98.0
13510.242104333161,-91.0
13510.242166830374,-91.0
13510.242229327587,-97.0
13510.2422918248,-86.0
13510.242354322012,-100.0
13510.242416819225,-117.0
13510.242479316435,-141.0
13510.242541813648,-142.0
13510.24260431086,-142.0
13510.242666808073,-148.0
13510.242729305286,-115.0
13510.242791802499,-114.0
13510.242854299711,-139.0
13510.242916796924,-124.0
13510.242979294137,-124.0
13510.24304179135,-122.0
13510.243104288562,-121.0
13510.243166785773,-128.0
13510.243229282985,-121.0
13510.243291780198,-143.0
13510.24335427741,-155.0
13510.243416774623,-147.0
13510.243479271836,-128.0
13510.243541769049,-109.0
13510.243604266261,-122.0
13510.243666763474,-149.0
13510.243729260686,-141.0
13510.243791757899,-138.0
13510.24385425511,-135.0
13510.243916752323,-131.0
13510.243979249535,-154.0
13510.244041746748,-159.0
13510.24410424396,-147.0
13510.244166741173,-146.0
13510.244229238386,-147.0
13510.244291735598,-147.0
13510.244354232811,-141.0
13510.244416730024,-115.0
13510.244479227236,-112.0
13510.244541724447,-130.0
13510.24460422166,-138.0
13510.244666718872,-142.0
13510.244729216085,-118.0
13510.244791713298,-109.0
13510.24485421051,-103.0
13510.244916707723,-108.0
13510.244979204936,-124.0
13510.245041702148,-126.0
13510.24510419936,-153.0
13510.245166696572,-143.0
13510.245229193784,-129.0
13510.245291690997,-144.0
13510.24535418821,-147.0
13510.245416685422,-142.0
13510.245479182635,-144.0
13510.245541679848,-143.0
13510.24560417706,-135.0
13510.245666674273,-164.0
13510.245729171485,-139.0
13510.245791668698,-145.0
13510.245854165909,-168.0
13510.245916663122,-154.0
13510.245979160334,-155.0
13510.246041657547,-142.0
13510.24610415476,-147.0
13510.246166651972,-145.0
13510.246229149185,-153.0
13510.246291646397,-181.0
13510.24635414361,-157.0
13510.246416640823,-175.0
13510.246479138035,-222.0
13510.246541635246,-199.0
13510.246604132459,-199.0
13510.246666629671,-226.0
13510.246729126884,-189.0
13510.246791624097,-175.0
13510.24685412131,-206.0
13510.246916618522,-206.0
13510.246979115735,-195.0
13510.247041612947,-218.0
13510.24710411016,-209.0
13510.247166607372,-227.0
13510.247229104583,-266.0
13510.247291601796,-236.0
13510.247354099009,-237.0
13510.247416596221,-257.0
13510.247479093434,-245.0
13510.247541590647,-255.0
13510.24760408786,-264.0
13510.247666585072,-265.0
13510.247729082284,-232.0
13510.247791579497,-213.0
13510.24785407671,-245.0
13510.24791657392,-255.0
13510.247979071133,-250.0
13510.248041568346,-233.0
13510.248104065558,-240.0
13510.248166562771,-283.0
13510.248229059984,-272.0
13510.248291557196,-248.0
13510.248354054409,-272.0
13510.248416551622,-287.0
13510.248479048834,-276.0
13510.248541546047,-280.0
13510.248604043258,-302.0
13510.24866654047,-309.0
13510.248729037683,-283.0
13510.248791534896,-278.0
13510.248854032108,-278.0
13510.248916529321,-264.0
13510.248979026534,-254.0
13510.249041523746,-257.0
13510.249104020959,-254.0
13510.249166518171,-249.0
13510.249229015384,-269.0
13510.249291512595,-271.0
13510.249354009808,-263.0
13510.24941650702,-278.0
13510.249479004233,-272.0
13510.249541501445,-254.0
13510.249603998658,-262.0
13510.24966649587,-298.0
13510.249728993083,-297.0
13510.249791490296,-286.0
13510.249853987509,-290.0
13510.249916484721,-301.0
13510.249978981932,-287.0
13510.250041479145,-271.0
13510.250103976357,-282.0
13510.25016647357,-290.0
13510.250228970783,-285.0
13510.250291467995,-290.0
13510.250353965208,-311.0
13510.25041646242,-311.0
13510.250478959633,-317.0
13510.250541456846,-307.0
13510.250603954059,-307.0
13510.25066645127,-347.0
13510.250728948482,-323.0
13510.250791445695,-300.0
13510.250853942907,-319.0
13510.25091644012,-324.0
13510.250978937333,-298.0
13510.251041434545,-306.0
13510.251103931758,-328.0
13510.25116642897,-303.0
13510.251228926183,-319.0
13510.251291423396,-338.0
13510.251353920607,-304.0
13510.25141641782,-321.0
13510.251478915032,-345.0
13510.251541412244,-315.0
13510.251603909457,-310.0
13510.25166640667,-316.0
13510.251728903882,-292.0
13510.251791401095,-321.0
13510.251853898308,-342.0
13510.25191639552,-326.0
13510.251978892733,-331.0
13510.252041389944,-324.0
13510.252103887156,-304.0
13510.252166384369,-314.0
13510.252228881582,-328.0
13510.252291378794,-328.0
13510.252353876007,-337.0
13510.25241637322,-320.0
13510.252478870432,-305.0
13510.252541367645,-334.0
13510.252603864858,-338.0
13510.25266636207,-319.0
13510.252728859281,-320.0
13510.252791356494,-356.0
13510.252853853706,-359.0
13510.252916350919,-364.0
13510.252978848132,-392.0
13510.253041345344,-376.0
13510.253103842557,-378.0
13510.25316633977,-378.0
13510.253228836982,-366.0
13510.253291334195,-393.0
13510.253353831407,-396.0
13510.253416328618,-373.0
13510.25347882583,-380.0
13510.253541323043,-378.0
13510.253603820256,-380.0
13510.253666317469,-398.0
13510.253728814681,-369.0
13510.253791311894,-358.0
13510.253853809107,-386.0
13510.25391630632,-404.0
13510.253978803532,-412.0
13510.254041300745,-407.0
13510.254103797955,-413.0
13510.254166295168,-411.0
13510.25422879238,-394.0
13510.254291289593,-393.0
13510.254353786806,-404.0
13510.254416284019,-398.0
13510.254478781231,-402.0
13510.254541278444,-398.0
13510.254603775657,-397.0
13510.25466627287,-414.0
13510.254728770082,-371.0
13510.254791267293,-384.0
13510.254853764505,-405.0
13510.254916261718,-394.0
13510.25497875893,-414.0
13510.255041256143,-406.0
13510.255103753356,-393.0
13510.255166250568,-401.0
13510.255228747781,-402.0
13510.255291244994,-392.0
13510.255353742206,-421.0
13510.255416239419,-413.0
13510.25547873663,-412.0
13510.255541233842,-425.0
13510.255603731055,-412.0
13510.255666228268,-436.0
13510.25572872548,-412.0
13510.255791222693,-413.0
13510.255853719906,-432.0
13510.255916217118,-413.0
13510.255978714331,-406.0
13510.256041211544,-425.0
13510.256103708754,-431.0
13510.256166205967,-398.0
13510.25622870318,-395.0
13510.256291200392,-387.0
13510.256353697605,-370.0
13510.256416194818,-368.0
13510.25647869203,-379.0
13510.256541189243,-394.0
13510.256603686455,-399.0
13510.256666183668,-402.0
13510.25672868088,-377.0
13510.256791178093,-365.0
13510.256853675304,-399.0
13510.256916172517,-405.0
13510.25697866973,-383.0
13510.257041166942,-411.0
13510.257103664155,-417.0
13510.257166161367,-420.0
13510.25722865858,-422.0
13510.257291155793,-409.0
13510.257353653005,-403.0
13510.257416150218,-398.0
13510.257478647429,-405.0
13510.257541144641,-400.0
13510.257603641854,-414.0
13510.257666139067,-472.0
13510.25772863628,-451.0
13510.257791133492,-411.0
13510.257853630705,-411.0
13510.257916127917,-420.0
13510.25797862513,-429.0
13510.258041122343,-427.0
13510.258103619555,-439.0
13510.258166116766,-444.0
13510.258228613979,-445.0
13510.258291111191,-441.0
13510.258353608404,-431.0
13510.258416105617,-422.0
13510.25847860283,-439.0
13510.258541100042,-455.0
13510.258603597254,-454.0
13510.258666094467,-449.0
13510.25872859168,-422.0
13510.258791088892,-420.0
13510.258853586103,-444.0
13510.258916083316,-458.0
13510.258978580528,-425.0
13510.259041077741,-402.0
13510.259103574954,-426.0
13510.259166072166,-417.0
13510.259228569379,-394.0
13510.259291066592,-408.0
13510.259353563804,-421.0
13510.259416061017,-426.0
13510.25947855823,-393.0
13510.25954105544,-366.0
13510.259603552653,-403.0
13510.259666049866,-431.0
13510.259728547078,-388.0
13510.259791044291,-399.0
13510.259853541504,-432.0
13510.259916038716,-433.0
13510.259978535929,-445.0
13510.260041033142,-434.0
13510.260103530354,-419.0
13510.260166027567,-428.0
13510.260228524778,-426.0
13510.26029102199,-450.0
13510.260353519203,-449.0
13510.260416016416,-418.0
13510.260478513628,-442.0
13510.26054101084,-439.0
13510.260603508053,-464.0
13510.260666005266,-466.0
13510.260728502479,-415.0
13510.260790999691,-457.0
13510.260853496904,-533.0
13510.260915994115,-552.0
13510.260978491327,-570.0
13510.26104098854,-517.0
13510.261103485753,-515.0
13510.261165982965,-505.0
13510.261228480178,-424.0
13510.26129097739,-410.0
13510.261353474603,-421.0
13510.261415971816,-457.0
13510.261478469029,-411.0
13510.261540966241,-426.0
13510.261603463452,-477.0
13510.261665960665,-529.0
13510.261728457877,-437.0
13510.26179095509,-466.0
13510.261853452303,-512.0
13510.261915949515,-520.0
13510.261978446728,-504.0
13510.26204094394,-509.0
13510.262103441153,-538.0
13510.262165938366,-519.0
13510.262228435578,-500.0
13510.26229093279,-493.0
13510.262353430002,-518.0
13510.262415927215,-474.0
13510.262478424427,-464.0
13510.26254092164,-489.0
13510.262603418852,-525.0
13510.262665916065,-538.0
13510.262728413278,-542.0
13510.26279091049,-536.0
13510.262853407703,-545.0
13510.262915904916,-574.0
13510.262978402126,-564.0
13510.26304089934,-560.0
13510.263103396552,-556.0
13510.263165893764,-538.0
13510.263228390977,-540.0
13510.26329088819,-538.0
13510.263353385402,-531.0
13510.263415882615,-535.0
13510.263478379828,-544.0
13510.26354087704,-536.0
13510.263603374253,-524.0
13510.263665871464,-530.0
13510.263728368676,-503.0
13510.263790865889,-494.0
13510.263853363102,-522.0
13510.263915860314,-532.0
13510.263978357527,-534.0
13510.26404085474,-532.0
13510.264103351952,-544.0
13510.264165849165,-528.0
13510.264228346377,-494.0
13510.26429084359,-511.0
13510.2643533408,-506.0
13510.264415838014,-505.0
13510.264478335226,-504.0
13510.264540832439,-482.0
13510.264603329651,-481.0
13510.264665826864,-478.0
13510.264728324077,-459.0
13510.26479082129,-458.0
13510.264853318502,-470.0
13510.264915815715,-462.0
13510.264978312927,-493.0
13510.265040810138,-504.0
13510.26510330735,-488.0
13510.265165804563,-510.0
13510.265228301776,-503.0
13510.265290798989,-509.0
13510.265353296201,-533.0
13510.265415793414,-525.0
13510.265478290627,-517.0
13510.26554078784,-512.0
13510.265603285052,-533.0
13510.265665782264,-560.0
13510.265728279475,-549.0
13510.265790776688,-541.0
13510.2658532739,-547.0
13510.265915771113,-563.0
13510.265978268326,-560.0
13510.266040765538,-540.0
13510.266103262751,-541.0
13510.266165759964,-541.0
13510.266228257176,-532.0
13510.266290754389,-513.0
13510.266353251602,-519.0
13510.266415748813,-540.0
13510.266478246025,-549.0
13510.266540743238,-552.0
13510.26660324045,-580.0
13510.266665737663,-596.0
13510.266728234876,-543.0
13510.266790732088,-542.0
13510.266853229301,-580.0
13510.266915726514,-584.0
13510.266978223726,-555.0
13510.267040720939,-545.0
13510.26710321815,-520.0
13510.267165715362,-512.0
13510.267228212575,-525.0
13510.267290709788,-516.0
13510.267353207,-526.0
13510.267415704213,-518.0
13510.267478201426,-534.0
13510.267540698638,-516.0
13510.26760319585,-504.0
13510.267665693063,-546.0
13510.267728190276,-505.0
13510.267790687487,-473.0
13510.2678531847,-500.0
13510.267915681912,-506.0
13510.267978179125,-491.0
13510.268040676337,-507.0
13510.26810317355,-517.0
13510.268165670763,-500.0
13510.268228167975,-519.0
13510.268290665188,-543.0
13510.2683531624,-560.0
13510.268415659611,-549.0
13510.268478156824,-530.0
13510.268540654037,-521.0
13510.26860315125,-501.0
13510.268665648462,-561.0
13510.268728145675,-533.0
13510.268790642887,-476.0
13510.2688531401,-509.0
13510.268915637313,-517.0
13510.268978134525,-518.0
13510.269040631738,-505.0
13510.269103128949,-519.0
13510.269165626161,-509.0
13510.269228123374,-491.0
13510.269290620587,-496.0
13510.2693531178,-480.0
13510.269415615012,-465.0
13510.269478112225,-467.0
13510.269540609437,-488.0
13510.26960310665,-482.0
13510.269665603862,-494.0
13510.269728101075,-474.0
13510.269790598286,-481.0
13510.269853095499,-509.0
13510.269915592711,-479.0
13510.269978089924,-473.0
13510.270040587136,-477.0
13510.27010308435,-467.0
13510.270165581562,-455.0
13510.270228078774,-476.0
13510.270290575987,-491.0
13510.2703530732,-489.0
13510.270415570412,-496.0
13510.270478067623,-503.0
13510.270540564836,-497.0
13510.270603062048,-473.0
13510.270665559261,-483.0
13510.270728056474,-465.0
13510.270790553686,-432.0
13510.270853050899,-449.0
13510.270915548112,-466.0
13510.270978045324,-466.0
13510.271040542537,-458.0
13510.27110303975,-454.0
13510.27116553696,-489.0
13510.271228034173,-509.0
13510.271290531386,-484.0
13510.271353028598,-469.0
13510.27141552581,-458.0
13510.271478023024,-469.0
13510.271540520236,-480.0
13510.271603017449,-486.0
13510.271665514661,-499.0
13510.271728011874,-480.0
13510.271790509087,-473.0
13510.271853006298,-460.0
13510.27191550351,-452.0
13510.271978000723,-445.0
13510.272040497935,-447.0
13510.272102995148,-446.0
13510.27216549236,-464.0
13510.272227989573,-466.0
13510.272290486786,-440.0
13510.272352983999,-453.0
13510.272415481211,-463.0
13510.272477978424,-471.0
13510.272540475635,-465.0
13510.272602972847,-470.0
13510.27266547006,-498.0
13510.272727967273,-429.0
13510.272790464485,-401.0
13510.272852961698,-460.0
13510.27291545891,-447.0
13510.272977956123,-452.0
13510.273040453336,-457.0
13510.273102950548,-430.0
13510.273165447761,-471.0
13510.273227944972,-496.0
13510.273290442185,-457.0
13510.273352939397,-461.0
13510.27341543661,-466.0
13510.273477933823,-475.0
13510.273540431035,-475.0
13510.273602928248,-472.0
13510.27366542546,-506.0
13510.273727922673,-506.0
13510.273790419886,-498.0
13510.273852917098,-480.0
13510.27391541431,-479.0
13510.273977911522,-501.0
13510.274040408734,-468.0
13510.274102905947,-475.0
13510.27416540316,-509.0
13510.274227900372,-487.0
13510.274290397585,-487.0
13510.274352894798,-494.0
13510.27441539201,-486.0
13510.274477889223,-483.0
13510.274540386436,-490.0
13510.274602883646,-499.0
13510.274665380859,-518.0
13510.274727878072,-491.0
13510.274790375284,-473.0
13510.274852872497,-489.0
13510.27491536971,-508.0
13510.274977866922,-518.0
13510.275040364135,-505.0
13510.275102861347,-519.0
13510.27516535856,-517.0
13510.275227855773,-515.0
13510.275290352984,-507.0
13510.275352850196,-480.0
13510.275415347409,-496.0
13510.275477844621,-511.0
13510.275540341834,-494.0
13510.275602839047,-477.0
13510.27566533626,-520.0
13510.275727833472,-487.0
13510.275790330685,-435.0
13510.275852827897,-460.0
13510.27591532511,-473.0
13510.27597782232,-466.0
13510.276040319533,-437.0
13510.276102816746,-449.0
13510.276165313959,-442.0
13510.276227811171,-424.0
13510.276290308384,-443.0
13510.276352805597,-435.0
13510.27641530281,-406.0
13510.276477800022,-426.0
13510.276540297235,-436.0
13510.276602794447,-419.0
13510.276665291658,-436.0
13510.27672778887,-392.0
13510.276790286083,-384.0
13510.276852783296,-407.0
13510.276915280509,-389.0
13510.276977777721,-389.0
13510.277040274934,-411.0
13510.277102772146,-419.0
13510.27716526936,-399.0
13510.277227766572,-414.0
13510.277290263784,-421.0
13510.277352760995,-401.0
13510.277415258208,-422.0
13510.27747775542,-408.0
13510.277540252633,-365.0
13510.277602749846,-372.0
13510.277665247058,-404.0
13510.277727744271,-385.0
13510.277790241484,-364.0
13510.277852738696,-370.0
13510.277915235909,-363.0
13510.277977733122,-367.0
13510.278040230332,-382.0
13510.278102727545,-379.0
13510.278165224758,-376.0
13510.27822772197,-378.0
13510.278290219183,-393.0
13510.278352716396,-398.0
13510.278415213608,-399.0
13510.27847771082,-414.0
13510.278540208034,-409.0
13510.278602705246,-412.0
13510.278665202459,-407.0
13510.27872769967,-375.0
13510.278790196882,-378.0
13510.278852694095,-369.0
13510.278915191308,-366.0
13510.27897768852,-357.0
13510.279040185733,-349.0
13510.279102682945,-384.0
13510.279165180158,-395.0
13510.27922767737,-342.0
13510.279290174583,-346.0
13510.279352671794,-390.0
13510.279415169007,-345.0
13510.27947766622,-346.0
13510.279540163432,-355.0
13510.279602660645,-345.0
13510.279665157857,-384.0
13510.27972765507,-367.0
13510.279790152283,-345.0
13510.279852649495,-362.0
13510.279915146708,-356.0
13510.27997764392,-363.0
13510.280040141131,-372.0
13510.280102638344,-365.0
13510.280165135557,-377.0
13510.28022763277,-372.0
13510.280290129982,-366.0
13510.280352627195,-360.0
13510.280415124407,-355.0
13510.28047762162,-376.0
13510.280540118833,-357.0
13510.280602616045,-369.0
13510.280665113258,-408.0
13510.280727610469,-366.0
13510.280790107681,-348.0
13510.280852604894,-362.0
13510.280915102107,-362.0
13510.28097759932,-362.0
13510.281040096532,-367.0
13510.281102593744,-393.0
13510.281165090957,-390.0
13510.28122758817,-395.0
13510.281290085382,-385.0
13510.281352582595,-363.0
13510.281415079806,-379.0
13510.281477577018,-392.0
13510.281540074231,-387.0
13510.281602571444,-380.0
13510.281665068656,-402.0
13510.281727565869,-370.0
13510.281790063082,-363.0
13510.281852560294,-368.0
13510.281915057507,-368.0
13510.28197755472,-367.0
13510.282040051932,-349.0
13510.282102549143,-361.0
13510.282165046356,-347.0
13510.282227543568,-351.0
13510.282290040781,-370.0
13510.282352537994,-355.0
13510.282415035206,-357.0
13510.282477532419,-354.0
13510.282540029631,-331.0
13510.282602526844,-321.0
13510.282665024057,-348.0
13510.28272752127,-300.0
13510.28279001848,-291.0
13510.282852515693,-338.0
13510.282915012906,-321.0
13510.282977510118,-311.0
13510.28304000733,-333.0
13510.283102504543,-320.0
13510.283165001756,-296.0
13510.283227498969,-286.0
13510.283289996181,-297.0
13510.283352493394,-305.0
13510.283414990607,-289.0
13510.283477487817,-270.0
13510.28353998503,-286.0
13510.283602482243,-306.0
13510.283664979455,-304.0
13510.283727476668,-282.0
13510.28378997388,-286.0
13510.283852471093,-312.0
13510.283914968306,-314.0
13510.283977465519,-317.0
13510.284039962731,-312.0
13510.284102459944,-299.0
13510.284164957155,-306.0
13510.284227454367,-316.0
13510.28428995158,-315.0
13510.284352448793,-299.0
13510.284414946005,-304.0
13510.284477443218,-336.0
13510.28453994043,-326.0
13510.284602437643,-306.0
13510.284664934856,-322.0
13510.284727432068,-303.0
13510.284789929281,-287.0
13510.284852426492,-301.0
13510.284914923704,-298.0
13510.284977420917,-289.0
13510.28503991813,-296.0
13510.285102415342,-285.0
13510.285164912555,-268.0
13510.285227409768,-273.0
13510.28528990698,-261.0
13510.285352404193,-253.0
13510.285414901406,-280.0
13510.285477398618,-287.0
13510.285539895829,-275.0
13510.285602393042,-258.0
13510.285664890254,-272.0
13510.285727387467,-268.0
13510.28578988468,-257.0
13510.285852381892,-281.0
13510.285914879105,-270.0
13510.285977376318,-260.0
13510.28603987353,-256.0
13510.286102370743,-252.0
13510.286164867955,-243.0
13510.286227365166,-210.0
13510.286289862379,-228.0
13510.286352359592,-243.0
13510.286414856804,-242.0
13510.286477354017,-237.0
13510.28653985123,-216.0
13510.286602348442,-239.0
13510.286664845655,-263.0
13510.286727342867,-233.0
13510.28678984008,-260.0
13510.286852337293,-254.0
13510.286914834503,-210.0
13510.286977331716,-234.0
13510.287039828929,-258.0
13510.287102326141,-254.0
13510.287164823354,-248.0
13510.287227320567,-237.0
13510.28728981778,-237.0
13510.287352314992,-240.0
13510.287414812205,-220.0
13510.287477309417,-222.0
13510.28753980663,-253.0
13510.28760230384,-273.0
13510.287664801053,-293.0
13510.287727298266,-261.0
13510.287789795479,-240.0
13510.287852292691,-241.0
13510.287914789904,-239.0
13510.287977287117,-259.0
13510.28803978433,-245.0
13510.288102281542,-247.0
13510.288164778754,-250.0
13510.288227275967,-217.0
13510.288289773178,-231.0
13510.28835227039,-240.0
13510.288414767603,-247.0
13510.288477264816,-254.0
13510.288539762028,-222.0
13510.288602259241,-220.0
13510.288664756454,-265.0
13510.288727253666,-220.0
13510.288789750879,-220.0
13510.288852248092,-260.0
13510.288914745304,-239.0
13510.288977242515,-248.0
13510.289039739728,-223.0
13510.28910223694,-214.0
13510.289164734153,-201.0
13510.289227231366,-223.0
13510.289289728578,-233.0
13510.289352225791,-228.0
13510.289414723004,-255.0
13510.289477220216,-240.0
13510.289539717429,-235.0
13510.289602214641,-252.0
13510.289664711852,-253.0
13510.289727209065,-214.0
13510.289789706278,-219.0
13510.28985220349,-227.0
13510.289914700703,-229.0
13510.289977197916,-246.0
13510.290039695128,-253.0
13510.29010219234,-228.0
13510.290164689553,-213.0
13510.290227186766,-237.0
13510.290289683977,-231.0
13510.29035218119,-219.0
13510.290414678402,-226.0
13510.290477175615,-219.0
13510.290539672827,-207.0
13510.29060217004,-231.0
13510.290664667253,-254.0
13510.290727164465,-181.0
13510.290789661678,-174.0
13510.29085215889,-222.0
13510.290914656103,-223.0
13510.290977153314,-210.0
13510.291039650527,-212.0
13510.29110214774,-217.0
13510.291164644952,-209.0
13510.291227142165,-208.0
13510.291289639377,-220.0
13510.29135213659,-229.0
13510.291414633803,-236.0
13510.291477131015,-233.0
13510.291539628228,-204.0
13510.29160212544,-214.0
13510.291664622651,-228.0
13510.291727119864,-203.0
13510.291789617077,-199.0
13510.29185211429,-194.0
13510.291914611502,-181.0
13510.291977108714,-187.0
13510.292039605927,-188.0
13510.29210210314,-174.0
13510.292164600352,-178.0
13510.292227097565,-193.0
13510.292289594778,-175.0
13510.292352091989,-135.0
13510.292414589201,-151.0
13510.292477086414,-191.0
13510.292539583626,-168.0
13510.292602080839,-155.0
13510.292664578052,-200.0
13510.292727075264,-179.0
13510.292789572477,-183.0
13510.29285206969,-192.0
13510.292914566902,-188.0
13510.292977064115,-216.0
13510.293039561326,-194.0
13510.293102058538,-208.0
13510.293164555751,-199.0
13510.293227052964,-172.0
13510.293289550176,-215.0
13510.293352047389,-214.0
13510.293414544602,-187.0
13510.293477041814,-208.0
13510.293539539027,-218.0
13510.29360203624,-218.0
13510.293664533452,-226.0
13510.293727030663,-186.0
13510.293789527876,-181.0
13510.293852025088,-228.0
13510.2939145223,-202.0
13510.293977019513,-166.0
13510.294039516726,-182.0
13510.294102013939,-177.0
13510.294164511151,-182.0
13510.294227008364,-180.0
13510.294289505577,-200.0
13510.29435200279,-202.0
13510.2944145,-181.0
13510.294476997213,-188.0
13510.294539494425,-174.0
13510.294601991638,-192.0
13510.29466448885,-212.0
13510.294726986063,-162.0
13510.294789483276,-138.0
13510.294851980489,-139.0
13510.294914477701,-145.0
13510.294976974914,-135.0
13510.295039472127,-131.0
13510.295101969337,-167.0
13510.29516446655,-157.0
13510.295226963763,-134.0
13510.295289460975,-117.0
13510.295351958188,-110.0
13510.2954144554,-110.0
13510.295476952613,-124.0
13510.295539449826,-136.0
13510.295601947038,-101.0
13510.295664444251,-120.0
13510.295726941464,-124.0
13510.295789438675,-141.0
13510.295851935887,-158.0
13510.2959144331,-146.0
13510.295976930312,-158.0
13510.296039427525,-143.0
13510.296101924738,-130.0
13510.29616442195,-119.0
13510.296226919163,-118.0
13510.296289416376,-148.0
13510.296351913588,-155.0
13510.296414410801,-128.0
13510.296476908012,-118.0
13510.296539405224,-125.0
13510.296601902437,-126.0
13510.29666439965,-138.0
13510.296726896862,-101.0
13510.296789394075,-88.0
13510.296851891288,-134.0
13510.2969143885,-126.0
13510.296976885713,-115.0
13510.297039382926,-120.0
13510.297101880138,-123.0
13510.297164377349,-121.0
13510.297226874562,-114.0
13510.297289371774,-115.0
13510.297351868987,-114.0
13510.2974143662,-120.0
13510.297476863412,-128.0
13510.297539360625,-91.0
13510.297601857837,-110.0
13510.29766435505,-174.0
13510.297726852263,-135.0
13510.297789349475,-120.0
13510.297851846686,-113.0
13510.297914343899,-90.0
13510.297976841111,-118.0
13510.298039338324,-134.0
13510.298101835537,-120.0
13510.29816433275,-111.0
13510.298226829962,-111.0
13510.298289327175,-121.0
13510.298351824387,-99.0
13510.2984143216,-117.0
13510.298476818813,-122.0
13510.298539316023,-107.0
13510.298601813236,-142.0
13510.298664310449,-149.0
13510.298726807661,-114.0
13510.298789304874,-127.0
13510.298851802087,-141.0
13510.2989142993,-127.0
13510.298976796512,-129.0
13510.299039293724,-150.0
13510.299101790937,-139.0
13510.29916428815,-125.0
13510.29922678536,-113.0
13510.299289282573,-105.0
13510.299351779786,-102.0
13510.299414276999,-72.0
13510.299476774211,-59.0
13510.299539271424,-77.0
13510.299601768636,-98.0
13510.299664265849,-93.0
13510.299726763062,-69.0
13510.299789260274,-67.0
13510.299851757487,-59.0
13510.299914254698,-57.0
13510.29997675191,-77.0
13510.300039249123,-93.0
13510.300101746336,-86.0
13510.300164243548,-109.0
13510.300226740761,-95.0
13510.300289237974,-74.0
13510.300351735186,-93.0
13510.300414232399,-94.0
13510.300476729612,-100.0
13510.300539226824,-87.0
13510.300601724035,-47.0
13510.300664221248,-57.0
13510.30072671846,-69.0
13510.300789215673,-66.0
13510.300851712886,-85.0
13510.300914210098,-105.0
13510.30097670731,-98.0
13510.301039204523,-69.0
13510.301101701736,-60.0
13510.301164198949,-77.0
13510.30122669616,-94.0
13510.301289193372,-80.0
13510.301351690585,-69.0
13510.301414187797,-85.0
13510.30147668501,-80.0
13510.301539182223,-66.0
13510.301601679435,-81.0
13510.301664176648,-121.0
13510.30172667386,-89.0
13510.301789171073,-63.0
13510.301851668286,-90.0
13510.301914165499,-56.0
13510.30197666271,-56.0
13510.302039159922,-70.0
13510.302101657135,-44.0
13510.302164154347,-55.0
13510.30222665156,-39.0
13510.302289148773,-20.0
13510.302351645985,-42.0
13510.302414143198,-17.0
13510.30247664041,-13.0
13510.302539137623,-30.0
13510.302601634834,-41.0
13510.302664132047,-75.0
13510.30272662926,-70.0
13510.302789126472,-45.0
13510.302851623685,-36.0
13510.302914120897,-47.0
13510.30297661811,-54.0
13510.303039115322,-37.0
13510.303101612535,-49.0
13510.303164109748,-73.0
13510.30322660696,-42.0
13510.303289104171,-39.0
13510.303351601384,-44.0
13510.303414098596,-12.0
13510.30347659581,-18.0
13510.303539093022,-29.0
13510.303601590234,-19.0
13510.303664087447,-52.0
13510.30372658466,-33.0
13510.303789081872,-26.0
13510.303851579085,-60.0
13510.303914076298,-40.0
13510.303976573508,-33.0
13510.304039070721,-30.0
13510.304101567934,-14.0
13510.304164065146,-12.0
13510.304226562359,6.0
13510.304289059572,11.0
13510.304351556784,17.0
13510.304414053997,12.0
13510.30447655121,-8.0
13510.304539048422,17.0
13510.304601545635,13.0
13510.304664042846,-30.0
13510.304726540058,18.0
13510.30478903727,16.0
13510.304851534484,-38.0
13510.304914031696,-11.0
13510.304976528909,-7.0
13510.305039026121,-16.0
13510.305101523334,-21.0
13510.305164020547,-35.0
13510.30522651776,-8.0
13510.305289014972,-23.0
13510.305351512183,-10.0
13510.305414009395,2.0
13510.305476506608,-4.0
13510.30553900382,3.0
13510.305601501033,-30.0
13510.305663998246,-42.0
13510.305726495459,-17.0
13510.305788992671,-4.0
13510.305851489884,5.0
13510.305913987097,22.0
13510.30597648431,-4.0
13510.30603898152,-18.0
13510.306101478733,21.0
13510.306163975945,8.0
13510.306226473158,4.0
13510.30628897037,20.0
13510.306351467583,-6.0
13510.306413964796,-10.0
13510.306476462009,-10.0
13510.306538959221,-11.0
13510.306601456434,0.0
13510.306663953646,-14.0
13510.306726450857,9.0
13510.30678894807,20.0
13510.306851445283,-9.0
13510.306913942495,12.0
13510.306976439708,15.0
13510.30703893692,-4.0
13510.307101434133,-4.0
13510.307163931346,6.0
13510.307226428558,4.0
13510.307288925771,-7.0
13510.307351422984,-8.0
13510.307413920194,-5.0
13510.307476417407,0.0
13510.30753891462,-4.0
13510.307601411832,23.0
13510.307663909045,22.0
13510.307726406258,35.0
13510.30778890347,63.0
13510.307851400683,21.0
13510.307913897896,30.0
13510.307976395108,42.0
13510.30803889232,8.0
13510.308101389532,18.0
13510.308163886744,25.0
13510.308226383957,23.0
13510.30828888117,49.0
13510.308351378382,62.0
13510.308413875595,54.0
13510.308476372807,46.0
13510.30853887002,50.0
13510.308601367233,48.0
13510.308663864445,11.0
13510.308726361658,81.0
13510.308788858869,104.0
13510.308851356082,59.0
13510.308913853294,62.0
13510.308976350507,41.0
13510.30903884772,32.0
13510.309101344932,45.0
13510.309163842145,59.0
13510.309226339357,59.0
13510.30928883657,55.0
13510.309351333783,80.0
13510.309413830995,80.0
13510.309476328206,81.0
13510.309538825419,111.0
13510.309601322631,76.0
13510.309663819844,41.0
13510.309726317057,103.0
13510.30978881427,102.0
13510.309851311482,75.0
13510.309913808695,80.0
13510.309976305907,56.0
13510.31003880312,27.0
13510.310101300332,52.0
13510.310163797543,74.0
13510.310226294756,62.0
13510.310288791969,63.0
13510.310351289181,73.0
13510.310413786394,81.0
13510.310476283606,73.0
13510.31053878082,89.0
13510.310601278032,80.0
13510.310663775244,53.0
13510.310726272457,104.0
13510.31078876967,84.0
13510.31085126688,59.0
13510.310913764093,65.0
13510.310976261306,44.0
13510.311038758518,59.0
13510.311101255731,62.0
13510.311163752944,43.0
13510.311226250156,18.0
13510.311288747369,32.0
13510.311351244582,52.0
13510.311413741794,60.0
13510.311476239007,47.0
13510.311538736218,60.0
13510.31160123343,74.0
13510.311663730643,41.0
13510.311726227856,75.0
13510.311788725068,67.0
13510.31185122228,27.0
13510.311913719494,32.0
13510.311976216706,42.0
13510.312038713919,36.0
13510.312101211131,42.0
13510.312163708342,66.0
13510.312226205555,41.0
13510.312288702768,54.0
13510.31235119998,78.0
13510.312413697193,58.0
13510.312476194405,62.0
13510.312538691618,71.0
13510.31260118883,69.0
13510.312663686043,54.0
13510.312726183256,84.0
13510.312788680469,71.0
13510.312851177681,68.0
13510.312913674892,83.0
13510.312976172105,59.0
13510.313038669317,64.0
13510.31310116653,73.0
13510.313163663743,74.0
13510.313226160955,85.0
13510.313288658168,80.0
13510.31335115538,68.0
13510.313413652593,87.0
13510.313476149806,84.0
13510.313538647017,110.0
13510.31360114423,95.0
13510.313663641442,39.0
13510.313726138655,104.0
13510.313788635867,115.0
13510.31385113308,107.0
13510.313913630293,126.0
13510.313976127505,89.0
13510.314038624718,82.0
13510.31410112193,88.0
13510.314163619143,78.0
13510.314226116354,82.0
13510.314288613567,103.0
13510.31435111078,98.0
13510.314413607992,91.0
13510.314476105204,96.0
13510.314538602417,81.0
13510.31460109963,73.0
13510.314663596842,62.0
13510.314726094055,106.0
13510.314788591268,109.0
13510.31485108848,65.0
13510.314913585691,60.0
13510.314976082904,59.0
13510.315038580116,54.0
13510.315101077329,46.0
13510.315163574542,44.0
13510.315226071754,76.0
13510.315288568967,71.0
13510.31535106618,61.0
13510.315413563392,84.0
13510.315476060605,73.0
13510.315538557817,75.0
13510.315601055028,80.0
13510.315663552241,35.0
13510.315726049454,67.0
13510.315788546666,110.0
13510.315851043879,79.0
13510.315913541092,40.0
13510.315976038304,42.0
13510.316038535517,75.0
13510.31610103273,47.0
13510.316163529942,73.0
13510.316226027155,105.0
13510.316288524366,52.0
13510.316351021578,60.0
13510.31641351879,105.0
13510.316476016003,114.0
13510.316538513216,104.0
13510.316601010429,89.0
13510.316663507641,65.0
13510.316726004854,107.0
13510.316788502067,105.0
13510.31685099928,82.0
13510.316913496492,119.0
13510.316975993703,120.0
13510.317038490915,108.0
13510.317100988128,98.0
13510.31716348534,85.0
13510.317225982553,90.0
13510.317288479766,102.0
13510.317350976979,79.0
13510.317413474191,79.0
13510.317475971404,91.0
13510.317538468616,100.0
13510.31760096583,103.0
13510.31766346304,93.0
13510.317725960253,142.0
13510.317788457465,120.0
13510.317850954678,112.0
13510.31791345189,132.0
13510.317975949103,100.0
13510.318038446316,117.0
13510.318100943528,122.0
13510.318163440741,99.0
13510.318225937954,125.0
13510.318288435166,119.0
13510.318350932377,100.0
13510.31841342959,125.0
13510.318475926802,135.0
13510.318538424015,126.0
13510.318600921228,111.0
13510.31866341844,96.0
13510.318725915653,129.0
13510.318788412866,133.0
13510.318850910078,128.0
13510.31891340729,137.0
13510.318975904504,128.0
13510.319038401714,132.0
13510.319100898927,126.0
13510.31916339614,87.0
13510.319225893352,103.0
13510.319288390565,135.0
13510.319350887778,108.0
13510.31941338499,126.0
13510.319475882203,148.0
13510.319538379415,147.0
13510.319600876628,142.0
13510.31966337384,112.0
13510.319725871052,161.0
13510.319788368264,144.0
13510.319850865477,96.0
13510.31991336269,111.0
13510.319975859902,122.0
13510.320038357115,124.0
13510.320100854327,101.0
13510.32016335154,123.0
13510.320225848753,142.0
13510.320288345965,135.0
13510.320350843178,135.0
13510.320413340389,148.0
13510.320475837601,151.0
13510.320538334814,175.0
13510.320600832027,163.0
13510.32066332924,114.0
13510.320725826452,157.0
13510.320788323665,167.0
13510.320850820877,141.0
13510.32091331809,151.0
13510.320975815303,147.0
13510.321038312515,138.0
13510.321100809726,149.0
13510.321163306939,144.0
13510.321225804151,148.0
13510.321288301364,164.0
13510.321350798577,152.0
13510.32141329579,144.0
13510.321475793002,140.0
13510.321538290214,148.0
13510.321600787427,144.0
13510.32166328464,105.0
13510.321725781852,156.0
13510.321788279063,170.0
13510.321850776276,134.0
13510.321913273488,148.0
13510.321975770701,137.0
13510.322038267914,132.0
13510.322100765126,158.0
13510.322163262339,126.0
13510.322225759552,98.0
13510.322288256764,128.0
13510.322350753977,142.0
13510.32241325119,160.0
13510.3224757484,148.0
13510.322538245613,148.0
13510.322600742826,149.0
13510.322663240038,115.0
13510.322725737251,154.0
13510.322788234464,160.0
13510.322850731676,140.0
13510.322913228889,139.0
13510.322975726102,154.0
13510.323038223314,146.0
13510.323100720525,93.0
13510.323163217738,102.0
13510.32322571495,109.0
13510.323288212163,89.0
13510.323350709376,88.0
13510.323413206588,86.0
13510.3234757038,85.0
13510.323538201013,107.0
13510.323600698226,94.0
13510.323663195439,44.0
13510.323725692651,102.0
13510.323788189864,109.0
13510.323850687075,314.0
13510.323913184287,210.0
13510.3239756815,-291.0
13510.324038178713,-76.0
13510.324100675925,256.0
13510.324163173138,150.0
13510.32422567035,186.0
13510.324288167563,107.0
13510.324350664776,130.0
13510.324413161989,236.0
13510.3244756592,-115.0
13510.324538156412,-125.0
13510.324600653625,215.0
13510.324663150837,365.0
13510.32472564805,164.0
13510.324788145263,-99.0
13510.324850642475,104.0
13510.324913139688,273.0
13510.3249756369,75.0
13510.325038134113,-68.0
13510.325100631326,42.0
13510.325163128537,255.0
13510.32522562575,131.0
13510.325288122962,-56.0
13510.325350620175,66.0
13510.325413117387,153.0
13510.3254756146,105.0
13510.325538111812,88.0
13510.325600609025,168.0
13510.325663106238,157.0
13510.32572560345,56.0
13510.325788100663,4.0
13510.325850597874,114.0
13510.325913095086,229.0
13510.325975592299,142.0
13510.326038089512,63.0
13510.326100586724,90.0
13510.326163083937,95.0
13510.32622558115,87.0
13510.326288078362,150.0
13510.326350575575,164.0
13510.326413072788,105.0
13510.32647557,48.0
13510.326538067211,96.0
13510.326600564424,161.0
13510.326663061636,129.0
13510.326725558849,161.0
13510.326788056062,143.0
13510.326850553274,95.0
13510.326913050487,102.0
13510.3269755477,98.0
13510.327038044912,129.0
13510.327100542125,124.0
13510.327163039337,75.0
13510.327225536548,62.0
13510.32728803376,97.0
13510.327350530973,124.0
13510.327413028186,110.0
13510.327475525399,81.0
13510.327538022611,91.0
13510.327600519824,99.0
13510.327663017037,54.0
13510.32772551425,94.0
13510.327788011462,124.0
13510.327850508675,91.0
13510.327913005885,95.0
13510.327975503098,75.0
13510.32803800031,101.0
13510.328100497523,124.0
13510.328162994736,105.0
13510.328225491949,106.0
13510.328287989161,114.0
13510.328350486374,140.0
13510.328412983587,139.0
13510.3284754808,137.0
13510.328537978012,155.0
13510.328600475223,114.0
13510.328662972435,82.0
13510.328725469648,152.0
13510.32878796686,177.0
13510.328850464073,153.0
13510.328912961286,135.0
13510.328975458498,124.0
13510.329037955711,143.0
13510.329100452924,151.0
13510.329162950136,128.0
13510.329225447349,128.0
13510.32928794456,143.0
13510.329350441772,130.0
13510.329412938985,140.0
13510.329475436198,137.0
13510.32953793341,114.0
13510.329600430623,104.0
13510.329662927836,102.0
13510.329725425048,137.0
13510.329787922261,129.0
13510.329850419474,90.0
13510.329912916686,98.0
13510.329975413897,97.0
13510.33003791111,78.0
13510.330100408322,96.0
13510.330162905535,94.0
13510.330225402748,81.0
13510.33028789996,71.0
13510.330350397173,63.0
13510.330412894386,106.0
13510.330475391598,125.0
13510.33053788881,100.0
13510.330600386023,81.0
13510.330662883234,71.0
13510.330725380447,111.0
13510.33078787766,124.0
13510.330850374872,90.0
13510.330912872085,91.0
13510.330975369297,115.0
13510.33103786651,117.0
13510.331100363723,106.0
13510.331162860935,97.0
13510.331225358148,128.0
13510.33128785536,152.0
13510.331350352571,131.0
13510.331412849784,127.0
13510.331475346997,136.0
13510.33153784421,124.0
13510.331600341422,116.0
13510.331662838635,102.0
13510.331725335847,153.0
13510.33178783306,150.0
13510.331850330273,122.0
13510.331912827485,160.0
13510.331975324698,166.0
13510.332037821909,166.0
13510.332100319121,168.0
13510.332162816334,177.0
13510.332225313547,191.0
13510.33228781076,177.0
13510.332350307972,189.0
13510.332412805185,211.0
13510.332475302397,172.0
13510.33253779961,156.0
13510.332600296822,170.0
13510.332662794035,155.0
13510.332725291246,180.0
13510.332787788459,191.0
13510.332850285671,172.0
13510.332912782884,183.0
13510.332975280096,156.0
13510.333037777309,143.0
13510.333100274522,160.0
13510.333162771734,161.0
13510.333225268947,149.0
13510.33328776616,150.0
13510.333350263372,152.0
13510.333412760583,139.0
13510.333475257796,130.0
13510.333537755008,161.0
13510.333600252221,176.0
13510.333662749434,134.0
13510.333725246646,151.0
13510.333787743859,178.0
13510.333850241072,149.0
13510.333912738284,134.0
13510.333975235497,154.0
13510.33403773271,156.0
13510.33410022992,127.0
13510.334162727133,156.0
13510.334225224346,163.0
13510.334287721558,137.0
13510.33435021877,166.0
13510.334412715983,175.0
13510.334475213196,155.0
13510.334537710409,182.0
13510.334600207621,192.0
13510.334662704834,153.0
13510.334725202047,200.0
13510.334787699258,213.0
13510.33485019647,180.0
13510.334912693683,210.0
13510.334975190895,221.0
13510.335037688108,197.0
13510.33510018532,167.0
13510.335162682533,183.0
13510.335225179746,204.0
13510.335287676959,193.0
13510.335350174171,197.0
13510.335412671382,185.0
13510.335475168595,182.0
13510.335537665807,200.0
13510.33560016302,195.0
13510.335662660233,161.0
13510.335725157445,207.0
13510.335787654658,210.0
13510.33585015187,172.0
13510.335912649083,163.0
13510.335975146296,157.0
13510.336037643508,154.0
13510.33610014072,150.0
13510.336162637932,164.0
13510.336225135145,170.0
13510.336287632357,181.0
13510.33635012957,166.0
13510.336412626782,157.0
13510.336475123995,188.0
13510.336537621208,203.0
13510.33660011842,187.0
13510.336662615633,141.0
13510.336725112846,189.0
13510.336787610056,220.0
13510.33685010727,168.0
13510.336912604482,179.0
13510.336975101694,208.0
13510.337037598907,216.0
13510.33710009612,194.0
13510.337162593332,202.0
13510.337225090545,223.0
13510.337287587758,193.0
13510.33735008497,183.0
13510.337412582183,201.0
13510.337475079394,191.0
13510.337537576606,198.0
13510.337600073819,178.0
13510.337662571032,142.0
13510.337725068244,198.0
13510.337787565457,192.0
13510.33785006267,149.0
13510.337912559882,166.0
13510.337975057095,176.0
13510.338037554307,171.0
13510.33810005152,163.0
13510.33816254873,163.0
13510.338225045944,150.0
13510.338287543156,168.0
13510.338350040369,183.0
13510.338412537581,147.0
13510.338475034794,155.0
13510.338537532007,182.0
13510.33860002922,165.0
13510.338662526432,148.0
13510.338725023645,173.0
13510.338787520857,162.0
13510.338850018068,138.0
13510.33891251528,137.0
13510.338975012493,133.0
13510.339037509706,159.0
13510.339100006919,163.0
13510.339162504131,134.0
13510.339225001344,140.0
13510.339287498557,141.0
13510.33934999577,132.0
13510.339412492982,159.0
13510.339474990195,154.0
13510.339537487405,162.0
13510.339599984618,159.0
13510.33966248183,113.0
13510.339724979043,176.0
13510.339787476256,198.0
13510.339849973469,144.0
13510.339912470681,151.0
13510.339974967894,160.0
13510.340037465106,156.0
13510.340099962319,176.0
13510.340162459532,149.0
13510.340224956743,154.0
13510.340287453955,195.0
13510.340349951168,176.0
13510.34041244838,173.0
13510.340474945593,208.0
13510.340537442806,220.0
13510.340599940018,198.0
13510.340662437231,172.0
13510.340724934444,214.0
13510.340787431656,241.0
13510.340849928869,241.0
13510.34091242608,240.0
13510.340974923292,221.0
13510.341037420505,226.0
13510.341099917718,208.0
13510.34116241493,191.0
13510.341224912143,210.0
13510.341287409356,197.0
13510.341349906568,180.0
13510.34141240378,185.0
13510.341474900993,180.0
13510.341537398206,169.0
13510.341599895417,182.0
13510.34166239263,164.0
13510.341724889842,175.0
13510.341787387055,175.0
13510.341849884268,157.0
13510.34191238148,186.0
13510.341974878693,201.0
13510.342037375905,195.0
13510.342099873118,182.0
13510.34216237033,174.0
13510.342224867543,150.0
13510.342287364754,140.0
13510.342349861967,139.0
13510.34241235918,149.0
13510.342474856392,155.0
13510.342537353605,154.0
13510.342599850817,172.0
13510.34266234803,156.0
13510.342724845243,205.0
13510.342787342455,220.0
13510.342849839668,184.0
13510.34291233688,157.0
13510.342974834091,150.0
13510.343037331304,174.0
13510.343099828517,145.0
13510.34316232573,150.0
13510.343224822942,186.0
13510.343287320155,212.0
13510.343349817367,197.0
13510.34341231458,197.0
13510.343474811792,207.0
13510.343537309005,200.0
13510.343599806218,213.0
13510.343662303429,178.0
13510.343724800641,221.0
13510.343787297854,238.0
13510.343849795066,185.0
13510.34391229228,184.0
13510.343974789492,173.0
13510.344037286704,183.0
13510.344099783917,199.0
13510.34416228113,188.0
13510.344224778342,180.0
13510.344287275555,187.0
13510.344349772766,206.0
13510.344412269978,203.0
13510.344474767191,178.0
13510.344537264404,186.0
13510.344599761616,204.0
13510.344662258829,177.0
13510.344724756042,228.0
13510.344787253254,249.0
13510.344849750467,215.0
13510.34491224768,224.0
13510.344974744892,209.0
13510.345037242103,177.0
13510.345099739316,190.0
13510.345162236528,209.0
13510.34522473374,221.0
13510.345287230954,205.0
13510.345349728166,184.0
13510.345412225379,214.0
13510.345474722591,203.0
13510.345537219804,183.0
13510.345599717017,200.0
13510.34566221423,162.0
13510.34572471144,205.0
13510.345787208653,228.0
13510.345849705865,214.0
13510.345912203078,228.0
13510.34597470029,217.0
13510.346037197503,224.0
13510.346099694716,200.0
13510.346162191929,206.0
13510.346224689141,224.0
13510.346287186354,205.0
13510.346349683565,192.0
13510.346412180777,205.0
13510.34647467799,210.0
13510.346537175203,200.0
13510.346599672415,189.0
13510.346662169628,167.0
13510.34672466684,226.0
13510.346787164053,246.0
13510.346849661266,227.0
13510.346912158479,240.0
13510.346974655691,198.0
13510.347037152904,189.0
13510.347099650115,201.0
13510.347162147327,195.0
13510.34722464454,223.0
13510.347287141753,245.0
13510.347349638965,224.0
13510.347412136178,222.0
13510.34747463339,233.0
13510.347537130603,211.0
13510.347599627816,184.0
13510.347662125028,158.0
13510.34772462224,216.0
13510.347787119452,222.0
13510.347849616664,188.0
13510.347912113877,175.0
13510.34797461109,177.0
13510.348037108302,204.0
13510.348099605515,193.0
13510.348162102728,222.0
13510.34822459994,240.0
13510.348287097153,199.0
13510.348349594366,216.0
13510.348412091576,237.0
13510.348474588789,207.0
13510.348537086002,209.0
13510.348599583214,204.0
13510.348662080427,191.0
13510.34872457764,229.0
13510.348787074852,200.0
13510.348849572065,170.0
13510.348912069278,187.0
13510.34897456649,193.0
13510.349037063703,217.0
13510.349099560914,223.0
13510.349162058126,190.0
13510.349224555339,209.0
13510.349287052552,232.0
13510.349349549764,208.0
13510.349412046977,226.0
13510.34947454419,211.0
13510.349537041402,199.0
13510.349599538615,199.0
13510.349662035827,166.0
13510.34972453304,214.0
13510.34978703025,213.0
13510.349849527463,191.0
13510.349912024676,190.0
13510.349974521889,204.0
13510.350037019101,221.0
13510.350099516314,211.0
13510.350162013527,208.0
13510.35022451074,218.0
13510.350287007952,213.0
13510.350349505165,228.0
13510.350412002377,250.0
13510.350474499588,238.0
13510.3505369968,235.0
13510.350599494013,226.0
13510.350661991226,193.0
13510.350724488439,220.0
13510.350786985651,235.0
13510.350849482864,215.0
13510.350911980076,244.0
13510.35097447729,272.0
13510.351036974502,255.0
13510.351099471714,245.0
13510.351161968925,262.0
13510.351224466138,238.0
13510.35128696335,229.0
13510.351349460563,249.0
13510.351411957776,245.0
13510.351474454988,224.0
13510.351536952201,229.0
13510.351599449414,239.0
13510.351661946626,206.0
13510.351724443839,247.0
13510.351786941052,265.0
13510.351849438262,244.0
13510.351911935475,234.0
13510.351974432688,216.0
13510.3520369299,237.0
13510.352099427113,267.0
13510.352161924326,269.0
13510.352224421538,245.0
13510.35228691875,227.0
13510.352349415964,222.0
13510.352411913176,233.0
13510.352474410389,235.0
13510.3525369076,247.0
13510.352599404812,261.0
13510.352661902025,216.0
13510.352724399238,239.0
13510.35278689645,279.0
13510.352849393663,251.0
13510.352911890875,259.0
13510.352974388088,304.0
13510.3530368853,278.0
13510.353099382513,256.0
13510.353161879726,282.0
13510.353224376937,276.0
13510.35328687415,279.0
13510.353349371362,287.0
13510.353411868575,284.0
13510.353474365787,324.0
13510.353536863,345.0
13510.353599360213,344.0
13510.353661857425,367.0
13510.353724354638,431.0
13510.35378685185,530.0
13510.353849349063,619.0
13510.353911846274,770.0
13510.353974343487,1065.0
13510.3540368407,1518.0
13510.354099337912,2313.0
13510.354161835125,3312.0
13510.354224332337,4992.0
13510.35428682955,7807.0
13510.354349326763,9433.0
13510.354411823975,8226.0
13510.354474321188,4745.0
13510.3545368184,201.0
13510.354599315611,-3916.0
13510.354661812824,-6452.0
13510.354724310037,-7104.0
13510.35478680725,-5639.0
13510.354849304462,-3488.0
13510.354911801674,-2002.0
13510.354974298887,-907.0
13510.3550367961,-229.0
13510.355099293312,-419.0
13510.355161790525,-1228.0
13510.355224287738,-1671.0
13510.355286784948,-1702.0
13510.355349282161,-1594.0
13510.355411779374,-1258.0
13510.355474276586,-562.0
13510.355536773799,553.0
13510.355599271012,1598.0
13510.355661768224,1579.0
13510.355724265437,789.0
13510.35578676265,-537.0
13510.355849259862,-2275.0
13510.355911757075,-3505.0
13510.355974254286,-3589.0
13510.356036751498,-2763.0
13510.356099248711,-1575.0
13510.356161745924,-498.0
13510.356224243136,332.0
13510.356286740349,1008.0
13510.356349237562,1414.0
13510.356411734774,1407.0
13510.356474231987,1092.0
13510.3565367292,729.0
13510.356599226412,337.0
13510.356661723623,126.0
13510.356724220836,432.0
13510.356786718048,982.0
13510.35684921526,1389.0
13510.356911712473,1412.0
13510.356974209686,960.0
13510.357036706899,275.0
13510.357099204111,-361.0
13510.357161701324,-803.0
13510.357224198537,-846.0
13510.357286695747,-433.0
13510.35734919296,326.0
13510.357411690173,1256.0
13510.357474187385,2116.0
