0,1
19283.911850708086,484.0
19283.911913205324,-1336.0
19283.911975702562,-3183.0
19283.9120381998,-5598.0
19283.912100697038,-8293.0
19283.912163194273,-10489.0
19283.91222569151,-12572.0
19283.91228818875,-14460.0
19283.912350685983,-15754.0
19283.91241318322,-17116.0
19283.91247568046,-18506.0
19283.912538177698,-19456.0
19283.912600674932,-20718.0
19283.91266317217,-22138.0
19283.91272566941,-23060.0
19283.912788166646,-24568.0
19283.91285066388,-26416.0
19283.91291316112,-27603.0
19283.912975658357,-29039.0
19283.913038155595,-30392.0
19283.91310065283,-30996.0
19283.913163150068,-31687.0
19283.913225647306,-31745.0
19283.913288144544,-28348.0
19283.91335064178,-20503.0
19283.913413139016,-13130.0
19283.913475636255,-6046.0
19283.913538133493,4261.0
19283.913600630727,11306.0
19283.913663127965,13531.0
19283.913725625203,16668.0
19283.913788122438,19734.0
19283.913850619676,19129.0
19283.913913116914,16200.0
19283.913975614152,14090.0
19283.914038111387,11743.0
19283.914100608625,7595.0
19283.914163105863,5146.0
19283.9142256031,4493.0
19283.914288100335,3180.0
19283.914350597574,1317.0
19283.91441309481,-613.0
19283.91447559205,-2285.0
19283.914538089284,-4161.0
19283.914600586522,-5032.0
19283.91466308376,-4564.0
19283.914725581,-4157.0
19283.914788078233,-3344.0
19283.91485057547,-1836.0
19283.91491307271,-572.0
19283.914975569947,1887.0
19283.91503806718,5461.0
19283.91510056442,8489.0
19283.915163061658,10905.0
19283.915225558896,12932.0
19283.91528805613,13846.0
19283.91535055337,13168.0
19283.915413050607,12345.0
19283.915475547845,11695.0
19283.91553804508,10521.0
19283.915600542317,8981.0
19283.915663039556,7265.0
19283.91572553679,6113.0
19283.915788034028,5358.0
19283.915850531266,4251.0
19283.915913028504,4603.0
19283.91597552574,5644.0
19283.916038022977,5021.0
19283.916100520215,4663.0
19283.916163017453,5471.0
19283.916225514688,5692.0
19283.916288011926,5703.0
19283.916350509164,6529.0
19283.916413006402,7381.0
19283.916475503636,7475.0
19283.916538000874,7417.0
19283.916600498113,8436.0
19283.91666299535,9481.0
19283.916725492585,9982.0
19283.916787989823,10766.0
19283.91685048706,11226.0
19283.9169129843,10562.0
19283.916975481534,9772.0
19283.917037978772,9490.0
19283.91710047601,8774.0
19283.917162973245,7808.0
19283.917225470483,7459.0
19283.91728796772,6609.0
19283.91735046496,5191.0
19283.917412962197,4681.0
19283.91747545943,4317.0
19283.91753795667,3252.0
19283.917600453908,2220.0
19283.917662951142,1061.0
19283.91772544838,-1116.0
19283.91778794562,-3854.0
19283.917850442856,-6135.0
19283.91791294009,-8333.0
19283.91797543733,-10721.0
19283.918037934567,-12460.0
19283.918100431805,-13647.0
19283.91816292904,-15293.0
19283.918225426278,-16744.0
19283.918287923516,-17130.0
19283.918350420754,-18238.0
19283.91841291799,-19604.0
19283.918475415227,-20132.0
19283.918537912465,-21761.0
19283.918600409703,-23857.0
19283.918662906937,-25246.0
19283.918725404175,-26961.0
19283.918787901413,-28572.0
19283.91885039865,-29401.0
19283.918912895886,-30042.0
19283.918975393124,-30940.0
19283.919037890362,-31000.0
19283.919100387597,-28762.0
19283.919162884835,-23049.0
19283.919225382073,-14758.0
19283.91928787931,-7740.0
19283.919350376545,411.0
19283.919412873784,8796.0
19283.91947537102,11579.0
19283.91953786826,13460.0
19283.919600365494,16906.0
19283.919662862732,17530.0
19283.91972535997,16308.0
19283.91978785721,14795.0
19283.919850354443,12500.0
19283.91991285168,9734.0
19283.91997534892,6898.0
19283.920037846157,5409.0
19283.920100343392,4444.0
19283.92016284063,3105.0
19283.920225337868,949.0
19283.920287835106,-1856.0
19283.92035033234,-3974.0
19283.92041282958,-5344.0
19283.920475326817,-5280.0
19283.920537824055,-4322.0
19283.92060032129,-3263.0
19283.920662818527,-1288.0
19283.920725315766,530.0
19283.920787813004,1832.0
19283.920850310238,4662.0
19283.920912807476,7719.0
19283.920975304714,10102.0
19283.92103780195,12078.0
19283.921100299187,12858.0
19283.921162796425,12578.0
19283.921225293663,11715.0
19283.921287790898,10951.0
19283.921350288136,10386.0
19283.921412785374,9598.0
19283.921475282612,8446.0
19283.921537779846,7474.0
19283.921600277085,6754.0
19283.921662774323,5499.0
19283.92172527156,4624.0
19283.921787768795,4928.0
19283.921850266033,4645.0
19283.92191276327,4117.0
19283.92197526051,4131.0
19283.922037757744,4226.0
19283.922100254982,4914.0
19283.92216275222,6037.0
19283.92222524946,7575.0
19283.922287746693,9256.0
19283.92235024393,10689.0
19283.92241274117,11739.0
19283.922475238403,12245.0
19283.92253773564,12440.0
19283.92260023288,12420.0
19283.922662730118,11943.0
19283.922725227356,11068.0
19283.92278772459,9933.0
19283.92285022183,8762.0
19283.922912719067,7552.0
19283.9229752163,6675.0
19283.92303771354,6304.0
19283.923100210777,5781.0
19283.923162708015,5442.0
19283.92322520525,5341.0
19283.923287702488,4605.0
19283.923350199726,3458.0
19283.923412696964,2429.0
19283.9234751942,1056.0
19283.923537691437,-817.0
19283.923600188675,-2945.0
19283.923662685913,-5295.0
19283.923725183147,-7741.0
19283.923787680385,-10031.0
19283.923850177624,-12097.0
19283.92391267486,-13769.0
19283.923975172096,-14770.0
19283.924037669334,-15961.0
19283.924100166572,-17674.0
19283.92416266381,-18891.0
19283.924225161045,-20206.0
19283.924287658283,-22384.0
19283.92435015552,-23742.0
19283.924412652756,-24442.0
19283.924475149994,-26583.0
19283.92453764723,-28529.0
19283.92460014447,-28904.0
19283.924662641708,-29677.0
19283.924725138942,-31298.0
19283.92478763618,-32106.0
19283.92485013342,-31706.0
19283.924912630653,-28802.0
19283.92497512789,-21492.0
19283.92503762513,-13537.0
19283.925100122367,-5694.0
19283.925162619602,4544.0
19283.92522511684,11293.0
19283.925287614078,13736.0
19283.925350111316,17226.0
19283.92541260855,19447.0
19283.92547510579,18860.0
19283.925537603027,17081.0
19283.925600100265,14617.0
19283.9256625975,11963.0
19283.925725094738,8978.0
19283.925787591976,6401.0
19283.925850089214,4973.0
19283.92591258645,4564.0
19283.925975083686,3172.0
19283.926037580924,313.0
19283.926100078163,-1820.0
19283.926162575397,-3641.0
19283.926225072635,-5298.0
19283.926287569873,-5365.0
19283.926350067108,-4653.0
19283.926412564346,-3625.0
19283.926475061584,-2240.0
19283.926537558822,-592.0
19283.926600056056,2153.0
19283.926662553295,5473.0
19283.926725050533,8594.0
19283.92678754777,11250.0
19283.926850045005,13199.0
19283.926912542243,13812.0
19283.92697503948,13013.0
19283.92703753672,12256.0
19283.927100033954,11617.0
19283.927162531192,10359.0
19283.92722502843,8902.0
19283.92728752567,7592.0
19283.927350022903,6714.0
19283.92741252014,6042.0
19283.92747501738,5374.0
19283.927537514617,5657.0
19283.92760001185,6178.0
19283.92766250909,6020.0
19283.927725006328,5827.0
19283.927787503566,5651.0
19283.9278500008,5656.0
19283.92791249804,5813.0
19283.927974995277,6358.0
19283.928037492515,7780.0
19283.92809998975,8647.0
19283.928162486987,9165.0
19283.928224984225,10589.0
19283.92828748146,11249.0
19283.928349978698,11070.0
19283.928412475936,11651.0
19283.928474973174,11950.0
19283.92853747041,11018.0
19283.928599967647,10228.0
19283.928662464885,9809.0
19283.928724962123,8925.0
19283.928787459357,8102.0
19283.928849956596,7731.0
19283.928912453834,7133.0
19283.92897495107,6408.0
19283.929037448306,5891.0
19283.929099945544,5050.0
19283.929162442782,3854.0
19283.92922494002,2691.0
19283.929287437255,1136.0
19283.929349934493,-946.0
19283.92941243173,-3426.0
19283.92947492897,-6286.0
19283.929537426204,-8956.0
19283.929599923442,-11325.0
19283.92966242068,-13356.0
19283.929724917914,-14625.0
19283.929787415153,-15832.0
19283.92984991239,-17248.0
19283.92991240963,-17952.0
19283.929974906867,-18797.0
19283.9300374041,-20289.0
19283.93009990134,-21277.0
19283.930162398578,-22256.0
19283.930224895812,-24406.0
19283.93028739305,-26712.0
19283.93034989029,-28435.0
19283.930412387526,-29992.0
19283.93047488476,-31130.0
19283.930537382,-31723.0
19283.930599879237,-31782.0
19283.930662376475,-30926.0
19283.93072487371,-26806.0
19283.930787370948,-18478.0
19283.930849868186,-11159.0
19283.930912365424,-4136.0
19283.93097486266,6452.0
19283.931037359896,12754.0
19283.931099857135,13876.0
19283.931162354373,17334.0
19283.931224851607,20600.0
19283.931287348845,19121.0
19283.931349846083,16407.0
19283.93141234332,15238.0
19283.931474840556,12719.0
19283.931537337794,8636.0
19283.931599835032,6537.0
19283.931662332267,5600.0
19283.931724829505,4321.0
19283.931787326743,2749.0
19283.93184982398,701.0
19283.931912321215,-762.0
19283.931974818453,-2900.0
19283.93203731569,-4647.0
19283.93209981293,-4309.0
19283.932162310164,-3882.0
19283.932224807402,-3443.0
19283.93228730464,-1825.0
19283.93234980188,77.0
19283.932412299113,2417.0
19283.93247479635,5415.0
19283.93253729359,8567.0
19283.932599790827,11120.0
19283.93266228806,12798.0
19283.9327247853,13864.0
19283.932787282538,13450.0
19283.932849779776,12526.0
19283.93291227701,12173.0
19283.93297477425,11737.0
19283.933037271487,10182.0
19283.933099768725,8491.0
19283.93316226596,7882.0
19283.933224763197,6934.0
19283.933287260435,5657.0
19283.933349757674,5987.0
19283.933412254908,6433.0
19283.933474752146,6040.0
19283.933537249384,6027.0
19283.93359974662,6112.0
19283.933662243857,5911.0
19283.933724741095,6009.0
19283.933787238333,6835.0
19283.933849735567,7393.0
19283.933912232806,7796.0
19283.933974730044,8584.0
19283.93403722728,9226.0
19283.934099724516,9794.0
19283.934162221754,10706.0
19283.934224718992,11617.0
19283.93428721623,12247.0
19283.934349713465,12275.0
19283.934412210703,11855.0
19283.93447470794,11250.0
19283.93453720518,10312.0
19283.934599702414,9540.0
19283.934662199652,9014.0
19283.93472469689,7981.0
19283.934787194128,6796.0
19283.934849691363,5957.0
19283.9349121886,4699.0
19283.93497468584,3242.0
19283.935037183073,2065.0
19283.93509968031,578.0
19283.93516217755,-1670.0
19283.935224674788,-4177.0
19283.935287172026,-6831.0
19283.93534966926,-9661.0
19283.9354121665,-11807.0
19283.935474663736,-13331.0
19283.93553716097,-14649.0
19283.93559965821,-15537.0
19283.935662155447,-16524.0
19283.935724652685,-17696.0
19283.93578714992,-18557.0
19283.935849647158,-19644.0
19283.935912144396,-21174.0
19283.935974641634,-22345.0
19283.93603713887,-23639.0
19283.936099636107,-26034.0
19283.936162133345,-27940.0
19283.936224630583,-28905.0
19283.936287127817,-30082.0
19283.936349625055,-31108.0
19283.936412122293,-31725.0
19283.93647461953,-31265.0
19283.936537116766,-27133.0
19283.936599614004,-19532.0
19283.936662111242,-12647.0
19283.93672460848,-4753.0
19283.936787105715,5773.0
19283.936849602953,11992.0
19283.93691210019,13861.0
19283.936974597425,17377.0
19283.937037094664,20771.0
19283.9370995919,19887.0
19283.93716208914,16986.0
19283.937224586374,15907.0
19283.937287083612,13900.0
19283.93734958085,9250.0
19283.93741207809,6771.0
19283.937474575323,6316.0
19283.93753707256,4790.0
19283.9375995698,2910.0
19283.937662067037,1092.0
19283.93772456427,-1220.0
19283.93778706151,-3873.0
19283.937849558748,-4969.0
19283.937912055986,-4767.0
19283.93797455322,-4551.0
19283.93803705046,-3432.0
19283.938099547697,-1752.0
19283.938162044935,26.0
19283.93822454217,2672.0
19283.938287039407,5666.0
19283.938349536646,8930.0
19283.938412033884,11831.0
19283.938474531118,13498.0
19283.938537028356,14121.0
19283.938599525594,13580.0
19283.938662022832,12648.0
19283.938724520067,11907.0
19283.938787017305,11127.0
19283.938849514543,9793.0
19283.938912011778,8397.0
19283.938974509016,7456.0
19283.939037006254,6332.0
19283.939099503492,5352.0
19283.939162000726,5149.0
19283.939224497964,5044.0
19283.939286995203,4776.0
19283.93934949244,4656.0
19283.939411989675,4448.0
19283.939474486913,4689.0
19283.93953698415,6039.0
19283.93959948139,7679.0
19283.939661978624,8721.0
19283.939724475862,9829.0
19283.9397869731,11477.0
19283.93984947034,12509.0
19283.939911967573,12675.0
19283.93997446481,13366.0
19283.94003696205,14016.0
19283.940099459287,13180.0
19283.94016195652,11954.0
19283.94022445376,11267.0
19283.940286950998,10171.0
19283.940349448232,8655.0
19283.94041194547,7910.0
19283.94047444271,7254.0
19283.940536939946,5787.0
19283.940599437185,4880.0
19283.94066193442,4316.0
19283.940724431657,3270.0
19283.940786928895,2257.0
19283.94084942613,1297.0
19283.940911923368,-281.0
19283.940974420606,-2431.0
19283.941036917844,-4764.0
19283.94109941508,-7529.0
19283.941161912317,-10031.0
19283.941224409555,-11954.0
19283.941286906793,-14037.0
19283.941349404027,-15841.0
19283.941411901265,-17111.0
19283.941474398503,-18520.0
19283.94153689574,-19788.0
19283.941599392976,-20961.0
19283.941661890214,-22326.0
19283.941724387452,-23477.0
19283.94178688469,-25016.0
19283.941849381925,-27077.0
19283.941911879163,-28671.0
19283.9419743764,-29880.0
19283.94203687364,-31017.0
19283.942099370874,-31705.0
19283.94216186811,-32225.0
19283.94222436535,-32359.0
19283.942286862584,-28782.0
19283.942349359822,-19890.0
19283.94241185706,-11657.0
19283.9424743543,-3956.0
19283.942536851533,7360.0
19283.94259934877,13912.0
19283.94266184601,15324.0
19283.942724343247,18867.0
19283.942786840482,20991.0
19283.94284933772,20035.0
19283.942911834958,18310.0
19283.942974332196,15594.0
19283.94303682943,12362.0
19283.94309932667,8862.0
19283.943161823907,6343.0
19283.943224321145,4843.0
19283.94328681838,3920.0
19283.943349315618,3007.0
19283.943411812856,511.0
19283.943474310094,-2102.0
19283.94353680733,-4402.0
19283.943599304566,-5461.0
19283.943661801804,-5113.0
19283.943724299043,-5220.0
19283.943786796277,-3866.0
19283.943849293515,-1491.0
19283.943911790753,-723.0
19283.94397428799,1630.0
19283.944036785226,6057.0
19283.944099282464,9349.0
19283.944161779702,11710.0
19283.944224276936,13999.0
19283.944286774175,15019.0
19283.944349271413,13614.0
19283.94441176865,12443.0
19283.944474265885,12377.0
19283.944536763123,11262.0
19283.94459926036,9667.0
19283.9446617576,8400.0
19283.944724254834,7009.0
19283.944786752072,5685.0
19283.94484924931,4698.0
19283.94491174655,4665.0
19283.944974243783,5329.0
19283.94503674102,5320.0
19283.94509923826,4957.0
19283.945161735497,5021.0
19283.94522423273,5675.0
19283.94528672997,6416.0
19283.945349227208,7365.0
19283.945411724446,8846.0
19283.94547422168,9896.0
19283.94553671892,10023.0
19283.945599216157,10279.0
19283.94566171339,10740.0
19283.94572421063,11117.0
19283.945786707867,11295.0
19283.945849205105,11261.0
19283.945911702343,11275.0
19283.945974199578,10586.0
19283.946036696816,9506.0
19283.946099194054,9012.0
19283.94616169129,8728.0
19283.946224188527,7978.0
19283.946286685765,7453.0
19283.946349183003,6994.0
19283.946411680237,5959.0
19283.946474177475,5148.0
19283.946536674714,4506.0
19283.94659917195,3126.0
19283.946661669186,1445.0
19283.946724166424,-275.0
19283.946786663662,-3003.0
19283.9468491609,-6200.0
19283.946911658135,-8866.0
19283.946974155373,-11343.0
19283.94703665261,-13762.0
19283.94709914985,-15363.0
19283.947161647084,-16175.0
19283.94722414432,-17520.0
19283.94728664156,-19067.0
19283.947349138798,-19494.0
19283.947411636032,-20115.0
19283.94747413327,-21672.0
19283.94753663051,-22657.0
19283.947599127743,-23722.0
19283.94766162498,-25848.0
19283.94772412222,-27680.0
19283.947786619457,-28853.0
19283.947849116696,-29926.0
19283.94791161393,-30614.0
19283.947974111168,-30936.0
19283.948036608406,-30210.0
19283.94809910564,-26057.0
19283.94816160288,-18324.0
19283.948224100117,-10750.0
19283.948286597355,-2856.0
19283.94834909459,7047.0
19283.948411591828,13234.0
19283.948474089066,14872.0
19283.948536586304,17575.0
19283.94859908354,19861.0
19283.948661580776,18293.0
19283.948724078014,15659.0
19283.948786575253,14176.0
19283.948849072487,11783.0
19283.948911569725,8176.0
19283.948974066963,6074.0
19283.9490365642,5421.0
19283.949099061436,4393.0
19283.949161558674,2932.0
19283.949224055912,1191.0
19283.94928655315,-753.0
19283.949349050385,-2690.0
19283.949411547623,-3879.0
19283.94947404486,-3935.0
19283.949536542095,-3621.0
19283.949599039333,-2466.0
19283.94966153657,-703.0
19283.94972403381,666.0
19283.949786531044,2793.0
19283.949849028282,5947.0
19283.94991152552,8891.0
19283.94997402276,11228.0
19283.950036519993,13027.0
19283.95009901723,14010.0
19283.95016151447,13518.0
19283.950224011707,12326.0
19283.95028650894,11608.0
19283.95034900618,10687.0
19283.950411503418,9219.0
19283.950474000656,8062.0
19283.95053649789,7346.0
19283.95059899513,6290.0
19283.950661492367,5141.0
19283.950723989605,4970.0
19283.95078648684,5031.0
19283.950848984077,4502.0
19283.950911481315,4649.0
19283.950973978554,6062.0
19283.951036475788,6815.0
19283.951098973026,6979.0
19283.951161470264,8611.0
19283.951223967502,9809.0
19283.951286464737,9243.0
19283.951348961975,9699.0
19283.951411459213,10991.0
19283.951473956447,10809.0
19283.951536453686,10603.0
19283.951598950924,11442.0
19283.95166144816,11477.0
19283.951723945396,10905.0
19283.951786442634,10873.0
19283.951848939872,10844.0
19283.95191143711,10311.0
19283.951973934345,9561.0
19283.952036431583,8919.0
19283.95209892882,7930.0
19283.95216142606,6648.0
19283.952223923294,5604.0
19283.952286420532,4719.0
19283.95234891777,3693.0
19283.952411415008,2285.0
19283.952473912243,549.0
19283.95253640948,-1511.0
19283.95259890672,-3846.0
19283.952661403957,-6357.0
19283.95272390119,-8959.0
19283.95278639843,-11410.0
19283.952848895668,-13252.0
19283.952911392902,-15008.0
19283.95297389014,-16884.0
19283.95303638738,-17918.0
19283.953098884616,-18871.0
19283.953161381854,-20214.0
19283.95322387909,-21018.0
19283.953286376327,-22199.0
19283.953348873565,-23749.0
19283.9534113708,-24883.0
19283.953473868038,-26511.0
19283.953536365276,-28336.0
19283.953598862514,-29192.0
19283.95366135975,-29633.0
19283.953723856986,-30579.0
19283.953786354225,-30638.0
19283.953848851463,-28902.0
19283.953911348697,-24068.0
19283.953973845935,-15797.0
19283.954036343173,-8072.0
19283.95409884041,420.0
19283.954161337646,9808.0
19283.954223834884,14675.0
19283.954286332122,17016.0
19283.95434882936,19410.0
19283.954411326595,19876.0
19283.954473823833,18497.0
19283.95453632107,15767.0
19283.95459881831,12844.0
19283.954661315543,10194.0
19283.95472381278,7036.0
19283.95478631002,4755.0
19283.954848807254,4091.0
19283.954911304492,3514.0
19283.95497380173,1687.0
19283.95503629897,88.0
19283.955098796203,-1216.0
19283.95516129344,-3056.0
19283.95522379068,-3788.0
19283.955286287917,-3682.0
19283.95534878515,-3591.0
19283.95541128239,-2382.0
19283.955473779628,-1121.0
19283.955536276866,517.0
19283.9555987741,4135.0
19283.95566127134,7525.0
19283.955723768577,10180.0
19283.955786265815,12838.0
19283.95584876305,14459.0
19283.955911260287,14471.0
19283.955973757525,13857.0
19283.956036254764,12955.0
19283.956098751998,11668.0
19283.956161249236,10210.0
19283.956223746474,8675.0
19283.956286243712,7295.0
19283.956348740947,6358.0
19283.956411238185,5708.0
19283.956473735423,5626.0
19283.95653623266,6021.0
19283.956598729896,5798.0
19283.956661227134,5663.0
19283.956723724372,5914.0
19283.956786221606,5862.0
19283.956848718844,5964.0
19283.956911216083,6769.0
19283.95697371332,7496.0
19283.957036210555,7754.0
19283.957098707793,8136.0
19283.95716120503,9373.0
19283.95722370227,10594.0
19283.957286199504,11144.0
19283.957348696742,12277.0
19283.95741119398,13309.0
19283.95747369122,12646.0
19283.957536188453,11904.0
19283.95759868569,12173.0
19283.95766118293,11282.0
19283.957723680167,9655.0
19283.9577861774,9045.0
19283.95784867464,8309.0
19283.957911171878,6568.0
19283.957973669116,5474.0
19283.95803616635,5291.0
19283.95809866359,4641.0
19283.958161160826,3326.0
19283.95822365806,1818.0
19283.9582861553,7.0
19283.958348652537,-2830.0
19283.958411149775,-6070.0
19283.958473647013,-8476.0
19283.958536144248,-10889.0
19283.958598641486,-13535.0
19283.958661138724,-15061.0
19283.95872363596,-16210.0
19283.958786133197,-17572.0
19283.958848630435,-18300.0
19283.958911127673,-18688.0
19283.958973624907,-19582.0
19283.959036122145,-20854.0
19283.959098619383,-22284.0
19283.95916111662,-24057.0
19283.959223613856,-26287.0
19283.959286111094,-28223.0
19283.959348608332,-29110.0
19283.95941110557,-30227.0
19283.959473602805,-31563.0
19283.959536100043,-31680.0
19283.95959859728,-31203.0
19283.95966109452,-28004.0
19283.959723591754,-19471.0
19283.95978608899,-11026.0
19283.95984858623,-3784.0
19283.959911083468,6406.0
19283.959973580702,13696.0
19283.96003607794,15100.0
19283.96009857518,17326.0
19283.960161072413,20516.0
19283.96022356965,19670.0
19283.96028606689,16771.0
19283.960348564127,14888.0
19283.96041106136,12624.0
19283.9604735586,9406.0
19283.960536055838,6697.0
19283.960598553076,5662.0
19283.96066105031,5738.0
19283.96072354755,4259.0
19283.960786044787,1624.0
19283.960848542025,-137.0
19283.96091103926,-2582.0
19283.960973536497,-4501.0
19283.961036033736,-4473.0
19283.961098530974,-4177.0
19283.961161028208,-3385.0
19283.961223525446,-1633.0
19283.961286022684,86.0
19283.961348519922,2376.0
19283.961411017157,5845.0
19283.961473514395,9055.0
19283.961536011633,11429.0
19283.96159850887,13729.0
19283.961661006106,14419.0
19283.961723503344,13284.0
19283.961786000582,12568.0
19283.96184849782,11806.0
19283.961910995054,10835.0
19283.961973492293,9696.0
19283.96203598953,8150.0
19283.962098486765,7504.0
19283.962160984003,7108.0
19283.96222348124,6189.0
19283.96228597848,6457.0
19283.962348475714,7098.0
19283.962410972952,6727.0
19283.96247347019,6172.0
19283.96253596743,5377.0
19283.962598464663,5442.0
19283.9626609619,6215.0
19283.96272345914,6296.0
19283.962785956377,7214.0
19283.96284845361,8950.0
19283.96291095085,9571.0
19283.962973448088,10107.0
19283.963035945326,11633.0
19283.96309844256,12647.0
19283.9631609398,12724.0
19283.963223437037,12953.0
19283.963285934275,12761.0
19283.96334843151,11899.0
19283.963410928747,11195.0
19283.963473425985,10224.0
19283.96353592322,9562.0
19283.963598420458,9132.0
19283.963660917696,7917.0
19283.963723414934,6896.0
19283.963785912172,6359.0
19283.963848409407,5314.0
19283.963910906645,4108.0
19283.963973403883,3064.0
19283.964035901117,1388.0
19283.964098398355,-1017.0
19283.964160895594,-3606.0
19283.96422339283,-6282.0
19283.964285890066,-9083.0
19283.964348387304,-11773.0
19283.964410884542,-13989.0
19283.96447338178,-15402.0
19283.964535879015,-16471.0
19283.964598376253,-17711.0
19283.96466087349,-18431.0
19283.96472337073,-18982.0
19283.964785867964,-20489.0
19283.9648483652,-21902.0
19283.96491086244,-23083.0
19283.964973359678,-25159.0
19283.965035856912,-27214.0
19283.96509835415,-28627.0
19283.96516085139,-29940.0
19283.965223348627,-31020.0
19283.96528584586,-31321.0
19283.9653483431,-31683.0
19283.965410840337,-30787.0
19283.965473337572,-24976.0
19283.96553583481,-16406.0
19283.965598332048,-9546.0
19283.965660829286,-684.0
19283.96572332652,9757.0
19283.96578582376,14498.0
19283.965848320997,16257.0
19283.965910818235,19540.0
19283.96597331547,21660.0
19283.966035812708,20234.0
19283.966098309946,17276.0
19283.966160807184,15510.0
19283.96622330442,12846.0
19283.966285801656,8383.0
19283.966348298894,6175.0
19283.966410796133,5619.0
19283.966473293367,4183.0
19283.966535790605,2221.0
19283.966598287843,337.0
19283.96666078508,-1865.0
19283.966723282316,-4014.0
19283.966785779554,-4633.0
19283.966848276792,-4589.0
19283.96691077403,-4307.0
19283.966973271265,-3068.0
19283.967035768503,-1712.0
19283.96709826574,4.0
19283.96716076298,3164.0
19283.967223260213,6592.0
19283.96728575745,9724.0
19283.96734825469,12630.0
19283.967410751924,14520.0
19283.967473249162,14935.0
19283.9675357464,14273.0
19283.96759824364,13572.0
19283.967660740873,12877.0
19283.96772323811,11613.0
19283.96778573535,9884.0
19283.967848232587,8621.0
19283.96791072982,7679.0
19283.96797322706,6509.0
19283.968035724298,5849.0
19283.968098221536,5897.0
19283.96816071877,5722.0
19283.96822321601,5457.0
19283.968285713247,5477.0
19283.968348210485,5653.0
19283.96841070772,6090.0
19283.968473204957,6745.0
19283.968535702195,7735.0
19283.968598199433,8938.0
19283.968660696668,9591.0
19283.968723193906,10321.0
19283.968785691144,11660.0
19283.96884818838,12067.0
19283.968910685617,11955.0
19283.968973182855,12826.0
19283.969035680093,12911.0
19283.96909817733,11803.0
19283.969160674566,11501.0
19283.969223171804,11058.0
19283.96928566904,9607.0
19283.969348166276,8608.0
19283.969410663514,7984.0
19283.969473160752,6848.0
19283.96953565799,5792.0
19283.969598155225,5277.0
19283.969660652463,4497.0
19283.9697231497,3231.0
19283.96978564694,1691.0
19283.969848144174,-93.0
19283.969910641412,-2309.0
19283.96997313865,-5173.0
19283.970035635888,-7929.0
19283.970098133123,-10501.0
19283.97016063036,-13120.0
19283.9702231276,-15141.0
19283.970285624837,-16573.0
19283.97034812207,-17709.0
19283.97041061931,-18634.0
19283.970473116548,-19714.0
19283.970535613786,-20646.0
19283.97059811102,-21509.0
19283.97066060826,-23219.0
19283.970723105496,-25139.0
19283.97078560273,-26476.0
19283.97084809997,-28188.0
19283.970910597207,-30412.0
19283.970973094445,-31277.0
19283.971035591683,-31375.0
19283.971098088918,-32565.0
19283.971160586156,-31606.0
19283.971223083394,-25740.0
19283.97128558063,-17424.0
19283.971348077866,-9914.0
19283.971410575105,-1186.0
19283.971473072343,8989.0
19283.971535569577,14317.0
19283.971598066815,16274.0
19283.971660564053,19331.0
19283.97172306129,20653.0
19283.971785558526,19156.0
19283.971848055764,16747.0
19283.971910553002,14187.0
19283.97197305024,11634.0
19283.972035547475,8584.0
19283.972098044713,6664.0
19283.97216054195,6006.0
19283.97222303919,5010.0
19283.972285536423,3547.0
19283.97234803366,1521.0
19283.9724105309,-1058.0
19283.972473028138,-3210.0
19283.972535525372,-4165.0
19283.97259802261,-4681.0
19283.97266051985,-4697.0
19283.972723017083,-3432.0
19283.97278551432,-1782.0
19283.97284801156,-381.0
19283.972910508797,2432.0
19283.97297300603,6352.0
19283.97303550327,9669.0
19283.973098000508,12117.0
19283.973160497746,14105.0
19283.97322299498,15046.0
19283.97328549222,13954.0
19283.973347989457,12630.0
19283.973410486695,12197.0
19283.97347298393,10955.0
19283.973535481167,8945.0
19283.973597978405,7867.0
19283.973660475644,7373.0
19283.973722972878,6449.0
19283.973785470116,5690.0
19283.973847967354,6409.0
19283.973910464592,6987.0
19283.973972961827,6766.0
19283.974035459065,6676.0
19283.974097956303,6254.0
19283.97416045354,6131.0
19283.974222950776,5898.0
19283.974285448014,5813.0
19283.97434794525,6606.0
19283.97441044249,7202.0
19283.974472939724,8068.0
19283.974535436962,9199.0
19283.9745979342,9892.0
19283.974660431435,10974.0
19283.974722928673,11853.0
19283.97478542591,11981.0
19283.97484792315,11955.0
19283.974910420384,11700.0
19283.974972917622,10963.0
19283.97503541486,9918.0
19283.975097912098,9283.0
19283.975160409333,8720.0
19283.97522290657,7952.0
19283.97528540381,7437.0
19283.975347901047,6836.0
19283.97541039828,5889.0
19283.97547289552,4618.0
19283.975535392758,3038.0
19283.975597889996,1181.0
19283.97566038723,-1361.0
19283.97572288447,-4338.0
19283.975785381706,-7227.0
19283.975847878944,-10169.0
19283.97591037618,-12780.0
19283.975972873417,-14707.0
19283.976035370655,-16011.0
19283.97609786789,-16831.0
19283.976160365128,-17427.0
19283.976222862366,-17903.0
19283.976285359604,-18561.0
19283.976347856842,-19385.0
19283.976410354077,-20486.0
19283.976472851315,-22079.0
19283.976535348553,-23731.0
19283.976597845787,-25759.0
19283.976660343025,-28126.0
19283.976722840263,-29519.0
19283.9767853375,-30270.0
19283.976847834736,-31339.0
19283.976910331974,-32251.0
19283.976972829212,-31754.0
19283.97703532645,-28651.0
19283.977097823685,-21879.0
19283.977160320923,-13826.0
19283.97722281816,-6231.0
19283.9772853154,3914.0
19283.977347812634,12014.0
19283.97741030987,14717.0
19283.97747280711,18372.0
19283.977535304348,21946.0
19283.977597801582,21212.0
19283.97766029882,19174.0
19283.97772279606,17329.0
19283.977785293297,14526.0
19283.97784779053,10756.0
19283.97791028777,8118.0
19283.977972785007,6901.0
19283.97803528224,5364.0
19283.97809777948,3630.0
19283.978160276718,1488.0
19283.978222773956,-868.0
19283.97828527119,-3214.0
19283.97834776843,-4778.0
19283.978410265667,-4696.0
19283.978472762905,-4400.0
19283.97853526014,-4015.0
19283.978597757377,-2436.0
19283.978660254616,-991.0
19283.978722751854,1394.0
19283.978785249088,5129.0
19283.978847746326,8060.0
19283.978910243564,10724.0
19283.978972740802,13528.0
19283.979035238037,14802.0
19283.979097735275,13950.0
19283.979160232513,13435.0
19283.97922272975,13440.0
19283.979285226986,11982.0
19283.979347724224,10331.0
19283.979410221462,9231.0
19283.9794727187,7805.0
19283.979535215934,6773.0
19283.979597713173,6211.0
19283.97966021041,6117.0
19283.97972270765,6437.0
19283.979785204883,6475.0
19283.97984770212,6509.0
19283.97991019936,6305.0
19283.979972696594,6017.0
19283.980035193832,6122.0
19283.98009769107,6231.0
19283.98016018831,6309.0
19283.980222685543,6805.0
19283.98028518278,7518.0
19283.98034768002,8005.0
19283.980410177257,9040.0
19283.98047267449,10648.0
19283.98053517173,11466.0
19283.980597668968,11877.0
19283.980660166206,12506.0
19283.98072266344,12371.0
19283.98078516068,11408.0
19283.980847657916,10704.0
19283.980910155155,10120.0
19283.98097265239,8926.0
19283.981035149627,7650.0
19283.981097646865,6883.0
19283.981160144103,6199.0
19283.981222641338,5070.0
19283.981285138576,4006.0
19283.981347635814,3127.0
19283.98141013305,1327.0
19283.981472630287,-1112.0
19283.981535127525,-3518.0
19283.981597624763,-6448.0
19283.981660122,-9737.0
19283.981722619235,-12445.0
19283.981785116473,-14676.0
19283.98184761371,-16633.0
19283.981910110946,-17567.0
19283.981972608184,-18193.0
19283.982035105422,-19099.0
19283.98209760266,-19098.0
19283.982160099895,-19715.0
19283.982222597133,-21231.0
19283.98228509437,-21841.0
19283.98234759161,-23053.0
19283.982410088844,-25400.0
19283.98247258608,-27035.0
19283.98253508332,-28195.0
19283.982597580558,-29763.0
19283.982660077792,-30691.0
19283.98272257503,-30917.0
19283.98278507227,-31068.0
19283.982847569507,-28574.0
19283.98291006674,-20935.0
19283.98297256398,-12731.0
19283.983035061217,-6499.0
19283.983097558455,3303.0
19283.98316005569,12289.0
19283.983222552928,13962.0
19283.983285050166,16119.0
19283.9833475474,20426.0
19283.98341004464,20246.0
19283.983472541877,17613.0
19283.983535039115,15624.0
19283.98359753635,13641.0
19283.983660033588,10274.0
19283.983722530826,6853.0
19283.983785028064,5908.0
19283.9838475253,5249.0
19283.983910022536,3223.0
19283.983972519774,1079.0
19283.984035017013,-378.0
19283.984097514247,-2230.0
19283.984160011485,-3948.0
19283.984222508723,-3683.0
19283.98428500596,-2794.0
19283.984347503196,-2628.0
19283.984410000434,-1403.0
19283.984472497672,235.0
19283.98453499491,1919.0
19283.984597492145,4915.0
19283.984659989383,8070.0
19283.98472248662,10882.0
19283.98478498386,13018.0
19283.984847481093,14121.0
19283.98490997833,14058.0
19283.98497247557,13023.0
19283.985034972808,12204.0
19283.985097470042,11661.0
19283.98515996728,10059.0
19283.98522246452,8192.0
19283.985284961753,7542.0
19283.98534745899,6931.0
19283.98540995623,5650.0
19283.985472453467,5573.0
19283.9855349507,6563.0
19283.98559744794,6680.0
19283.985659945178,6450.0
19283.985722442416,6521.0
19283.98578493965,6582.0
19283.98584743689,6887.0
19283.985909934127,7293.0
19283.985972431365,7443.0
19283.9860349286,8034.0
19283.986097425837,8601.0
19283.986159923075,8562.0
19283.986222420313,9191.0
19283.986284917548,10381.0
19283.986347414786,11013.0
19283.986409912024,11436.0
19283.986472409262,12039.0
19283.986534906497,11895.0
19283.986597403735,11035.0
19283.986659900973,10398.0
19283.986722398207,9942.0
19283.986784895445,9034.0
19283.986847392684,7886.0
19283.98690988992,7203.0
19283.98697238716,6811.0
19283.987034884394,5867.0
19283.987097381632,4717.0
19283.98715987887,4059.0
19283.987222376105,2722.0
19283.987284873343,72.0
19283.98734737058,-2485.0
19283.98740986782,-4907.0
19283.987472365054,-8179.0
19283.98753486229,-11330.0
19283.98759735953,-13421.0
19283.987659856768,-15353.0
19283.987722354002,-17208.0
19283.98778485124,-18248.0
19283.98784734848,-18797.0
19283.987909845717,-19303.0
19283.98797234295,-20110.0
19283.98803484019,-21170.0
19283.988097337427,-22310.0
19283.988159834666,-24096.0
19283.9882223319,-26285.0
19283.988284829138,-27698.0
19283.988347326376,-29075.0
19283.988409823614,-30820.0
19283.98847232085,-31639.0
19283.988534818087,-32081.0
19283.988597315325,-32333.0
19283.98865981256,-29262.0
19283.988722309798,-21698.0
19283.988784807036,-13670.0
19283.988847304274,-6414.0
19283.98890980151,3228.0
19283.988972298746,11610.0
19283.989034795984,14490.0
19283.989097293223,17135.0
19283.989159790457,20535.0
19283.989222287695,20368.0
19283.989284784933,18086.0
19283.98934728217,15947.0
19283.989409779406,13453.0
19283.989472276644,10501.0
19283.989534773882,8054.0
19283.98959727112,6893.0
19283.989659768355,5872.0
19283.989722265593,4235.0
19283.98978476283,2256.0
19283.98984726007,-49.0
19283.989909757303,-2206.0
19283.98997225454,-3478.0
19283.99003475178,-3497.0
19283.990097249018,-3323.0
19283.990159746252,-2965.0
19283.99022224349,-1473.0
19283.99028474073,116.0
19283.990347237966,2088.0
19283.9904097352,5436.0
19283.99047223244,8666.0
19283.990534729677,11252.0
19283.99059722691,13118.0
19283.99065972415,13792.0
19283.990722221388,13790.0
19283.990784718626,13025.0
19283.99084721586,12106.0
19283.9909097131,11591.0
19283.990972210337,10490.0
19283.991034707575,8728.0
19283.99109720481,7721.0
19283.991159702047,7392.0
19283.991222199285,6809.0
19283.991284696524,6724.0
19283.991347193758,7217.0
19283.991409690996,7579.0
19283.991472188234,7574.0
19283.991534685472,6907.0
19283.991597182707,6998.0
19283.991659679945,7542.0
19283.991722177183,7046.0
19283.99178467442,6989.0
19283.991847171656,7668.0
19283.991909668894,8028.0
19283.99197216613,8396.0
19283.992034663366,9225.0
19283.992097160604,10662.0
19283.992159657842,11653.0
19283.99222215508,11573.0
19283.99228465232,11958.0
19283.992347149553,12341.0
19283.99240964679,11339.0
19283.99247214403,10399.0
19283.992534641264,10260.0
19283.992597138502,9453.0
19283.99265963574,8017.0
19283.992722132978,7278.0
19283.992784630213,6754.0
19283.99284712745,5571.0
19283.99290962469,4544.0
19283.992972121927,3356.0
19283.99303461916,1385.0
19283.9930971164,-966.0
19283.993159613638,-3736.0
19283.993222110876,-6605.0
19283.99328460811,-9472.0
19283.99334710535,-12518.0
19283.993409602586,-14674.0
19283.993472099824,-15991.0
19283.99353459706,-17605.0
19283.993597094297,-18590.0
19283.993659591535,-18569.0
19283.993722088773,-19141.0
19283.993784586008,-20284.0
19283.993847083246,-20895.0
19283.993909580484,-21955.0
19283.99397207772,-23970.0
19283.994034574956,-25681.0
19283.994097072195,-27193.0
19283.994159569433,-29380.0
19283.99422206667,-30908.0
19283.994284563905,-31384.0
19283.994347061143,-32131.0
19283.99440955838,-31938.0
19283.994472055616,-27704.0
19283.994534552854,-19297.0
19283.994597050092,-11631.0
19283.99465954733,-4841.0
19283.994722044565,5390.0
19283.994784541803,12742.0
19283.99484703904,14048.0
19283.99490953628,17092.0
19283.994972033513,20532.0
19283.99503453075,19294.0
19283.99509702799,16652.0
19283.995159525228,15128.0
19283.995222022462,12768.0
19283.9952845197,9253.0
19283.99534701694,7306.0
19283.995409514177,6579.0
19283.99547201141,5235.0
19283.99553450865,3759.0
19283.995597005887,2021.0
19283.995659503125,55.0
19283.99572200036,-1771.0
19283.995784497598,-2917.0
19283.995846994836,-3070.0
19283.99590949207,-3216.0
19283.99597198931,-2792.0
19283.996034486547,-1383.0
19283.996096983785,-135.0
19283.99615948102,2107.0
19283.996221978257,5372.0
19283.996284475495,8201.0
19283.996346972734,10554.0
19283.996409469968,12501.0
19283.996471967206,13499.0
19283.996534464444,13136.0
19283.996596961682,12756.0
19283.996659458917,12446.0
19283.996721956155,11001.0
19283.996784453393,9313.0
19283.99684695063,8101.0
19283.996909447866,6899.0
19283.996971945104,6103.0
19283.997034442342,5763.0
19283.99709693958,5874.0
19283.997159436814,6210.0
19283.997221934053,5904.0
19283.99728443129,5547.0
19283.99734692853,5611.0
19283.997409425763,5568.0
19283.997471923,5886.0
19283.99753442024,6811.0
19283.997596917477,7567.0
19283.997659414712,8086.0
19283.99772191195,9030.0
19283.997784409188,10232.0
19283.997846906423,10487.0
19283.99790940366,11147.0
19283.9979719009,12238.0
19283.998034398137,11995.0
19283.99809689537,11289.0
19283.99815939261,11078.0
19283.998221889848,10622.0
19283.998284387086,9685.0
19283.99834688432,9041.0
19283.99840938156,8708.0
19283.998471878796,7774.0
19283.998534376035,6703.0
19283.99859687327,5957.0
19283.998659370507,4891.0
19283.998721867745,3916.0
19283.998784364983,2859.0
19283.998846862218,1301.0
19283.998909359456,-736.0
19283.998971856694,-3013.0
19283.999034353932,-5452.0
19283.999096851167,-8044.0
19283.999159348405,-10412.0
19283.999221845643,-12396.0
19283.999284342877,-14347.0
19283.999346840115,-15714.0
19283.999409337353,-16452.0
19283.99947183459,-17558.0
19283.99953433183,-18385.0
19283.999596829064,-18598.0
19283.999659326302,-19643.0
19283.99972182354,-21069.0
19283.999784320775,-22078.0
19283.999846818013,-23783.0
19283.99990931525,-25636.0
19283.99997181249,-27099.0
19284.000034309724,-28686.0
19284.00009680696,-29974.0
19284.0001593042,-30601.0
19284.000221801438,-31053.0
19284.000284298672,-30678.0
19284.00034679591,-27265.0
19284.00040929315,-19594.0
19284.000471790387,-11972.0
19284.00053428762,-5264.0
19284.00059678486,4759.0
19284.000659282097,11893.0
19284.000721779335,13973.0
19284.00078427657,16934.0
19284.000846773808,19812.0
19284.000909271046,19621.0
19284.000971768284,17472.0
19284.00103426552,15149.0
19284.001096762757,12798.0
19284.001159259995,9625.0
19284.00122175723,6943.0
19284.001284254467,5571.0
19284.001346751706,4972.0
19284.001409248944,3978.0
19284.001471746178,1456.0
19284.001534243416,-211.0
19284.001596740654,-1748.0
19284.001659237892,-3392.0
19284.001721735127,-3610.0
19284.001784232365,-3317.0
19284.001846729603,-2742.0
19284.00190922684,-1635.0
19284.001971724076,-356.0
19284.002034221314,1984.0
19284.002096718552,4954.0
19284.00215921579,7844.0
19284.002221713024,10909.0
19284.002284210263,12973.0
19284.0023467075,13986.0
19284.00240920474,13508.0
19284.002471701973,12509.0
19284.00253419921,11894.0
19284.00259669645,10940.0
19284.002659193688,9460.0
19284.002721690922,8105.0
19284.00278418816,7308.0
19284.0028466854,6772.0
19284.002909182636,6060.0
19284.00297167987,6001.0
19284.00303417711,6701.0
19284.003096674347,6535.0
19284.00315917158,6067.0
19284.00322166882,5973.0
19284.003284166058,6230.0
19284.003346663296,6390.0
19284.00340916053,6718.0
19284.00347165777,7272.0
19284.003534155006,7628.0
19284.003596652245,8133.0
19284.00365914948,8690.0
19284.003721646717,9517.0
19284.003784143955,10513.0
19284.003846641193,11085.0
19284.003909138428,11387.0
19284.003971635666,11556.0
19284.004034132904,11254.0
19284.004096630142,10605.0
19284.004159127377,10027.0
19284.004221624615,9564.0
19284.004284121853,8589.0
19284.00434661909,7383.0
19284.004409116325,6469.0
19284.004471613564,5498.0
19284.0045341108,4438.0
19284.004596608036,3507.0
19284.004659105274,2309.0
19284.004721602512,521.0
19284.00478409975,-1428.0
19284.00484659699,-3822.0
19284.004909094223,-6620.0
19284.00497159146,-9012.0
19284.0050340887,-11068.0
19284.005096585934,-13225.0
19284.00515908317,-15035.0
19284.00522158041,-16014.0
19284.005284077648,-17074.0
19284.005346574882,-18247.0
19284.00540907212,-18408.0
19284.00547156936,-18946.0
19284.005534066597,-20456.0
19284.00559656383,-21425.0
19284.00565906107,-22267.0
19284.005721558307,-24130.0
19284.005784055546,-26278.0
19284.00584655278,-27697.0
19284.005909050018,-29138.0
19284.005971547256,-30321.0
19284.006034044494,-30805.0
19284.00609654173,-31349.0
19284.006159038967,-29519.0
19284.006221536205,-23438.0
19284.006284033443,-16306.0
19284.006346530678,-9492.0
19284.006409027916,-340.0
19284.006471525154,8963.0
19284.00653402239,13282.0
19284.006596519626,15819.0
19284.006659016864,19818.0
19284.006721514103,21061.0
19284.006784011337,18739.0
19284.006846508575,16913.0
19284.006909005813,15313.0
19284.00697150305,11653.0
19284.007034000286,7934.0
19284.007096497524,6268.0
19284.007158994762,4803.0
19284.007221492,2826.0
19284.007283989235,1446.0
19284.007346486473,-28.0
19284.00740898371,-2049.0
19284.00747148095,-3670.0
19284.007533978183,-4207.0
19284.00759647542,-4108.0
19284.00765897266,-3622.0
19284.007721469898,-2228.0
19284.007783967132,-449.0
19284.00784646437,1309.0
19284.00790896161,4101.0
19284.007971458846,7397.0
19284.00803395608,9948.0
19284.00809645332,12008.0
19284.008158950557,13787.0
19284.008221447795,14102.0
19284.00828394503,13174.0
19284.008346442268,12525.0
19284.008408939506,11987.0
19284.00847143674,10775.0
19284.00853393398,9155.0
19284.008596431217,8110.0
19284.008658928455,7160.0
19284.00872142569,5921.0
19284.008783922927,5413.0
19284.008846420165,5638.0
19284.008908917403,5623.0
19284.008971414638,5406.0
19284.009033911876,5349.0
19284.009096409114,5323.0
19284.009158906352,5390.0
19284.009221403587,6024.0
19284.009283900825,7047.0
19284.009346398063,7805.0
19284.0094088953,8468.0
19284.009471392535,9336.0
19284.009533889774,10257.0
19284.00959638701,11199.0
19284.00965888425,12289.0
19284.009721381484,13341.0
19284.009783878722,13539.0
19284.00984637596,13143.0
19284.009908873195,12437.0
19284.009971370433,11104.0
19284.01003386767,9831.0
19284.01009636491,8735.0
19284.010158862147,7380.0
19284.010221359382,6160.0
19284.01028385662,5130.0
19284.010346353858,3826.0
19284.010408851093,2815.0
19284.01047134833,2233.0
19284.01053384557,1098.0
19284.010596342807,-540.0
19284.01065884004,-2157.0
19284.01072133728,-4451.0
19284.010783834517,-7380.0
19284.010846331756,-9847.0
19284.01090882899,-11859.0
19284.010971326228,-13932.0
19284.011033823466,-15463.0
19284.011096320704,-16254.0
19284.01115881794,-17268.0
19284.011221315177,-18204.0
19284.011283812415,-18495.0
19284.011346309653,-19110.0
19284.011408806888,-20416.0
19284.011471304126,-21509.0
19284.011533801364,-22991.0
19284.011596298602,-25226.0
19284.011658795836,-27167.0
19284.011721293075,-28308.0
19284.011783790313,-29188.0
19284.011846287547,-30308.0
19284.011908784785,-31332.0
19284.011971282023,-30552.0
19284.01203377926,-26576.0
19284.012096276496,-19891.0
19284.012158773734,-12164.0
19284.012221270972,-3924.0
19284.01228376821,5401.0
19284.012346265445,11835.0
19284.012408762683,14220.0
19284.01247125992,17196.0
19284.01253375716,19870.0
19284.012596254393,19231.0
19284.01265875163,17447.0
19284.01272124887,15864.0
19284.012783746108,13278.0
19284.012846243342,9876.0
19284.01290874058,7563.0
19284.01297123782,6318.0
19284.013033735057,5007.0
19284.01309623229,3628.0
19284.01315872953,1623.0
19284.013221226767,-532.0
19284.013283724005,-2363.0
19284.01334622124,-3754.0
19284.013408718478,-3862.0
19284.013471215716,-3117.0
19284.013533712954,-2359.0
19284.01359621019,-920.0
19284.013658707427,862.0
19284.013721204665,2964.0
19284.0137837019,6130.0
19284.013846199137,9426.0
19284.013908696375,11924.0
19284.013971193614,13736.0
19284.014033690848,14280.0
19284.014096188086,13604.0
19284.014158685324,12777.0
19284.014221182562,11604.0
19284.014283679797,10425.0
19284.014346177035,9387.0
19284.014408674273,7789.0
19284.01447117151,6366.0
19284.014533668746,5846.0
19284.014596165984,5277.0
19284.01465866322,4901.0
19284.01472116046,5237.0
19284.014783657694,5292.0
19284.014846154932,4832.0
19284.01490865217,4559.0
19284.01497114941,4674.0
19284.015033646643,5705.0
19284.01509614388,7387.0
19284.01515864112,8537.0
19284.015221138354,10128.0
19284.015283635592,11820.0
19284.01534613283,12243.0
19284.015408630068,12797.0
19284.015471127306,13784.0
19284.01553362454,13778.0
19284.01559612178,13272.0
19284.015658619017,12563.0
19284.01572111625,11104.0
19284.01578361349,9618.0
19284.015846110728,8539.0
19284.015908607966,7474.0
19284.0159711052,6772.0
19284.01603360244,6298.0
19284.016096099676,5259.0
19284.016158596914,4190.0
19284.01622109415,3392.0
19284.016283591387,2566.0
19284.016346088625,1607.0
19284.016408585863,374.0
19284.016471083098,-1124.0
19284.016533580336,-3163.0
19284.016596077574,-5706.0
19284.016658574812,-8002.0
19284.016721072046,-9985.0
19284.016783569285,-12142.0
19284.016846066523,-13935.0
19284.01690856376,-14910.0
19284.016971060995,-16296.0
19284.017033558233,-17965.0
19284.01709605547,-18406.0
19284.017158552706,-19096.0
19284.017221049944,-20670.0
19284.017283547182,-21762.0
19284.01734604442,-23111.0
19284.01740854166,-25301.0
19284.017471038893,-27475.0
19284.01753353613,-28747.0
19284.01759603337,-29491.0
19284.017658530604,-30723.0
19284.01772102784,-31165.0
19284.01778352508,-30886.0
19284.017846022318,-29550.0
19284.017908519552,-23373.0
19284.01797101679,-14835.0
19284.01803351403,-8142.0
19284.018096011267,778.0
19284.0181585085,10122.0
19284.01822100574,13292.0
19284.018283502977,15055.0
19284.018346000215,19240.0
19284.01840849745,20082.0
19284.018470994688,17400.0
19284.018533491926,16028.0
19284.018595989164,14327.0
19284.0186584864,10342.0
19284.018720983637,7561.0
19284.018783480875,6610.0
19284.018845978113,5494.0
19284.018908475347,4154.0
19284.018970972586,2369.0
19284.019033469824,528.0
19284.019095967058,-1955.0
19284.019158464296,-4248.0
19284.019220961534,-4197.0
19284.019283458772,-3752.0
19284.019345956007,-3575.0
19284.019408453245,-1909.0
19284.019470950483,-166.0
19284.01953344772,1458.0
19284.019595944956,4615.0
19284.019658442194,8010.0
19284.019720939432,10364.0
19284.01978343667,12382.0
19284.019845933904,13787.0
19284.019908431143,13524.0
19284.01997092838,12581.0
19284.02003342562,12051.0
19284.020095922853,11296.0
19284.02015842009,10084.0
19284.02022091733,8801.0
19284.020283414568,7453.0
19284.020345911802,6483.0
19284.02040840904,5835.0
19284.02047090628,5120.0
19284.020533403516,5009.0
19284.02059590075,5252.0
19284.02065839799,4654.0
19284.020720895227,3734.0
19284.020783392465,3738.0
19284.0208458897,4083.0
19284.020908386938,4643.0
19284.020970884176,6140.0
19284.02103338141,7613.0
19284.02109587865,8239.0
19284.021158375886,8889.0
19284.021220873125,9735.0
19284.02128337036,10255.0
19284.021345867597,11130.0
19284.021408364835,12442.0
19284.021470862073,13098.0
19284.021533359308,12884.0
19284.021595856546,12334.0
19284.021658353784,11599.0
19284.021720851022,10619.0
19284.021783348257,9833.0
19284.021845845495,8962.0
19284.021908342733,7503.0
19284.02197083997,5962.0
19284.022033337205,4499.0
19284.022095834443,2944.0
19284.02215833168,1687.0
19284.02222082892,789.0
19284.022283326154,-423.0
19284.022345823392,-2397.0
19284.02240832063,-4472.0
19284.022470817865,-6618.0
19284.022533315103,-9010.0
19284.02259581234,-10393.0
19284.02265830958,-11530.0
19284.022720806817,-13057.0
19284.02278330405,-13787.0
19284.02284580129,-14607.0
19284.022908298528,-16057.0
19284.022970795762,-16790.0
19284.023033293,-17386.0
19284.02309579024,-18822.0
19284.023158287477,-20352.0
19284.02322078471,-21986.0
19284.02328328195,-23975.0
19284.023345779187,-25854.0
19284.023408276425,-27213.0
19284.02347077366,-27930.0
19284.023533270898,-28194.0
19284.023595768136,-29111.0
19284.023658265374,-30139.0
19284.02372076261,-29810.0
19284.023783259847,-26606.0
19284.023845757085,-19203.0
19284.023908254323,-12682.0
19284.023970751557,-5513.0
19284.024033248796,5215.0
19284.024095746034,10333.0
19284.02415824327,11849.0
19284.024220740506,16510.0
19284.024283237744,19481.0
19284.024345734982,18237.0
19284.024408232217,16657.0
19284.024470729455,15999.0
19284.024533226693,13070.0
19284.02459572393,8879.0
19284.024658221166,7249.0
19284.024720718404,6116.0
19284.024783215642,4680.0
19284.02484571288,3090.0
19284.024908210115,1082.0
19284.024970707353,-484.0
19284.02503320459,-2668.0
19284.02509570183,-3837.0
19284.025158199063,-3453.0
19284.0252206963,-3367.0
19284.02528319354,-2665.0
19284.025345690778,-1360.0
19284.025408188012,-184.0
19284.02547068525,2141.0
19284.02553318249,4934.0
19284.025595679726,7861.0
19284.02565817696,10572.0
19284.0257206742,12585.0
19284.025783171437,13399.0
19284.025845668675,12867.0
19284.02590816591,12706.0
19284.025970663148,12324.0
19284.026033160386,11155.0
19284.026095657624,9762.0
19284.02615815486,8155.0
19284.026220652097,7168.0
19284.026283149335,6265.0
19284.02634564657,5335.0
19284.026408143807,5689.0
19284.026470641045,5829.0
19284.026533138283,5433.0
19284.026595635518,5313.0
19284.026658132756,4902.0
19284.026720629994,4886.0
19284.026783127232,5589.0
19284.026845624467,6323.0
19284.026908121705,7124.0
19284.026970618943,8048.0
19284.02703311618,9000.0
19284.027095613415,9888.0
19284.027158110654,10663.0
19284.02722060789,11621.0
19284.02728310513,12306.0
19284.027345602364,12365.0
19284.027408099602,11868.0
19284.02747059684,11024.0
19284.02753309408,9989.0
19284.027595591313,8961.0
19284.02765808855,8146.0
19284.02772058579,7356.0
19284.027783083024,6314.0
19284.02784558026,5510.0
19284.0279080775,4700.0
19284.027970574738,3679.0
19284.028033071976,2899.0
19284.02809556921,1887.0
19284.02815806645,229.0
19284.028220563687,-1661.0
19284.02828306092,-3762.0
19284.02834555816,-6376.0
19284.028408055397,-8717.0
19284.028470552636,-10527.0
19284.02853304987,-12414.0
19284.028595547108,-13939.0
19284.028658044346,-14848.0
19284.028720541584,-15754.0
19284.02878303882,-16728.0
19284.028845536057,-17365.0
19284.028908033295,-18201.0
19284.028970530533,-19725.0
19284.029033027768,-20951.0
19284.029095525006,-22123.0
19284.029158022244,-23994.0
19284.029220519482,-25763.0
19284.029283016716,-26860.0
19284.029345513954,-27760.0
19284.029408011193,-28894.0
19284.02947050843,-29736.0
19284.029533005665,-30011.0
19284.029595502903,-28919.0
19284.02965800014,-23348.0
19284.029720497376,-15512.0
19284.029782994614,-9748.0
19284.029845491852,-754.0
19284.02990798909,8651.0
19284.029970486325,11795.0
19284.030032983563,14442.0
19284.0300954808,18795.0
19284.03015797804,19797.0
19284.030220475273,17827.0
19284.03028297251,16537.0
19284.03034546975,14630.0
19284.030407966988,10975.0
19284.030470464222,8450.0
19284.03053296146,7087.0
19284.0305954587,5607.0
19284.030657955936,4730.0
19284.03072045317,2694.0
19284.03078295041,212.0
19284.030845447647,-2144.0
19284.030907944885,-3902.0
19284.03097044212,-4073.0
19284.031032939358,-4158.0
19284.031095436596,-3689.0
19284.031157933834,-2028.0
19284.03122043107,-848.0
19284.031282928307,649.0
19284.031345425545,3797.0
19284.031407922783,6892.0
19284.031470420017,9382.0
19284.031532917255,11517.0
19284.031595414493,13390.0
19284.031657911728,13360.0
19284.031720408966,12642.0
19284.031782906204,12555.0
19284.031845403442,11877.0
19284.031907900677,10632.0
19284.031970397915,9126.0
19284.032032895153,7912.0
19284.03209539239,7088.0
19284.032157889626,6019.0
19284.032220386864,5504.0
19284.0322828841,6009.0
19284.03234538134,5895.0
19284.032407878574,5648.0
19284.032470375812,5532.0
19284.03253287305,5142.0
19284.03259537029,4975.0
19284.032657867523,5588.0
19284.03272036476,6203.0
19284.032782862,6622.0
19284.032845359237,7332.0
19284.032907856472,8299.0
19284.03297035371,9133.0
19284.033032850948,9754.0
19284.033095348183,10954.0
19284.03315784542,12266.0
19284.03322034266,12433.0
19284.033282839897,12249.0
19284.033345337135,12305.0
19284.03340783437,11325.0
19284.033470331608,10082.0
19284.033532828846,9573.0
19284.03359532608,8603.0
19284.03365782332,7007.0
19284.033720320556,5992.0
19284.033782817794,4924.0
19284.03384531503,3357.0
19284.033907812267,2183.0
19284.033970309505,1187.0
19284.034032806743,-477.0
19284.034095303978,-2536.0
19284.034157801216,-4517.0
19284.034220298454,-6874.0
19284.034282795692,-9294.0
19284.034345292926,-11110.0
19284.034407790165,-12682.0
19284.034470287403,-14034.0
19284.03453278464,-14935.0
19284.034595281875,-15631.0
19284.034657779113,-16584.0
19284.03472027635,-17408.0
19284.03478277359,-18152.0
19284.034845270824,-19805.0
19284.034907768062,-21101.0
19284.0349702653,-22404.0
19284.035032762535,-24898.0
19284.035095259773,-26325.0
19284.03515775701,-26675.0
19284.03522025425,-28097.0
19284.035282751487,-29167.0
19284.03534524872,-29307.0
19284.03540774596,-29782.0
19284.035470243198,-27390.0
19284.035532740432,-19052.0
19284.03559523767,-11043.0
19284.03565773491,-4954.0
19284.035720232147,5267.0
19284.03578272938,12247.0
19284.03584522662,13107.0
19284.035907723857,15635.0
19284.035970221095,18655.0
19284.03603271833,18753.0
19284.036095215568,16535.0
19284.036157712806,14188.0
19284.036220210044,12449.0
19284.03628270728,8800.0
19284.036345204517,5894.0
19284.036407701755,5628.0
19284.036470198993,4834.0
19284.036532696227,3083.0
19284.036595193465,1141.0
19284.036657690704,-710.0
19284.03672018794,-3168.0
19284.036782685176,-4492.0
19284.036845182414,-3790.0
19284.036907679652,-3115.0
19284.036970176887,-2255.0
19284.037032674125,-471.0
19284.037095171363,861.0
19284.0371576686,2922.0
19284.037220165836,6122.0
19284.037282663074,8965.0
19284.03734516031,11503.0
19284.03740765755,13251.0
19284.037470154784,13854.0
19284.037532652022,13176.0
19284.03759514926,12142.0
19284.0376576465,11659.0
19284.037720143733,11048.0
19284.03778264097,9437.0
19284.03784513821,7849.0
19284.037907635447,6995.0
19284.037970132682,5998.0
19284.03803262992,4522.0
19284.038095127158,4235.0
19284.038157624396,4960.0
19284.03822012163,4341.0
19284.03828261887,3625.0
19284.038345116107,3843.0
19284.038407613345,3640.0
19284.03847011058,3524.0
19284.038532607818,4848.0
19284.038595105056,6725.0
19284.038657602294,8602.0
19284.03872009953,10249.0
19284.038782596766,11744.0
19284.038845094005,13665.0
19284.03890759124,14653.0
19284.038970088477,14281.0
19284.039032585715,14720.0
19284.039095082953,14746.0
19284.039157580188,12381.0
19284.039220077426,10403.0
19284.039282574664,9654.0
19284.039345071902,7945.0
19284.039407569137,6077.0
19284.039470066375,5670.0
19284.039532563613,5135.0
19284.03959506085,3880.0
19284.039657558085,2923.0
19284.039720055323,2251.0
19284.03978255256,1238.0
19284.0398450498,-75.0
19284.039907547034,-1325.0
19284.039970044272,-2581.0
19284.04003254151,-4500.0
19284.04009503875,-6939.0
19284.040157535983,-8750.0
19284.04022003322,-10257.0
19284.04028253046,-11914.0
19284.040345027694,-13216.0
19284.04040752493,-14063.0
19284.04047002217,-15315.0
19284.040532519408,-16914.0
19284.040595016646,-17832.0
19284.04065751388,-18976.0
19284.04072001112,-20881.0
19284.040782508357,-22119.0
19284.04084500559,-23365.0
19284.04090750283,-25469.0
19284.040970000067,-27056.0
19284.041032497305,-27792.0
19284.04109499454,-28757.0
19284.041157491778,-29981.0
19284.041219989016,-30810.0
19284.041282486254,-30195.0
19284.04134498349,-25380.0
19284.041407480727,-17598.0
19284.041469977965,-10494.0
19284.041532475203,-1707.0
19284.041594972437,7916.0
19284.041657469676,12720.0
19284.041719966914,15122.0
19284.04178246415,18496.0
19284.041844961386,20368.0
19284.041907458624,19316.0
19284.041969955862,16998.0
19284.0420324531,14712.0
19284.042094950335,11457.0
19284.042157447573,7764.0
19284.04221994481,5453.0
19284.042282442046,4362.0
19284.042344939284,3396.0
19284.042407436522,1670.0
19284.04246993376,-225.0
19284.042532430994,-2117.0
19284.042594928233,-3729.0
19284.04265742547,-4069.0
19284.04271992271,-3939.0
19284.042782419943,-3496.0
19284.04284491718,-2073.0
19284.04290741442,-639.0
19284.042969911658,826.0
19284.043032408892,3327.0
19284.04309490613,6582.0
19284.04315740337,9451.0
19284.043219900606,11685.0
19284.04328239784,13500.0
19284.04334489508,13747.0
19284.043407392317,13008.0
19284.043469889555,12632.0
19284.04353238679,11988.0
19284.043594884028,10757.0
19284.043657381266,9323.0
19284.043719878504,8056.0
19284.04378237574,7061.0
19284.043844872976,5900.0
19284.043907370215,4910.0
19284.043969867453,5179.0
19284.044032364687,5756.0
19284.044094861925,5021.0
19284.044157359163,4514.0
19284.044219856398,5091.0
19284.044282353636,4834.0
19284.044344850874,4561.0
19284.044407348112,5708.0
19284.044469845347,6950.0
19284.044532342585,7362.0
19284.044594839823,7954.0
19284.04465733706,9373.0
19284.044719834295,10149.0
19284.044782331533,10435.0
19284.04484482877,11594.0
19284.04490732601,12141.0
19284.044969823244,11533.0
19284.045032320482,11227.0
19284.04509481772,10712.0
19284.04515731496,9678.0
19284.045219812193,8997.0
19284.04528230943,8198.0
19284.04534480667,7019.0
19284.045407303907,6302.0
19284.04546980114,5500.0
19284.04553229838,4002.0
19284.045594795618,2862.0
19284.045657292852,1993.0
19284.04571979009,370.0
19284.04578228733,-1683.0
19284.045844784567,-3439.0
19284.045907281805,-5288.0
19284.04596977904,-7591.0
19284.046032276277,-9579.0
19284.046094773516,-11175.0
19284.04615727075,-12747.0
19284.046219767988,-13984.0
19284.046282265226,-14862.0
19284.046344762464,-15802.0
19284.0464072597,-16616.0
19284.046469756937,-17560.0
19284.046532254175,-19126.0
19284.046594751413,-20670.0
19284.046657248648,-22102.0
19284.046719745886,-24096.0
19284.046782243124,-25670.0
19284.046844740362,-26225.0
19284.046907237596,-27480.0
19284.046969734834,-28975.0
19284.047032232073,-29548.0
19284.04709472931,-30341.0
19284.047157226545,-30125.0
19284.047219723783,-24447.0
19284.04728222102,-16035.0
19284.04734471826,-9464.0
19284.047407215494,-501.0
19284.047469712732,8578.0
19284.04753220997,12028.0
19284.047594707205,14496.0
19284.047657204443,17968.0
19284.04771970168,19331.0
19284.04778219892,18502.0
19284.047844696153,16624.0
19284.04790719339,14311.0
19284.04796969063,10829.0
19284.048032187868,7484.0
19284.048094685102,5495.0
19284.04815718234,4498.0
19284.04821967958,3710.0
19284.048282176816,1831.0
19284.04834467405,-214.0
19284.04840717129,-2382.0
19284.048469668527,-4159.0
19284.048532165765,-4137.0
19284.048594663,-3762.0
19284.048657160238,-3189.0
19284.048719657476,-1453.0
19284.048782154714,-329.0
19284.04884465195,794.0
19284.048907149187,3519.0
19284.048969646425,6877.0
19284.049032143663,9658.0
19284.049094640897,11825.0
19284.049157138135,13407.0
19284.049219635373,13668.0
19284.04928213261,12831.0
19284.049344629846,11937.0
19284.049407127084,11709.0
19284.049469624322,10914.0
19284.049532121557,9274.0
19284.049594618795,8087.0
19284.049657116033,7022.0
19284.04971961327,5631.0
19284.049782110505,4853.0
19284.049844607744,5295.0
19284.04990710498,5582.0
19284.04996960222,5043.0
19284.050032099454,4995.0
19284.050094596692,4709.0
19284.05015709393,4501.0
19284.05021959117,5453.0
19284.050282088403,6212.0
19284.05034458564,6964.0
19284.05040708288,7760.0
19284.050469580117,8082.0
19284.05053207735,8403.0
19284.05059457459,9488.0
19284.050657071828,10700.0
19284.050719569066,11227.0
19284.0507820663,11693.0
19284.05084456354,11726.0
19284.050907060777,10675.0
19284.05096955801,9625.0
19284.05103205525,9105.0
19284.051094552487,8382.0
19284.051157049726,7212.0
19284.051219546964,6260.0
19284.051282044198,5334.0
19284.051344541436,3908.0
19284.051407038674,2652.0
19284.05146953591,1997.0
19284.051532033147,1114.0
19284.051594530385,-552.0
19284.051657027623,-2262.0
19284.051719524858,-4095.0
19284.051782022096,-6589.0
19284.051844519334,-8776.0
19284.051907016572,-10182.0
19284.051969513806,-11859.0
19284.052032011045,-13547.0
19284.052094508283,-14570.0
19284.05215700552,-15599.0
19284.052219502755,-16789.0
19284.052281999993,-17119.0
19284.05234449723,-17646.0
19284.05240699447,-19146.0
19284.052469491704,-20169.0
19284.052531988942,-21623.0
19284.05259448618,-23975.0
19284.05265698342,-25732.0
19284.052719480653,-26822.0
19284.05278197789,-28282.0
19284.05284447513,-29566.0
19284.052906972363,-30420.0
19284.0529694696,-31014.0
19284.05303196684,-28786.0
19284.053094464078,-20898.0
19284.053156961312,-12846.0
19284.05321945855,-6143.0
19284.05328195579,4646.0
19284.053344453027,11997.0
19284.05340695026,13038.0
19284.0534694475,16038.0
19284.053531944737,19465.0
19284.053594441975,18798.0
19284.05365693921,16769.0
19284.053719436448,15451.0
19284.053781933686,13051.0
19284.053844430924,8741.0
19284.05390692816,6371.0
19284.053969425397,5998.0
19284.054031922635,4834.0
19284.054094419873,3330.0
19284.054156917107,1762.0
19284.054219414345,-251.0
19284.054281911584,-3233.0
19284.05434440882,-4838.0
19284.054406906056,-4340.0
19284.054469403294,-3984.0
19284.054531900532,-3378.0
19284.05459439777,-1590.0
19284.054656895005,-314.0
19284.054719392243,1647.0
19284.05478188948,4885.0
19284.054844386716,7740.0
19284.054906883954,10212.0
19284.05496938119,12432.0
19284.05503187843,13491.0
19284.055094375664,12625.0
19284.055156872902,11641.0
19284.05521937014,11590.0
19284.05528186738,11115.0
19284.055344364613,9508.0
19284.05540686185,8242.0
19284.05546935909,7349.0
19284.055531856327,6004.0
19284.055594353562,4917.0
19284.0556568508,4965.0
19284.055719348038,5465.0
19284.055781845276,5203.0
19284.05584434251,4598.0
19284.05590683975,4094.0
19284.055969336987,3482.0
19284.056031834225,3303.0
19284.05609433146,4371.0
19284.056156828698,5911.0
19284.056219325936,7210.0
19284.05628182317,8119.0
19284.05634432041,9004.0
19284.056406817646,9748.0
19284.056469314884,10291.0
19284.056531812123,10668.0
19284.056594309357,11107.0
19284.056656806595,11412.0
19284.056719303833,10574.0
19284.056781801068,9404.0
19284.056844298306,8996.0
19284.056906795544,8598.0
19284.056969292782,7809.0
19284.057031790016,7382.0
19284.057094287255,6882.0
19284.057156784493,5716.0
19284.05721928173,4327.0
19284.057281778965,3260.0
19284.057344276203,2309.0
19284.05740677344,1174.0
19284.05746927068,-306.0
19284.057531767914,-1877.0
19284.057594265152,-3514.0
19284.05765676239,-5981.0
19284.05771925963,-8092.0
19284.057781756863,-9353.0
19284.0578442541,-11216.0
19284.05790675134,-12996.0
19284.057969248577,-13738.0
19284.05803174581,-14947.0
19284.05809424305,-16467.0
19284.058156740288,-17015.0
19284.058219237522,-17743.0
19284.05828173476,-19095.0
19284.058344232,-20174.0
19284.058406729237,-21582.0
19284.058469226475,-23614.0
19284.05853172371,-25144.0
19284.058594220947,-26197.0
19284.058656718185,-27256.0
19284.05871921542,-28187.0
19284.058781712658,-29281.0
19284.058844209896,-30444.0
19284.058906707134,-29762.0
19284.05896920437,-24660.0
19284.059031701607,-16413.0
19284.059094198845,-9474.0
19284.059156696083,-856.0
19284.059219193317,8952.0
19284.059281690556,12657.0
19284.059344187794,14659.0
19284.05940668503,18883.0
19284.059469182266,20133.0
19284.059531679504,18480.0
19284.059594176742,16485.0
19284.05965667398,13552.0
19284.059719171215,9654.0
19284.059781668453,5967.0
19284.05984416569,4271.0
19284.05990666293,3428.0
19284.059969160164,2621.0
19284.060031657402,1522.0
19284.06009415464,-473.0
19284.060156651874,-2352.0
19284.060219149113,-3766.0
19284.06028164635,-3982.0
19284.06034414359,-3519.0
19284.060406640823,-3274.0
19284.06046913806,-2063.0
19284.0605316353,-1016.0
19284.060594132538,-153.0
19284.060656629772,3019.0
19284.06071912701,6458.0
19284.06078162425,9185.0
19284.060844121486,11907.0
19284.06090661872,13847.0
19284.06096911596,14108.0
19284.061031613197,13101.0
19284.061094110435,12553.0
19284.06115660767,11884.0
19284.061219104908,10442.0
19284.061281602146,8662.0
19284.061344099384,6692.0
19284.06140659662,5443.0
19284.061469093856,4863.0
19284.061531591095,4138.0
19284.061594088333,4719.0
19284.061656585567,5356.0
19284.061719082805,4736.0
19284.061781580043,4177.0
19284.06184407728,4285.0
19284.061906574516,4421.0
19284.061969071754,4761.0
19284.062031568992,5950.0
19284.062094066227,6672.0
19284.062156563465,6637.0
19284.062219060703,7048.0
19284.06228155794,8036.0
19284.062344055175,9106.0
19284.062406552413,10077.0
19284.06246904965,10790.0
19284.06253154689,11276.0
19284.062594044124,10714.0
19284.062656541362,9342.0
19284.0627190386,8667.0
19284.06278153584,8395.0
19284.062844033073,7529.0
19284.06290653031,6617.0
19284.06296902755,6012.0
19284.063031524787,5204.0
19284.06309402202,4276.0
19284.06315651926,3721.0
19284.063219016498,3536.0
19284.063281513736,2890.0
19284.06334401097,1403.0
19284.06340650821,-379.0
19284.063469005447,-2104.0
19284.06353150268,-4514.0
19284.06359399992,-6971.0
19284.063656497157,-8504.0
19284.063718994395,-10199.0
19284.063781491634,-12303.0
19284.063843988868,-13840.0
19284.063906486106,-14873.0
19284.063968983344,-15754.0
19284.06403148058,-16424.0
19284.064093977817,-16785.0
19284.064156475055,-17647.0
19284.064218972293,-19467.0
19284.064281469527,-21156.0
19284.064343966766,-23047.0
19284.064406464004,-25314.0
19284.06446896124,-26428.0
19284.064531458476,-26949.0
19284.064593955714,-28262.0
19284.064656452952,-29371.0
19284.06471895019,-29932.0
19284.064781447425,-30565.0
19284.064843944663,-27562.0
19284.0649064419,-18984.0
19284.06496893914,-12062.0
19284.065031436374,-4890.0
19284.065093933612,6395.0
19284.06515643085,11839.0
19284.065218928088,13091.0
19284.065281425323,17217.0
19284.06534392256,19165.0
19284.0654064198,18051.0
19284.065468917033,16465.0
19284.06553141427,13918.0
19284.06559391151,10907.0
19284.065656408748,7503.0
19284.065718905982,5254.0
19284.06578140322,4148.0
19284.06584390046,3524.0
19284.065906397696,2701.0
19284.06596889493,740.0
19284.06603139217,-1337.0
19284.066093889407,-3245.0
19284.066156386645,-3862.0
19284.06621888388,-3336.0
19284.066281381118,-3306.0
19284.066343878356,-2173.0
19284.066406375594,-598.0
19284.06646887283,-151.0
19284.066531370067,2033.0
19284.066593867305,5151.0
19284.066656364543,7869.0
19284.066718861777,10523.0
19284.066781359015,12144.0
19284.066843856253,12766.0
19284.06690635349,12371.0
19284.066968850726,11449.0
19284.067031347964,11105.0
19284.067093845202,10543.0
19284.06715634244,9265.0
19284.067218839675,7550.0
19284.067281336913,6155.0
19284.06734383415,5325.0
19284.067406331385,4378.0
19284.067468828624,4667.0
19284.06753132586,5252.0
19284.0675938231,5179.0
19284.067656320334,5135.0
19284.067718817572,4898.0
19284.06778131481,4913.0
19284.06784381205,5431.0
19284.067906309283,6139.0
19284.06796880652,6780.0
19284.06803130376,7056.0
19284.068093800997,7011.0
19284.06815629823,7040.0
19284.06821879547,7368.0
19284.068281292708,8172.0
19284.068343789946,9006.0
19284.06840628718,9725.0
19284.06846878442,10049.0
19284.068531281657,9713.0
19284.068593778895,9275.0
19284.06865627613,9130.0
19284.068718773367,8795.0
19284.068781270606,8107.0
19284.06884376784,7285.0
19284.068906265078,6321.0
19284.068968762316,4998.0
19284.069031259554,3640.0
19284.069093756792,3012.0
19284.069156254027,2377.0
19284.069218751265,1235.0
19284.069281248503,-332.0
19284.069343745738,-2236.0
19284.069406242976,-4421.0
19284.069468740214,-7056.0
19284.069531237452,-9148.0
19284.069593734686,-10647.0
19284.069656231924,-12604.0
19284.069718729163,-14044.0
19284.0697812264,-15016.0
19284.069843723635,-16167.0
19284.069906220873,-16666.0
19284.06996871811,-17177.0
19284.07003121535,-18134.0
19284.070093712584,-18872.0
19284.070156209822,-20285.0
19284.07021870706,-22675.0
19284.0702812043,-24234.0
19284.070343701533,-25507.0
19284.07040619877,-27654.0
19284.07046869601,-29020.0
19284.070531193247,-29586.0
19284.07059369048,-30656.0
19284.07065618772,-31127.0
19284.070718684958,-26972.0
19284.070781182192,-18322.0
19284.07084367943,-11827.0
19284.07090617667,-4695.0
19284.070968673906,6369.0
19284.07103117114,11949.0
19284.07109366838,13035.0
19284.071156165617,17112.0
19284.071218662855,19632.0
19284.07128116009,17698.0
19284.071343657328,15360.0
19284.071406154566,13542.0
19284.071468651804,10277.0
19284.07153114904,6682.0
19284.071593646277,5328.0
19284.071656143515,4494.0
19284.071718640753,3549.0
19284.071781137987,2718.0
19284.071843635225,1120.0
19284.071906132463,-850.0
19284.0719686297,-2915.0
19284.072031126936,-3564.0
19284.072093624174,-3187.0
19284.072156121412,-3559.0
19284.07221861865,-2667.0
19284.072281115885,-990.0
19284.072343613123,-266.0
19284.07240611036,2178.0
19284.0724686076,5849.0
19284.072531104834,8725.0
19284.07259360207,11065.0
19284.07265609931,13042.0
19284.072718596544,13598.0
19284.072781093782,12579.0
19284.07284359102,11512.0
19284.07290608826,10617.0
19284.072968585493,9471.0
19284.07303108273,7922.0
19284.07309357997,5993.0
19284.073156077207,4790.0
19284.073218574442,4193.0
19284.07328107168,3274.0
19284.073343568918,3497.0
19284.073406066156,4546.0
19284.07346856339,4314.0
19284.07353106063,3615.0
19284.073593557867,3634.0
19284.073656055105,3373.0
19284.07371855234,3532.0
19284.073781049578,4703.0
19284.073843546816,6008.0
19284.073906044054,7176.0
19284.07396854129,8180.0
19284.074031038526,9322.0
19284.074093535764,10350.0
19284.074156033,11131.0
19284.074218530237,11639.0
19284.074281027475,11859.0
19284.074343524713,11391.0
19284.07440602195,10009.0
19284.074468519186,8901.0
19284.074531016424,8172.0
19284.074593513662,7195.0
19284.074656010896,6658.0
19284.074718508135,6243.0
19284.074781005373,5512.0
19284.07484350261,4593.0
19284.074905999845,3846.0
19284.074968497083,3193.0
19284.07503099432,2320.0
19284.07509349156,1371.0
19284.075155988794,97.0
19284.075218486032,-1364.0
19284.07528098327,-3123.0
19284.07534348051,-4998.0
19284.075405977743,-6670.0
19284.07546847498,-8388.0
19284.07553097222,-10144.0
19284.075593469457,-11707.0
19284.07565596669,-13177.0
19284.07571846393,-14359.0
19284.075780961168,-15635.0
19284.075843458406,-16610.0
19284.07590595564,-17272.0
19284.07596845288,-18808.0
19284.076030950117,-20642.0
19284.07609344735,-21985.0
19284.07615594459,-23869.0
19284.076218441827,-25989.0
19284.076280939065,-27041.0
19284.0763434363,-28247.0
19284.076405933538,-29773.0
19284.076468430776,-30831.0
19284.076530928014,-31931.0
19284.07659342525,-31858.0
19284.076655922487,-26280.0
19284.076718419725,-17037.0
19284.076780916963,-10544.0
19284.076843414197,-1762.0
19284.076905911435,9314.0
19284.076968408674,13119.0
19284.07703090591,15094.0
19284.077093403146,19664.0
19284.077155900384,20898.0
19284.077218397622,19194.0
19284.07728089486,16649.0
19284.077343392095,13517.0
19284.077405889333,9978.0
19284.07746838657,6155.0
19284.07753088381,4077.0
19284.077593381044,3545.0
19284.07765587828,2648.0
19284.07771837552,1141.0
19284.077780872758,-675.0
19284.077843369992,-2460.0
19284.07790586723,-4164.0
19284.07796836447,-4660.0
19284.078030861703,-4196.0
19284.07809335894,-4115.0
19284.07815585618,-3000.0
19284.078218353417,-1709.0
19284.078280850652,-703.0
19284.07834334789,2433.0
19284.078405845128,6027.0
19284.078468342366,9028.0
19284.0785308396,12073.0
19284.07859333684,14175.0
19284.078655834077,14583.0
19284.078718331315,13413.0
19284.07878082855,12284.0
19284.078843325788,11506.0
19284.078905823026,9817.0
19284.078968320264,7545.0
19284.0790308175,6038.0
19284.079093314736,5011.0
19284.079155811974,3825.0
19284.079218309213,3260.0
19284.079280806447,3915.0
19284.079343303685,4702.0
19284.079405800923,4763.0
19284.079468298158,4305.0
19284.079530795396,4151.0
19284.079593292634,4240.0
19284.079655789872,4100.0
19284.07971828711,5094.0
19284.079780784345,6356.0
19284.079843281583,6730.0
19284.07990577882,7632.0
19284.079968276055,8721.0
19284.080030773293,9142.0
19284.08009327053,9819.0
19284.08015576777,10685.0
19284.080218265004,10854.0
19284.080280762242,10262.0
19284.08034325948,9444.0
19284.08040575672,8387.0
19284.080468253953,7301.0
19284.08053075119,6693.0
19284.08059324843,6246.0
19284.080655745667,5670.0
19284.0807182429,5118.0
19284.08078074014,4666.0
19284.080843237378,3939.0
19284.080905734616,3091.0
19284.08096823185,2465.0
19284.08103072909,1572.0
19284.081093226327,-146.0
19284.081155723565,-2003.0
19284.0812182208,-4082.0
19284.081280718037,-6784.0
19284.081343215275,-8884.0
19284.08140571251,-10362.0
19284.081468209748,-12027.0
19284.081530706986,-13479.0
19284.081593204224,-14135.0
19284.081655701462,-14905.0
19284.081718198697,-16034.0
19284.081780695935,-17175.0
19284.081843193173,-18389.0
19284.081905690407,-19841.0
19284.081968187646,-21793.0
19284.082030684884,-24023.0
19284.08209318212,-25885.0
19284.082155679356,-27683.0
19284.082218176594,-29175.0
19284.082280673832,-29613.0
19284.08234317107,-30431.0
19284.082405668305,-31078.0
19284.082468165543,-29839.0
19284.08253066278,-25176.0
19284.08259316002,-16783.0
19284.082655657254,-9454.0
19284.082718154492,-1924.0
19284.08278065173,8358.0
19284.082843148968,13039.0
19284.082905646203,13397.0
19284.08296814344,17081.0
19284.08303064068,19327.0
19284.083093137917,17045.0
19284.08315563515,15163.0
19284.08321813239,13698.0
19284.083280629628,10012.0
19284.083343126862,6484.0
19284.0834056241,4988.0
19284.08346812134,3963.0
19284.083530618576,2971.0
19284.08359311581,1926.0
19284.08365561305,135.0
19284.083718110287,-2013.0
19284.083780607525,-3895.0
19284.08384310476,-4575.0
19284.083905601998,-4388.0
19284.083968099236,-4455.0
19284.084030596474,-3460.0
19284.08409309371,-1556.0
19284.084155590946,-376.0
19284.084218088185,2146.0
19284.084280585423,6106.0
19284.084343082657,9036.0
19284.084405579895,11320.0
19284.084468077133,13324.0
19284.08453057437,13678.0
19284.084593071606,12603.0
19284.084655568844,11625.0
19284.084718066082,10874.0
19284.08478056332,9569.0
19284.084843060555,7490.0
19284.084905557793,6006.0
19284.08496805503,5196.0
19284.08503055227,3943.0
19284.085093049503,2905.0
19284.08515554674,3445.0
19284.08521804398,4375.0
19284.085280541214,4289.0
19284.085343038452,4210.0
19284.08540553569,4227.0
19284.08546803293,3993.0
19284.085530530163,3708.0
19284.0855930274,4177.0
19284.08565552464,5367.0
19284.085718021877,6103.0
19284.08578051911,6788.0
19284.08584301635,8097.0
19284.085905513588,8827.0
19284.085968010826,9330.0
19284.08603050806,10438.0
19284.0860930053,11022.0
19284.086155502537,10584.0
19284.086217999775,10095.0
19284.08628049701,9350.0
19284.086342994247,8157.0
19284.086405491485,7629.0
19284.086467988724,7143.0
19284.086530485958,6344.0
19284.086592983196,5913.0
19284.086655480434,5535.0
19284.08671797767,4572.0
19284.086780474907,3483.0
19284.086842972145,2733.0
19284.086905469383,1816.0
19284.08696796662,221.0
19284.087030463856,-1636.0
19284.087092961094,-3288.0
19284.087155458332,-5399.0
19284.087217955566,-7677.0
19284.087280452804,-9138.0
19284.087342950043,-10512.0
19284.08740544728,-12205.0
19284.087467944515,-13296.0
19284.087530441753,-14102.0
19284.08759293899,-15530.0
19284.08765543623,-16929.0
19284.087717933464,-17800.0
19284.087780430702,-19415.0
19284.08784292794,-21264.0
19284.087905425178,-22610.0
19284.087967922413,-24395.0
19284.08803041965,-26176.0
19284.08809291689,-27313.0
19284.088155414127,-28176.0
19284.08821791136,-29382.0
19284.0882804086,-30465.0
19284.088342905838,-30844.0
19284.088405403076,-30093.0
19284.08846790031,-24394.0
19284.08853039755,-15143.0
19284.088592894786,-8538.0
19284.08865539202,-29.0
19284.08871788926,10324.0
19284.088780386497,13773.0
19284.088842883735,15030.0
19284.08890538097,19191.0
19284.088967878208,20431.0
19284.089030375446,17659.0
19284.089092872684,15021.0
19284.08915536992,12578.0
19284.089217867157,8516.0
19284.089280364395,4889.0
19284.089342861633,3362.0
19284.089405358867,2710.0
19284.089467856105,1988.0
19284.089530353343,663.0
19284.08959285058,-735.0
19284.089655347816,-2402.0
19284.089717845054,-4122.0
19284.089780342292,-4258.0
19284.08984283953,-3890.0
19284.089905336765,-3857.0
19284.089967834003,-2939.0
19284.09003033124,-1649.0
19284.09009282848,-303.0
19284.090155325714,2445.0
19284.09021782295,6229.0
19284.09028032019,9465.0
19284.090342817428,12115.0
19284.090405314662,14235.0
19284.0904678119,14452.0
19284.09053030914,13128.0
19284.090592806373,12159.0
19284.09065530361,11126.0
19284.09071780085,9338.0
19284.090780298087,7247.0
19284.09084279532,5488.0
19284.09090529256,4144.0
19284.090967789798,2964.0
19284.091030287036,2598.0
19284.09109278427,3316.0
19284.09115528151,4095.0
19284.091217778747,4453.0
19284.091280275985,4376.0
19284.09134277322,3705.0
19284.091405270457,3345.0
19284.091467767696,3732.0
19284.091530264934,4230.0
19284.091592762168,5082.0
19284.091655259406,6246.0
19284.091717756644,7129.0
19284.091780253882,7948.0
19284.091842751117,8922.0
19284.091905248355,9885.0
19284.091967745593,10889.0
19284.092030242828,11597.0
19284.092092740066,11279.0
19284.092155237304,10204.0
19284.092217734542,9283.0
19284.09228023178,8427.0
19284.092342729014,7407.0
19284.092405226253,6768.0
19284.09246772349,6405.0
19284.092530220725,5525.0
19284.092592717963,4425.0
19284.0926552152,3803.0
19284.09271771244,3177.0
19284.092780209674,2079.0
19284.092842706912,1159.0
19284.09290520415,183.0
19284.09296770139,-1990.0
19284.093030198623,-4392.0
19284.09309269586,-6194.0
19284.0931551931,-8178.0
19284.093217690337,-10118.0
19284.09328018757,-11544.0
19284.09334268481,-12659.0
19284.093405182048,-13761.0
19284.093467679286,-15183.0
19284.09353017652,-16239.0
19284.09359267376,-16893.0
19284.093655170996,-18529.0
19284.093717668235,-20049.0
19284.09378016547,-20985.0
19284.093842662707,-23492.0
19284.093905159945,-25947.0
19284.09396765718,-26705.0
19284.094030154418,-28402.0
19284.094092651656,-30202.0
19284.094155148894,-30345.0
19284.09421764613,-30787.0
19284.094280143367,-31345.0
19284.094342640605,-27411.0
19284.094405137843,-18376.0
19284.094467635077,-11246.0
19284.094530132315,-4198.0
19284.094592629554,7059.0
19284.09465512679,13701.0
19284.094717624026,14623.0
19284.094780121264,17570.0
19284.094842618502,20699.0
19284.09490511574,19437.0
19284.094967612975,15900.0
19284.095030110213,14297.0
19284.09509260745,11632.0
19284.09515510469,6428.0
19284.095217601924,3868.0
19284.09528009916,3211.0
19284.0953425964,1651.0
19284.095405093638,125.0
19284.095467590872,-782.0
19284.09553008811,-2316.0
19284.09559258535,-4748.0
19284.095655082587,-5357.0
19284.09571757982,-4587.0
19284.09578007706,-4733.0
19284.095842574297,-3904.0
19284.095905071532,-2011.0
19284.09596756877,-579.0
19284.096030066008,1516.0
19284.096092563246,4792.0
19284.09615506048,8228.0
19284.09621755772,10823.0
19284.096280054957,12913.0
19284.096342552195,14129.0
19284.09640504943,13433.0
19284.096467546668,12221.0
19284.096530043906,11484.0
19284.096592541144,10178.0
19284.09665503838,8123.0
19284.096717535616,6321.0
19284.096780032854,5008.0
19284.096842530093,3557.0
19284.096905027327,2394.0
19284.096967524565,2499.0
19284.097030021803,3110.0
19284.09709251904,3188.0
19284.097155016276,3051.0
19284.097217513514,3051.0
19284.097280010752,2553.0
19284.097342507986,2260.0
19284.097405005225,2967.0
19284.097467502463,3675.0
19284.0975299997,4396.0
19284.09759249694,6371.0
19284.097654994173,8539.0
19284.09771749141,9522.0
19284.09777998865,11340.0
19284.097842485884,13378.0
19284.097904983122,13384.0
19284.09796748036,12898.0
19284.0980299776,12525.0
19284.098092474833,11168.0
19284.09815497207,9336.0
19284.09821746931,8119.0
19284.098279966547,7186.0
19284.09834246378,5774.0
19284.09840496102,4942.0
19284.098467458258,4431.0
19284.098529955496,3408.0
19284.09859245273,2568.0
19284.09865494997,1816.0
19284.098717447207,810.0
19284.098779944445,-451.0
19284.09884244168,-1444.0
19284.098904938917,-2409.0
19284.098967436155,-4014.0
19284.099029933393,-5559.0
19284.099092430628,-6963.0
19284.099154927866,-8852.0
19284.099217425104,-10690.0
19284.09927992234,-12005.0
19284.099342419577,-13287.0
19284.099404916815,-14754.0
19284.099467414053,-15838.0
19284.099529911287,-17254.0
19284.099592408525,-19511.0
19284.099654905764,-20991.0
19284.099717403,-22249.0
19284.099779900236,-24571.0
19284.099842397474,-26068.0
19284.099904894712,-26691.0
19284.09996739195,-28290.0
19284.100029889185,-29673.0
19284.100092386423,-30211.0
19284.10015488366,-31232.0
19284.1002173809,-31988.0
19284.100279878134,-27695.0
19284.100342375372,-18598.0
19284.10040487261,-12521.0
19284.100467369848,-4837.0
19284.100529867083,7311.0
19284.10059236432,12976.0
19284.10065486156,14718.0
19284.100717358797,19519.0
19284.10077985603,22388.0
19284.10084235327,20626.0
19284.100904850508,17436.0
19284.100967347746,15148.0
19284.10102984498,11418.0
19284.101092342218,6054.0
19284.101154839456,3374.0
19284.10121733669,2474.0
19284.10127983393,966.0
19284.101342331167,-589.0
19284.101404828405,-1516.0
19284.10146732564,-2769.0
19284.101529822878,-4764.0
19284.101592320116,-5084.0
19284.101654817354,-4201.0
19284.10171731459,-4330.0
19284.101779811826,-3560.0
19284.101842309065,-2091.0
19284.101904806303,-1275.0
19284.101967303537,858.0
19284.102029800775,4232.0
19284.102092298013,7534.0
19284.10215479525,10437.0
19284.102217292486,13060.0
19284.102279789724,14711.0
19284.102342286962,14185.0
19284.1024047842,13017.0
19284.102467281435,12590.0
19284.102529778673,11083.0
19284.10259227591,8421.0
19284.102654773145,6377.0
19284.102717270383,4925.0
19284.10277976762,3065.0
19284.10284226486,1476.0
19284.102904762098,1810.0
19284.102967259332,2353.0
19284.10302975657,2268.0
19284.10309225381,2828.0
19284.103154751043,2993.0
19284.10321724828,2526.0
19284.10327974552,2578.0
19284.103342242757,2835.0
19284.10340473999,3180.0
19284.10346723723,3648.0
19284.103529734468,4388.0
19284.103592231706,5749.0
19284.10365472894,7233.0
19284.10371722618,9045.0
19284.103779723417,10775.0
19284.103842220655,12135.0
19284.10390471789,12995.0
19284.103967215127,12941.0
19284.104029712365,12129.0
19284.104092209604,11111.0
19284.104154706838,10319.0
19284.104217204076,8987.0
19284.104279701314,7343.0
19284.104342198552,6338.0
19284.104404695787,5297.0
19284.104467193025,3976.0
19284.104529690263,3143.0
19284.104592187497,2656.0
19284.104654684736,1719.0
19284.104717181974,548.0
19284.10477967921,-515.0
19284.10484217645,-2110.0
19284.104904673684,-3764.0
19284.104967170922,-5135.0
19284.10502966816,-6708.0
19284.105092165395,-8521.0
19284.105154662633,-10302.0
19284.10521715987,-11850.0
19284.10527965711,-13217.0
19284.105342154344,-14477.0
19284.105404651582,-15526.0
19284.10546714882,-16350.0
19284.105529646058,-17541.0
19284.105592143293,-19003.0
19284.10565464053,-20422.0
19284.10571713777,-21987.0
19284.105779635007,-23786.0
19284.10584213224,-25379.0
19284.10590462948,-26811.0
19284.105967126718,-28202.0
19284.106029623956,-29304.0
19284.10609212119,-30078.0
19284.10615461843,-31052.0
19284.106217115666,-31009.0
19284.106279612904,-25082.0
19284.10634211014,-15973.0
19284.106404607377,-10140.0
19284.106467104615,-1804.0
19284.10652960185,8940.0
19284.106592099088,12975.0
19284.106654596326,14154.0
19284.106717093564,18212.0
19284.1067795908,20662.0
19284.106842088037,18393.0
19284.106904585275,15357.0
19284.106967082513,13464.0
19284.107029579747,9755.0
19284.107092076985,5509.0
19284.107154574223,3726.0
19284.10721707146,2908.0
19284.107279568696,1679.0
19284.107342065934,265.0
19284.107404563172,-938.0
19284.10746706041,-2736.0
19284.107529557645,-4517.0
19284.107592054883,-4198.0
19284.10765455212,-3851.0
19284.10771704936,-4115.0
19284.107779546594,-2924.0
19284.10784204383,-1753.0
19284.10790454107,-1001.0
19284.107967038308,1678.0
19284.108029535542,5443.0
19284.10809203278,8153.0
19284.10815453002,10550.0
19284.108217027257,13042.0
19284.10827952449,13666.0
19284.10834202173,12687.0
19284.108404518967,12123.0
19284.1084670162,11686.0
19284.10852951344,10077.0
19284.108592010678,7782.0
19284.108654507916,6023.0
19284.10871700515,4414.0
19284.10877950239,2589.0
19284.108841999627,1612.0
19284.108904496865,2045.0
19284.1089669941,2509.0
19284.109029491337,2621.0
19284.109091988576,2982.0
19284.109154485814,3265.0
19284.109216983048,3277.0
19284.109279480286,3603.0
19284.109341977524,4427.0
19284.109404474762,5197.0
19284.109466971997,5776.0
19284.109529469235,6728.0
19284.109591966473,7595.0
19284.10965446371,8139.0
19284.109716960946,9285.0
19284.109779458184,10133.0
19284.109841955422,10345.0
19284.109904452656,10562.0
19284.109966949894,10467.0
19284.110029447133,9917.0
19284.11009194437,9022.0
19284.11015444161,8567.0
19284.110216938843,8239.0
19284.11027943608,7234.0
19284.11034193332,6405.0
19284.110404430554,5757.0
19284.110466927792,4833.0
19284.11052942503,3723.0
19284.11059192227,2800.0
19284.110654419503,2035.0
19284.11071691674,787.0
19284.11077941398,-753.0
19284.110841911217,-2335.0
19284.11090440845,-4158.0
19284.11096690569,-6147.0
19284.111029402928,-8147.0
19284.111091900166,-10063.0
19284.1111543974,-11754.0
19284.11121689464,-13237.0
19284.111279391876,-14568.0
19284.111341889115,-15558.0
19284.11140438635,-16353.0
19284.111466883587,-17392.0
19284.111529380825,-18751.0
19284.111591878063,-20311.0
19284.111654375298,-22025.0
19284.111716872536,-23779.0
19284.111779369774,-25408.0
19284.11184186701,-26766.0
19284.111904364247,-27933.0
19284.111966861485,-29244.0
19284.112029358723,-30457.0
19284.112091855957,-31524.0
19284.112154353195,-31543.0
19284.112216850433,-26207.0
19284.11227934767,-17177.0
19284.112341844906,-10714.0
19284.112404342144,-2182.0
19284.112466839382,8526.0
19284.11252933662,12580.0
19284.112591833855,13931.0
19284.112654331093,17740.0
19284.11271682833,19406.0
19284.11277932557,17469.0
19284.112841822804,14940.0
19284.11290432004,12747.0
19284.11296681728,9423.0
19284.113029314518,5992.0
19284.113091811752,4425.0
19284.11315430899,3976.0
19284.11321680623,3582.0
19284.113279303467,2362.0
19284.1133418007,617.0
19284.11340429794,-1564.0
19284.113466795177,-3633.0
19284.113529292415,-4028.0
19284.11359178965,-4317.0
19284.113654286888,-4790.0
19284.113716784126,-3558.0
19284.11377928136,-2473.0
19284.1138417786,-1638.0
19284.113904275837,1155.0
19284.113966773075,4630.0
19284.11402927031,7707.0
19284.114091767548,10715.0
19284.114154264786,12835.0
19284.114216762024,13165.0
19284.11427925926,12331.0
19284.114341756496,11346.0
19284.114404253734,10557.0
19284.114466750972,9180.0
19284.114529248207,7199.0
19284.114591745445,5795.0
19284.114654242683,4858.0
19284.11471673992,3280.0
19284.114779237156,2031.0
19284.114841734394,2794.0
19284.114904231632,3463.0
19284.11496672887,3105.0
19284.115029226105,2917.0
19284.115091723343,2402.0
19284.11515422058,2015.0
19284.115216717815,2054.0
19284.115279215053,2468.0
19284.11534171229,4057.0
19284.11540420953,5970.0
19284.115466706768,7402.0
19284.115529204002,8995.0
19284.11559170124,10675.0
19284.11565419848,11785.0
19284.115716695713,12649.0
19284.11577919295,13214.0
19284.11584169019,12685.0
19284.115904187427,11396.0
19284.11596668466,9973.0
19284.1160291819,8460.0
19284.116091679138,6908.0
19284.116154176376,5901.0
19284.11621667361,5365.0
19284.11627917085,4891.0
19284.116341668087,4309.0
19284.116404165325,3735.0
19284.11646666256,3371.0
19284.116529159797,2807.0
19284.116591657035,2027.0
19284.116654154273,1120.0
19284.116716651508,-139.0
19284.116779148746,-1823.0
19284.116841645984,-3788.0
19284.116904143222,-5785.0
19284.116966640457,-7625.0
19284.117029137695,-9283.0
19284.117091634933,-11043.0
19284.117154132167,-12724.0
19284.117216629405,-13937.0
19284.117279126644,-15366.0
19284.11734162388,-16995.0
19284.117404121116,-18321.0
19284.117466618354,-19911.0
19284.117529115592,-21927.0
19284.11759161283,-23699.0
19284.117654110065,-25301.0
19284.117716607303,-27040.0
19284.11777910454,-28037.0
19284.11784160178,-28753.0
19284.117904099014,-30003.0
19284.11796659625,-30540.0
19284.11802909349,-31213.0
19284.118091590728,-31090.0
19284.118154087962,-24600.0
19284.1182165852,-15611.0
19284.11827908244,-9712.0
19284.118341579677,-83.0
19284.11840407691,10567.0
19284.11846657415,13637.0
19284.118529071387,15637.0
19284.118591568626,20005.0
19284.11865406586,21063.0
19284.118716563098,18657.0
19284.118779060336,16103.0
19284.118841557574,13385.0
19284.11890405481,9101.0
19284.118966552047,4993.0
19284.119029049285,2810.0
19284.11909154652,1936.0
19284.119154043758,1081.0
19284.119216540996,-409.0
19284.119279038234,-1637.0
19284.11934153547,-3272.0
19284.119404032706,-4939.0
19284.119466529944,-4839.0
19284.119529027183,-4510.0
19284.119591524417,-4109.0
19284.119654021655,-2729.0
19284.119716518893,-1913.0
19284.11977901613,-586.0
19284.119841513366,2530.0
19284.119904010604,5850.0
19284.119966507842,8786.0
19284.12002900508,11894.0
19284.120091502315,14242.0
19284.120153999553,14380.0
19284.12021649679,13242.0
19284.12027899403,12183.0
19284.120341491263,11039.0
19284.1204039885,9289.0
19284.12046648574,7052.0
19284.120528982974,5286.0
19284.120591480212,4050.0
19284.12065397745,2320.0
19284.12071647469,1237.0
19284.120778971926,1842.0
19284.12084146916,2369.0
19284.1209039664,2733.0
19284.120966463637,3311.0
19284.12102896087,3290.0
19284.12109145811,3265.0
19284.121153955348,3106.0
19284.121216452586,3050.0
19284.12127894982,4262.0
19284.12134144706,5274.0
19284.121403944297,6077.0
19284.121466441535,7718.0
19284.12152893877,9097.0
19284.121591436007,9919.0
19284.121653933245,10827.0
19284.121716430484,11492.0
19284.121778927718,11236.0
19284.121841424956,10574.0
19284.121903922194,9652.0
19284.121966419432,8495.0
19284.122028916667,7764.0
19284.122091413905,7125.0
19284.122153911143,6547.0
19284.12221640838,6395.0
19284.122278905616,6060.0
19284.122341402854,5531.0
19284.12240390009,5132.0
19284.122466397326,4294.0
19284.122528894564,3103.0
19284.122591391802,2061.0
19284.12265388904,569.0
19284.122716386275,-1441.0
19284.122778883513,-3357.0
19284.12284138075,-5130.0
19284.12290387799,-6822.0
19284.122966375224,-8595.0
19284.123028872462,-10316.0
19284.1230913697,-11504.0
19284.123153866938,-12605.0
19284.123216364173,-14357.0
19284.12327886141,-15334.0
19284.12334135865,-15961.0
19284.123403855887,-18174.0
19284.12346635312,-19856.0
19284.12352885036,-20826.0
19284.123591347598,-23256.0
19284.123653844836,-25517.0
19284.12371634207,-26394.0
19284.12377883931,-27408.0
19284.123841336546,-28855.0
19284.123903833784,-29752.0
19284.12396633102,-30391.0
19284.124028828257,-31731.0
19284.124091325495,-31353.0
19284.124153822733,-25117.0
19284.124216319968,-17121.0
19284.124278817206,-11241.0
19284.124341314444,-1370.0
19284.12440381168,9144.0
19284.124466308916,12602.0
19284.124528806155,15077.0
19284.124591303393,20039.0
19284.124653800627,21568.0
19284.124716297865,18536.0
19284.124778795103,16162.0
19284.12484129234,14172.0
19284.124903789576,9444.0
19284.124966286814,5194.0
19284.125028784052,3326.0
19284.12509128129,2259.0
19284.125153778525,994.0
19284.125216275763,-470.0
19284.125278773,-1534.0
19284.12534127024,-3173.0
19284.125403767473,-4662.0
19284.12546626471,-4668.0
19284.12552876195,-4539.0
19284.125591259188,-4207.0
19284.125653756422,-3324.0
19284.12571625366,-2386.0
19284.1257787509,-707.0
19284.125841248133,2121.0
19284.12590374537,5627.0
19284.12596624261,8934.0
19284.126028739847,11948.0
19284.126091237085,14200.0
19284.12615373432,14365.0
19284.126216231558,13324.0
19284.126278728796,12623.0
19284.12634122603,11568.0
19284.12640372327,9324.0
19284.126466220507,6983.0
19284.126528717745,5377.0
19284.12659121498,3785.0
19284.126653712217,2072.0
19284.126716209455,1325.0
19284.126778706694,1712.0
19284.126841203928,1978.0
19284.126903701166,1755.0
19284.126966198404,2064.0
19284.127028695642,2228.0
19284.127091192877,1734.0
19284.127153690115,2088.0
19284.127216187353,2583.0
19284.12727868459,2927.0
19284.127341181826,4215.0
19284.127403679064,5753.0
19284.127466176302,7473.0
19284.12752867354,9851.0
19284.127591170774,11612.0
19284.127653668012,12848.0
19284.12771616525,14405.0
19284.127778662485,14882.0
19284.127841159723,13926.0
19284.12790365696,12987.0
19284.1279661542,11961.0
19284.128028651437,9968.0
19284.128091148672,7796.0
19284.12815364591,6548.0
19284.128216143148,5442.0
19284.128278640383,4133.0
19284.12834113762,3439.0
19284.12840363486,2947.0
19284.128466132097,2142.0
19284.12852862933,1192.0
19284.12859112657,674.0
19284.128653623808,-183.0
19284.128716121046,-1848.0
19284.12877861828,-3140.0
19284.12884111552,-4215.0
19284.128903612756,-6007.0
19284.128966109995,-7956.0
19284.12902860723,-9330.0
19284.129091104467,-10672.0
19284.129153601705,-12223.0
19284.129216098943,-13465.0
19284.129278596178,-14655.0
19284.129341093416,-16258.0
19284.129403590654,-17900.0
19284.129466087892,-19675.0
19284.129528585127,-21983.0
19284.129591082365,-23784.0
19284.129653579603,-25241.0
19284.129716076837,-27255.0
19284.129778574075,-28579.0
19284.129841071313,-29233.0
19284.12990356855,-30425.0
19284.129966065786,-31491.0
19284.130028563024,-32097.0
19284.130091060262,-31524.0
19284.1301535575,-25349.0
19284.130216054735,-16861.0
19284.130278551973,-11348.0
19284.13034104921,-1302.0
19284.13040354645,9202.0
19284.130466043684,11825.0
19284.13052854092,14814.0
19284.13059103816,19910.0
19284.130653535398,20665.0
19284.130716032632,18072.0
19284.13077852987,16217.0
19284.13084102711,14076.0
19284.130903524347,9584.0
19284.13096602158,5783.0
19284.13102851882,4388.0
19284.131091016057,3737.0
19284.131153513295,2424.0
19284.13121601053,534.0
19284.131278507768,-761.0
19284.131341005006,-2878.0
19284.131403502244,-5095.0
19284.13146599948,-4942.0
19284.131528496717,-4663.0
19284.131590993955,-4744.0
19284.13165349119,-3299.0
19284.131715988427,-2072.0
19284.131778485666,-815.0
19284.131840982904,2250.0
19284.131903480138,5815.0
19284.131965977376,8719.0
19284.132028474614,11675.0
19284.132090971852,13834.0
19284.132153469087,13689.0
19284.132215966325,12922.0
19284.132278463563,12262.0
19284.1323409608,11110.0
19284.132403458036,9383.0
19284.132465955274,7173.0
19284.132528452512,5449.0
19284.13259094975,4180.0
19284.132653446984,2522.0
19284.132715944223,1886.0
19284.13277844146,2733.0
19284.1328409387,2975.0
19284.132903435933,2749.0
19284.13296593317,2907.0
19284.13302843041,2815.0
19284.133090927644,2851.0
19284.133153424882,3537.0
19284.13321592212,3672.0
19284.13327841936,4413.0
19284.133340916596,5500.0
19284.13340341383,5455.0
19284.13346591107,6464.0
19284.133528408307,8532.0
19284.13359090554,9265.0
19284.13365340278,9652.0
19284.133715900018,10665.0
19284.133778397256,10365.0
19284.13384089449,9361.0
19284.13390339173,9354.0
19284.133965888966,9082.0
19284.134028386205,8350.0
19284.13409088344,8203.0
19284.134153380677,7893.0
19284.134215877915,7239.0
19284.134278375153,6825.0
19284.134340872388,6643.0
19284.134403369626,6096.0
19284.134465866864,5122.0
19284.134528364102,3987.0
19284.134590861337,2539.0
19284.134653358575,651.0
19284.134715855813,-1220.0
19284.13477835305,-2628.0
19284.134840850285,-4358.0
19284.134903347524,-6316.0
19284.13496584476,-7877.0
19284.135028341996,-9693.0
19284.135090839234,-11878.0
19284.135153336472,-13338.0
19284.13521583371,-14428.0
19284.135278330945,-15885.0
19284.135340828183,-17127.0
19284.13540332542,-18106.0
19284.13546582266,-19847.0
19284.135528319894,-21669.0
19284.13559081713,-22767.0
19284.13565331437,-24140.0
19284.135715811608,-25438.0
19284.135778308842,-26337.0
19284.13584080608,-27001.0
19284.13590330332,-27857.0
19284.135965800557,-29389.0
19284.13602829779,-30725.0
19284.13609079503,-30914.0
19284.136153292267,-27123.0
19284.136215789506,-19016.0
19284.13627828674,-12371.0
19284.136340783978,-5059.0
19284.136403281216,5695.0
19284.136465778454,11167.0
19284.13652827569,12136.0
19284.136590772927,16472.0
19284.136653270165,20108.0
19284.136715767403,18438.0
19284.136778264638,15709.0
19284.136840761876,14527.0
19284.136903259114,11242.0
19284.13696575635,6211.0
19284.137028253586,4364.0
19284.137090750824,4091.0
19284.137153248063,2684.0
19284.137215745297,1054.0
19284.137278242535,-246.0
19284.137340739773,-1707.0
19284.13740323701,-4028.0
19284.137465734246,-4856.0
19284.137528231484,-3563.0
19284.137590728722,-3334.0
19284.13765322596,-2931.0
19284.137715723195,-1235.0
19284.137778220433,210.0
19284.13784071767,2322.0
19284.13790321491,5281.0
19284.137965712143,8551.0
19284.13802820938,11550.0
19284.13809070662,13251.0
19284.138153203858,13443.0
19284.138215701092,12660.0
19284.13827819833,11749.0
19284.13834069557,10758.0
19284.138403192803,9265.0
19284.13846569004,7573.0
19284.13852818728,6080.0
19284.138590684517,4726.0
19284.138653181755,3267.0
19284.13871567899,2261.0
19284.138778176228,2814.0
19284.138840673466,3584.0
19284.1389031707,3417.0
19284.13896566794,3327.0
19284.139028165177,3425.0
19284.139090662415,3011.0
19284.13915315965,2732.0
19284.139215656887,3487.0
19284.139278154125,4541.0
19284.139340651363,4855.0
19284.139403148598,5722.0
19284.139465645836,7721.0
19284.139528143074,9128.0
19284.139590640312,10239.0
19284.139653137547,12018.0
19284.139715634785,13275.0
19284.139778132023,12878.0
19284.13984062926,12029.0
19284.139903126495,11593.0
19284.139965623734,10512.0
19284.14002812097,8948.0
19284.14009061821,8076.0
19284.140153115444,7290.0
19284.140215612682,5992.0
19284.14027810992,4992.0
19284.140340607155,4691.0
19284.140403104393,4151.0
19284.14046560163,3104.0
19284.14052809887,2346.0
19284.140590596104,1365.0
19284.140653093342,-433.0
19284.14071559058,-2264.0
19284.140778087818,-3851.0
19284.140840585053,-5624.0
19284.14090308229,-7529.0
19284.14096557953,-9353.0
19284.141028076767,-10995.0
19284.141090574,-12602.0
19284.14115307124,-14076.0
19284.141215568477,-15208.0
19284.141278065716,-16104.0
19284.14134056295,-17227.0
19284.141403060188,-18894.0
19284.141465557426,-20651.0
19284.141528054664,-22445.0
19284.1415905519,-24421.0
19284.141653049137,-26079.0
19284.141715546375,-27132.0
19284.141778043613,-28079.0
19284.141840540848,-29024.0
19284.141903038086,-29916.0
19284.141965535324,-30845.0
19284.142028032562,-31082.0
19284.142090529796,-27805.0
19284.142153027035,-19748.0
19284.142215524273,-12542.0
19284.142278021507,-5524.0
19284.142340518745,5100.0
19284.142403015983,11869.0
19284.14246551322,13828.0
19284.142528010456,17795.0
19284.142590507694,21188.0
19284.142653004932,19827.0
19284.14271550217,16934.0
19284.142777999405,14876.0
19284.142840496643,11149.0
19284.14290299388,6669.0
19284.14296549112,4485.0
19284.143027988353,3290.0
19284.14309048559,2186.0
19284.14315298283,897.0
19284.143215480068,-721.0
19284.143277977302,-2053.0
19284.14334047454,-3677.0
19284.14340297178,-4284.0
19284.143465469017,-3547.0
19284.14352796625,-3397.0
19284.14359046349,-2698.0
19284.143652960727,-1417.0
19284.14371545796,-260.0
19284.1437779552,2188.0
19284.143840452438,5448.0
19284.143902949676,8458.0
19284.143965446914,11063.0
19284.14402794415,13220.0
19284.144090441387,13814.0
19284.144152938625,13110.0
19284.14421543586,12502.0
19284.144277933097,11709.0
19284.144340430335,10225.0
19284.144402927574,8157.0
19284.144465424808,6275.0
19284.144527922046,4582.0
19284.144590419284,3148.0
19284.144652916522,2743.0
19284.144715413757,3355.0
19284.144777910995,3772.0
19284.144840408233,3915.0
19284.14490290547,4235.0
19284.144965402706,4261.0
19284.145027899944,4028.0
19284.14509039718,4073.0
19284.14515289442,4502.0
19284.145215391654,4802.0
19284.145277888892,4650.0
19284.14534038613,5116.0
19284.14540288337,6523.0
19284.145465380603,7716.0
19284.14552787784,9270.0
19284.14559037508,11371.0
19284.145652872314,12456.0
19284.145715369552,12287.0
19284.14577786679,12073.0
19284.145840364028,11703.0
19284.145902861266,10420.0
19284.1459653585,9258.0
19284.14602785574,8644.0
19284.146090352977,7438.0
19284.14615285021,6101.0
19284.14621534745,5444.0
19284.146277844688,4964.0
19284.146340341926,4552.0
19284.14640283916,4159.0
19284.1464653364,3461.0
19284.146527833636,2009.0
19284.146590330874,55.0
19284.14665282811,-1953.0
19284.146715325347,-3972.0
19284.146777822585,-6063.0
19284.146840319823,-7846.0
19284.146902817058,-9535.0
19284.146965314296,-11586.0
19284.147027811534,-13128.0
19284.147090308772,-14129.0
19284.147152806006,-15504.0
19284.147215303245,-16390.0
19284.147277800483,-16732.0
19284.14734029772,-18690.0
19284.147402794955,-20747.0
19284.147465292193,-21836.0
19284.14752778943,-24052.0
19284.147590286666,-26101.0
19284.147652783904,-26663.0
19284.147715281142,-27445.0
19284.14777777838,-28820.0
19284.147840275615,-29533.0
19284.147902772853,-29894.0
19284.14796527009,-29857.0
19284.14802776733,-25455.0
19284.148090264564,-17266.0
19284.1481527618,-11012.0
19284.14821525904,-3461.0
19284.148277756278,6576.0
19284.148340253512,11444.0
19284.14840275075,13297.0
19284.14846524799,17530.0
19284.148527745227,20087.0
19284.14859024246,18727.0
19284.1486527397,16100.0
19284.148715236937,13802.0
19284.148777734175,10600.0
19284.14884023141,6473.0
19284.148902728648,4107.0
19284.148965225886,3358.0
19284.14902772312,2712.0
19284.14909022036,1174.0
19284.149152717597,-415.0
19284.149215214835,-1320.0
19284.149277712073,-2749.0
19284.149340209307,-3456.0
19284.149402706546,-2728.0
19284.149465203784,-2271.0
19284.149527701018,-1666.0
19284.149590198256,-745.0
19284.149652695494,457.0
19284.149715192732,2899.0
19284.149777689967,5797.0
19284.149840187205,8696.0
19284.149902684443,11391.0
19284.14996518168,13248.0
19284.150027678916,13841.0
19284.150090176154,13174.0
19284.150152673392,12200.0
19284.15021517063,11277.0
19284.150277667864,9822.0
19284.150340165103,7703.0
19284.15040266234,5867.0
19284.15046515958,4956.0
19284.150527656813,3475.0
19284.15059015405,2433.0
19284.15065265129,3778.0
19284.150715148528,4628.0
19284.150777645762,4094.0
19284.150840143,4813.0
19284.15090264024,5583.0
19284.150965137473,4664.0
19284.15102763471,4410.0
19284.15109013195,5423.0
19284.151152629187,5737.0
19284.151215126425,5612.0
19284.15127762366,6451.0
19284.151340120898,7748.0
19284.151402618136,8547.0
19284.15146511537,9480.0
19284.15152761261,10994.0
19284.151590109846,12067.0
19284.151652607085,11964.0
19284.15171510432,11628.0
19284.151777601557,11306.0
19284.151840098795,10310.0
19284.151902596033,9277.0
19284.151965093268,8537.0
19284.152027590506,7633.0
19284.152090087744,6801.0
19284.152152584982,6091.0
19284.152215082217,5337.0
19284.152277579455,4974.0
19284.152340076693,4521.0
19284.15240257393,3526.0
19284.152465071165,2299.0
19284.152527568403,610.0
19284.15259006564,-1474.0
19284.15265256288,-3792.0
19284.152715060114,-6065.0
19284.152777557352,-8181.0
19284.15284005459,-10353.0
19284.152902551825,-12240.0
19284.152965049063,-13654.0
19284.1530275463,-14802.0
19284.15309004354,-15977.0
19284.153152540774,-16806.0
19284.15321503801,-17517.0
19284.15327753525,-18900.0
19284.153340032488,-20343.0
19284.153402529722,-21571.0
19284.15346502696,-23374.0
19284.1535275242,-25087.0
19284.153590021437,-26080.0
19284.15365251867,-27295.0
19284.15371501591,-28632.0
19284.153777513147,-29241.0
19284.153840010385,-30052.0
19284.15390250762,-29869.0
19284.153965004858,-24154.0
19284.154027502096,-16048.0
19284.154089999334,-10519.0
19284.15415249657,-1535.0
19284.154214993807,8620.0
19284.154277491045,12089.0
19284.154339988283,14443.0
19284.154402485517,18891.0
19284.154464982756,20389.0
19284.154527479994,18074.0
19284.15458997723,16222.0
19284.154652474466,14541.0
19284.154714971704,10401.0
19284.154777468942,7201.0
19284.154839966177,5824.0
19284.154902463415,4529.0
19284.154964960653,3594.0
19284.15502745789,2328.0
19284.155089955126,874.0
19284.155152452364,-1008.0
19284.155214949602,-2790.0
19284.15527744684,-2954.0
19284.155339944075,-3122.0
19284.155402441313,-3306.0
19284.15546493855,-2048.0
19284.15552743579,-858.0
19284.155589933023,431.0
19284.15565243026,3242.0
19284.1557149275,6625.0
19284.155777424738,9252.0
19284.155839921972,11817.0
19284.15590241921,13896.0
19284.15596491645,13759.0
19284.156027413686,12818.0
19284.15608991092,12210.0
19284.15615240816,11143.0
19284.156214905397,9617.0
19284.15627740263,7866.0
19284.15633989987,6425.0
19284.156402397108,5300.0
19284.156464894346,4249.0
19284.156527391584,4085.0
19284.15658988882,4911.0
19284.156652386057,5615.0
19284.156714883295,5985.0
19284.15677738053,5897.0
19284.156839877767,5405.0
19284.156902375005,5097.0
19284.156964872243,4856.0
19284.157027369478,4581.0
19284.157089866716,4996.0
19284.157152363954,5780.0
19284.157214861192,6174.0
19284.157277358427,6975.0
19284.157339855665,8677.0
19284.157402352903,9964.0
19284.15746485014,10797.0
19284.157527347375,11869.0
19284.157589844614,12314.0
19284.15765234185,11652.0
19284.15771483909,10892.0
19284.157777336324,10356.0
19284.157839833562,9707.0
19284.1579023308,8883.0
19284.15796482804,8291.0
19284.158027325273,7796.0
19284.15808982251,6753.0
19284.15815231975,5804.0
19284.158214816984,5091.0
19284.15827731422,4061.0
19284.15833981146,2643.0
19284.158402308698,925.0
19284.158464805932,-1170.0
19284.15852730317,-3523.0
19284.15858980041,-5680.0
19284.158652297647,-7827.0
19284.15871479488,-9835.0
19284.15877729212,-11287.0
19284.158839789357,-12678.0
19284.158902286596,-13987.0
19284.15896478383,-14762.0
19284.159027281068,-15630.0
19284.159089778306,-16845.0
19284.159152275544,-17859.0
19284.15921477278,-18752.0
19284.159277270017,-20378.0
19284.159339767255,-22374.0
19284.159402264493,-23563.0
19284.159464761728,-24687.0
19284.159527258966,-26282.0
19284.159589756204,-27098.0
19284.159652253442,-27810.0
19284.159714750676,-29184.0
19284.159777247914,-29927.0
19284.159839745153,-27547.0
19284.15990224239,-20079.0
19284.159964739625,-12858.0
19284.160027236863,-6455.0
19284.1600897341,4231.0
19284.160152231336,11453.0
19284.160214728574,13129.0
19284.160277225812,16600.0
19284.16033972305,19427.0
19284.160402220285,18717.0
19284.160464717523,16504.0
19284.16052721476,14486.0
19284.160589712,11820.0
19284.160652209233,7838.0
19284.16071470647,5400.0
19284.16077720371,4433.0
19284.160839700948,3577.0
19284.160902198182,2515.0
19284.16096469542,971.0
19284.16102719266,-341.0
19284.161089689896,-2214.0
19284.16115218713,-3348.0
19284.16121468437,-2558.0
19284.161277181607,-2386.0
19284.161339678845,-1859.0
19284.16140217608,-348.0
19284.161464673318,495.0
19284.161527170556,2125.0
19284.16158966779,4884.0
19284.16165216503,7761.0
19284.161714662267,10307.0
19284.161777159505,12468.0
19284.161839656743,13513.0
19284.161902153977,12938.0
19284.161964651215,12059.0
19284.162027148453,11237.0
19284.162089645688,10092.0
19284.162152142926,8535.0
19284.162214640164,6516.0
19284.162277137402,5079.0
19284.162339634637,4112.0
19284.162402131875,2896.0
19284.162464629113,2919.0
19284.16252712635,4249.0
19284.162589623586,5047.0
19284.162652120824,5004.0
19284.16271461806,5470.0
19284.1627771153,5982.0
19284.162839612534,5415.0
19284.162902109772,5594.0
19284.16296460701,6808.0
19284.16302710425,6870.0
19284.163089601483,6528.0
19284.16315209872,7720.0
19284.16321459596,8725.0
19284.163277093197,8797.0
19284.163339590432,9952.0
19284.16340208767,11620.0
19284.163464584908,11627.0
19284.163527082143,10869.0
19284.16358957938,10927.0
19284.16365207662,10549.0
19284.163714573857,9183.0
19284.16377707109,8594.0
19284.16383956833,8506.0
19284.163902065568,7560.0
19284.163964562806,6428.0
19284.16402706004,5842.0
19284.16408955728,5200.0
19284.164152054516,4007.0
19284.164214551754,3022.0
19284.16427704899,1832.0
19284.164339546227,-231.0
19284.164402043465,-2407.0
19284.164464540703,-4633.0
19284.164527037938,-6946.0
19284.164589535176,-8913.0
19284.164652032414,-10846.0
19284.164714529652,-12629.0
19284.164777026886,-13977.0
19284.164839524125,-14876.0
19284.164902021363,-15642.0
19284.1649645186,-16435.0
19284.165027015835,-16884.0
19284.165089513073,-17769.0
19284.16515201031,-19334.0
19284.16521450755,-20954.0
19284.165277004784,-22809.0
19284.165339502022,-24541.0
19284.16540199926,-25726.0
19284.165464496495,-27055.0
19284.165526993733,-28106.0
19284.16558949097,-28501.0
19284.16565198821,-29394.0
19284.165714485443,-29589.0
19284.16577698268,-24949.0
19284.16583947992,-16619.0
19284.165901977158,-10484.0
19284.165964474392,-2546.0
19284.16602697163,7550.0
19284.16608946887,11601.0
19284.166151966107,13646.0
19284.16621446334,17501.0
19284.16627696058,19045.0
19284.166339457817,17941.0
19284.166401955055,15993.0
19284.16646445229,13786.0
19284.166526949528,10380.0
19284.166589446766,6878.0
19284.166651944004,5059.0
19284.16671444124,4226.0
19284.166776938477,3351.0
19284.166839435715,1815.0
19284.16690193295,415.0
19284.166964430187,-1406.0
19284.167026927425,-3371.0
19284.167089424664,-3502.0
19284.1671519219,-3143.0
19284.167214419136,-2995.0
19284.167276916374,-1598.0
19284.167339413612,-657.0
19284.167401910847,30.0
19284.167464408085,2619.0
19284.167526905323,5772.0
19284.16758940256,8660.0
19284.167651899796,11352.0
19284.167714397034,13323.0
19284.16777689427,13669.0
19284.16783939151,12781.0
19284.167901888744,11923.0
19284.167964385982,11167.0
19284.16802688322,9820.0
19284.16808938046,7898.0
19284.168151877693,6331.0
19284.16821437493,5202.0
19284.16827687217,3840.0
19284.168339369407,3278.0
19284.168401866642,4351.0
19284.16846436388,5113.0
19284.168526861118,5208.0
19284.168589358356,5443.0
19284.16865185559,5386.0
19284.16871435283,5078.0
19284.168776850067,5307.0
19284.1688393473,6026.0
19284.16890184454,6434.0
19284.168964341778,6397.0
19284.169026839016,6739.0
19284.169089336254,7205.0
19284.16915183349,7644.0
19284.169214330726,8985.0
19284.169276827964,10613.0
19284.1693393252,11486.0
19284.169401822437,11761.0
19284.169464319675,11585.0
19284.169526816913,10966.0
19284.169589314148,10429.0
19284.169651811386,9955.0
19284.169714308624,9126.0
19284.169776805862,8216.0
19284.169839303097,7433.0
19284.169901800335,6172.0
19284.169964297573,4985.0
19284.17002679481,4496.0
19284.170089292045,3865.0
19284.170151789283,2776.0
19284.17021428652,1408.0
19284.17027678376,-388.0
19284.170339280994,-2653.0
19284.170401778232,-4821.0
19284.17046427547,-6664.0
19284.17052677271,-8648.0
19284.170589269943,-10704.0
19284.17065176718,-12361.0
19284.17071426442,-13825.0
19284.170776761654,-15270.0
19284.17083925889,-16287.0
19284.17090175613,-16753.0
19284.170964253368,-17420.0
19284.171026750602,-18587.0
19284.17108924784,-19870.0
19284.17115174508,-21416.0
19284.171214242317,-23164.0
19284.17127673955,-24706.0
19284.17133923679,-26118.0
19284.171401734027,-27105.0
19284.171464231265,-27983.0
19284.1715267285,-29198.0
19284.171589225738,-30075.0
19284.171651722976,-29246.0
19284.171714220214,-23743.0
19284.17177671745,-16000.0
19284.171839214687,-9893.0
19284.171901711925,-788.0
19284.171964209163,8714.0
19284.172026706397,12056.0
19284.172089203636,14481.0
19284.172151700874,18594.0
19284.17221419811,19360.0
19284.172276695346,17041.0
19284.172339192584,15297.0
19284.172401689822,13424.0
19284.17246418706,9816.0
19284.172526684295,6595.0
19284.172589181533,5339.0
19284.17265167877,4798.0
19284.172714176006,3441.0
19284.172776673244,1765.0
19284.172839170482,717.0
19284.17290166772,-1082.0
19284.172964164954,-2944.0
19284.173026662193,-2898.0
19284.17308915943,-2535.0
19284.17315165667,-2673.0
19284.173214153903,-1648.0
19284.17327665114,-338.0
19284.17333914838,851.0
19284.173401645618,3476.0
19284.173464142852,6759.0
19284.17352664009,9286.0
19284.17358913733,11699.0
19284.173651634566,13475.0
19284.1737141318,13633.0
19284.17377662904,13115.0
19284.173839126277,12225.0
19284.173901623515,11042.0
19284.17396412075,9656.0
19284.174026617988,7751.0
19284.174089115226,5682.0
19284.17415161246,4273.0
19284.1742141097,3383.0
19284.174276606936,2982.0
19284.174339104175,3801.0
19284.174401601413,4675.0
19284.174464098647,4897.0
19284.174526595885,5397.0
19284.174589093123,5801.0
19284.174651590358,5727.0
19284.174714087596,6048.0
19284.174776584834,6723.0
19284.174839082072,6698.0
19284.174901579307,6726.0
19284.174964076545,7702.0
19284.175026573783,8287.0
19284.17508907102,8973.0
19284.175151568255,10686.0
19284.175214065493,12053.0
19284.17527656273,12364.0
19284.17533905997,12396.0
19284.175401557204,12358.0
19284.175464054442,11459.0
19284.17552655168,10192.0
19284.17558904892,9332.0
19284.175651546153,8445.0
19284.17571404339,7330.0
19284.17577654063,6274.0
19284.175839037867,5557.0
19284.1759015351,4920.0
19284.17596403234,4314.0
19284.176026529578,3634.0
19284.176089026812,2535.0
19284.17615152405,877.0
19284.17621402129,-1057.0
19284.176276518527,-3183.0
19284.17633901576,-5508.0
19284.176401513,-7575.0
19284.176464010237,-9543.0
19284.176526507476,-11478.0
19284.17658900471,-12794.0
19284.176651501948,-13856.0
19284.176713999186,-14873.0
19284.176776496424,-15438.0
19284.17683899366,-16203.0
19284.176901490897,-17347.0
19284.176963988135,-18530.0
19284.177026485373,-20030.0
19284.177088982608,-21685.0
19284.177151479846,-23150.0
19284.177213977084,-24852.0
19284.177276474322,-26107.0
19284.177338971556,-26822.0
19284.177401468794,-28213.0
19284.177463966033,-29247.0
19284.17752646327,-29673.0
19284.177588960505,-28598.0
19284.177651457743,-21960.0
19284.17771395498,-13499.0
19284.17777645222,-7945.0
19284.177838949454,1149.0
19284.177901446692,10735.0
19284.17796394393,13032.0
19284.178026441165,14610.0
19284.178088938403,19351.0
19284.17815143564,20630.0
19284.17821393288,17341.0
19284.178276430113,15395.0
19284.17833892735,13972.0
19284.17840142459,9688.0
19284.178463921828,5986.0
19284.178526419062,4828.0
19284.1785889163,4411.0
19284.17865141354,3064.0
19284.178713910776,1329.0
19284.17877640801,509.0
19284.17883890525,-1247.0
19284.178901402487,-3118.0
19284.178963899725,-2854.0
19284.17902639696,-2393.0
19284.179088894198,-2654.0
19284.179151391436,-1742.0
19284.179213888674,-49.0
19284.17927638591,1415.0
19284.179338883147,3709.0
19284.179401380385,6993.0
19284.17946387762,9646.0
19284.179526374857,11717.0
19284.179588872095,13207.0
19284.179651369333,13114.0
19284.17971386657,12471.0
19284.179776363806,11751.0
19284.179838861044,10539.0
19284.179901358282,8941.0
19284.179963855517,7117.0
19284.180026352755,5907.0
19284.180088849993,5287.0
19284.18015134723,4553.0
19284.180213844465,4542.0
19284.180276341704,5561.0
19284.18033883894,6117.0
19284.18040133618,5924.0
19284.180463833414,5934.0
19284.180526330652,5980.0
19284.18058882789,5684.0
19284.18065132513,5479.0
19284.180713822363,5647.0
19284.1807763196,5936.0
19284.18083881684,5953.0
19284.180901314077,6479.0
19284.18096381131,7653.0
19284.18102630855,8495.0
19284.181088805788,9384.0
19284.181151303026,10655.0
19284.18121380026,11299.0
19284.1812762975,11207.0
19284.181338794737,11188.0
19284.18140129197,11140.0
19284.18146378921,10589.0
19284.181526286447,9831.0
19284.181588783686,9156.0
19284.18165128092,8218.0
19284.181713778158,7193.0
19284.181776275396,6162.0
19284.181838772634,5021.0
19284.18190126987,4250.0
19284.181963767107,3313.0
19284.182026264345,1696.0
19284.182088761583,167.0
19284.182151258818,-1496.0
19284.182213756056,-3856.0
19284.182276253294,-6045.0
19284.182338750532,-7869.0
19284.182401247766,-9935.0
19284.182463745004,-11899.0
19284.182526242243,-13091.0
19284.18258873948,-14061.0
19284.182651236715,-15265.0
19284.182713733953,-15868.0
19284.18277623119,-16286.0
19284.18283872843,-17409.0
19284.182901225664,-18679.0
19284.182963722902,-19999.0
19284.18302622014,-21902.0
19284.18308871738,-23848.0
19284.183151214613,-25233.0
19284.18321371185,-26578.0
19284.18327620909,-28054.0
19284.183338706323,-28976.0
19284.18340120356,-29803.0
19284.1834637008,-30476.0
19284.183526198038,-27394.0
19284.183588695272,-19692.0
19284.18365119251,-13153.0
19284.18371368975,-6525.0
19284.183776186987,4132.0
19284.18383868422,10162.0
19284.18390118146,11208.0
19284.183963678697,15989.0
19284.184026175935,19575.0
19284.18408867317,17774.0
19284.184151170408,16097.0
19284.184213667646,15612.0
19284.184276164884,12478.0
19284.18433866212,7704.0
19284.184401159357,6386.0
19284.184463656595,6644.0
19284.184526153833,4702.0
19284.184588651067,3301.0
19284.184651148305,3098.0
19284.184713645544,1269.0
19284.184776142778,-1620.0
19284.184838640016,-2351.0
19284.184901137254,-1715.0
19284.184963634492,-2525.0
19284.18502613173,-2555.0
19284.185088628965,-1178.0
19284.185151126203,-832.0
19284.18521362344,529.0
19284.185276120676,3892.0
19284.185338617914,6941.0
19284.18540111515,9483.0
19284.18546361239,11988.0
19284.185526109624,13209.0
19284.185588606862,12640.0
19284.1856511041,11891.0
19284.18571360134,11691.0
19284.185776098573,10639.0
19284.18583859581,8853.0
19284.18590109305,7500.0
19284.185963590287,6351.0
19284.186026087522,4948.0
19284.18608858476,4245.0
19284.186151081998,4862.0
19284.186213579236,5539.0
19284.18627607647,5755.0
19284.18633857371,6227.0
19284.186401070947,6657.0
19284.186463568185,6187.0
19284.18652606542,5864.0
19284.186588562658,6766.0
19284.186651059896,7227.0
19284.18671355713,6459.0
19284.18677605437,6741.0
19284.186838551606,7744.0
19284.186901048844,7518.0
19284.18696354608,8017.0
19284.187026043317,9968.0
19284.187088540555,10952.0
19284.187151037793,10952.0
19284.187213535028,11134.0
19284.187276032266,11221.0
19284.187338529504,10456.0
19284.187401026742,9675.0
19284.187463523976,9325.0
19284.187526021215,8527.0
19284.187588518453,7418.0
19284.18765101569,6291.0
19284.187713512925,5342.0
19284.187776010163,4540.0
19284.1878385074,3571.0
19284.18790100464,2562.0
19284.187963501874,1385.0
19284.188025999112,-302.0
19284.18808849635,-2418.0
19284.18815099359,-4633.0
19284.188213490823,-6669.0
19284.18827598806,-8793.0
19284.1883384853,-11146.0
19284.188400982537,-12743.0
19284.18846347977,-13858.0
19284.18852597701,-15404.0
19284.188588474248,-16327.0
19284.188650971482,-16566.0
19284.18871346872,-17625.0
19284.18877596596,-19010.0
19284.188838463197,-19742.0
19284.18890096043,-21044.0
19284.18896345767,-23292.0
19284.189025954907,-24580.0
19284.189088452145,-25670.0
19284.18915094938,-27356.0
19284.189213446618,-28221.0
19284.189275943856,-28637.0
19284.189338441094,-28901.0
19284.18940093833,-27683.0
19284.189463435567,-21747.0
19284.189525932805,-13744.0
19284.189588430043,-8146.0
19284.189650927277,296.0
19284.189713424516,9199.0
19284.189775921754,12004.0
19284.18983841899,13898.0
19284.189900916226,17539.0
19284.189963413464,18697.0
19284.190025910702,16304.0
19284.190088407937,14237.0
19284.190150905175,13168.0
19284.190213402413,9729.0
19284.19027589965,6383.0
19284.19033839689,5738.0
19284.190400894124,5551.0
19284.190463391362,4284.0
19284.1905258886,2612.0
19284.190588385834,1807.0
19284.190650883073,179.0
19284.19071338031,-2154.0
19284.19077587755,-2323.0
19284.190838374783,-1890.0
19284.19090087202,-2031.0
19284.19096336926,-1359.0
19284.191025866498,-355.0
19284.191088363732,1137.0
19284.19115086097,3459.0
19284.19121335821,6419.0
19284.191275855446,9241.0
19284.19133835268,11518.0
19284.19140084992,13203.0
19284.191463347157,13319.0
19284.191525844395,12552.0
19284.19158834163,11971.0
19284.191650838868,11154.0
19284.191713336106,9894.0
19284.191775833344,8210.0
19284.19183833058,6768.0
19284.191900827816,6045.0
19284.191963325055,5134.0
19284.19202582229,4686.0
19284.192088319527,5605.0
19284.192150816765,6502.0
19284.192213314003,6460.0
19284.19227581124,6301.0
19284.192338308476,6469.0
19284.192400805714,6393.0
19284.192463302952,6065.0
19284.192525800187,6368.0
19284.192588297425,7094.0
19284.192650794663,7087.0
19284.1927132919,7153.0
19284.192775789135,7962.0
19284.192838286373,8857.0
19284.19290078361,9521.0
19284.19296328085,10544.0
19284.193025778084,11677.0
19284.193088275322,11744.0
19284.19315077256,11197.0
19284.1932132698,10915.0
19284.193275767033,10489.0
19284.19333826427,9475.0
19284.19340076151,8604.0
19284.193463258747,8160.0
19284.19352575598,7211.0
19284.19358825322,5907.0
19284.193650750458,5065.0
19284.193713247696,4254.0
19284.19377574493,2908.0
19284.19383824217,1356.0
19284.193900739407,-293.0
19284.19396323664,-2529.0
19284.19402573388,-5054.0
19284.194088231117,-7189.0
19284.194150728355,-9058.0
19284.19421322559,-10889.0
19284.194275722828,-12216.0
19284.194338220066,-13223.0
19284.194400717304,-14522.0
19284.19446321454,-15431.0
19284.194525711777,-15809.0
19284.194588209015,-16768.0
19284.194650706253,-18157.0
19284.194713203487,-19282.0
19284.194775700726,-20982.0
19284.194838197964,-23374.0
19284.1949006952,-25147.0
19284.194963192436,-26307.0
19284.195025689674,-27420.0
19284.195088186912,-28277.0
19284.19515068415,-29053.0
19284.195213181385,-29818.0
19284.195275678623,-28217.0
19284.19533817586,-21531.0
19284.1954006731,-14340.0
19284.195463170334,-8131.0
19284.195525667572,1888.0
19284.19558816481,9383.0
19284.195650662048,11016.0
19284.195713159283,14152.0
19284.19577565652,17544.0
19284.19583815376,17036.0
19284.195900650993,15915.0
19284.19596314823,15415.0
19284.19602564547,13081.0
19284.196088142708,9811.0
19284.196150639942,7726.0
19284.19621313718,6491.0
