0,1,2,3,4,5,6,7,8,9,10
18570.095122584007,3155.67333984375,3554.29638671875,3041.8125,2185.032470703125,-20.84112548828125,39.0250129699707,20.31487464904785,79.01985168457031,-38.699485778808594,65535.0
18570.09552259256,3180.21533203125,3556.39599609375,3032.08056640625,2153.117919921875,-14.832823753356934,42.521183013916016,29.926856994628906,84.21578979492188,-27.64112663269043,65535.0
18570.09592260111,3192.841552734375,3558.6962890625,3035.126708984375,2148.72802734375,-19.919635772705078,39.37174987792969,23.204193115234375,79.4958267211914,-46.092308044433594,65535.0
18570.096322609665,3191.2841796875,3567.175048828125,3031.2705078125,2158.234130859375,-28.261106491088867,29.698331832885742,17.860132217407227,71.707275390625,-49.72032928466797,65535.0
18570.09672261822,3184.099853515625,3564.57080078125,3023.69921875,2171.59423828125,-24.184856414794922,27.81212043762207,16.673931121826172,73.79756164550781,-41.14553451538086,65535.0
18570.097122626772,3194.633056640625,3555.8955078125,3029.8427734375,2184.634765625,-23.35792350769043,28.4057559967041,18.71630859375,74.71089935302734,-49.507713317871094,65535.0
18570.097522635322,3194.21484375,3556.462890625,3029.022705078125,2156.362060546875,-30.97925567626953,21.91421890258789,9.116894721984863,67.07862091064453,-44.826446533203125,65535.0
18570.097922643876,3152.571533203125,3548.887451171875,3032.535888671875,2138.1640625,-31.45631980895996,17.5654296875,9.102104187011719,66.83415985107422,-49.3077507019043,65535.0
18570.09832265243,3130.354248046875,3554.359619140625,3033.138671875,2151.747802734375,-13.392414093017578,35.85342025756836,29.030908584594727,82.47357177734375,-50.833858489990234,65535.0
18570.09872266098,3125.5166015625,3552.809814453125,3024.6767578125,2173.154541015625,-14.555634498596191,42.50369644165039,27.128103256225586,81.77384185791016,-42.02986145019531,65535.0
18570.099122669533,3136.75634765625,3544.1240234375,3019.656494140625,2205.1787109375,-28.208171844482422,26.401105880737305,15.420939445495605,73.10720825195312,-47.17210388183594,65535.0
18570.099522678087,3145.61962890625,3538.5478515625,3019.91552734375,2286.269287109375,-18.239713668823242,35.36191940307617,21.433265686035156,78.79642486572266,-37.127891540527344,65535.0
18570.09992268664,3152.853759765625,3550.650146484375,3019.16943359375,2367.527587890625,-16.620441436767578,36.967708587646484,26.723039627075195,80.66853332519531,-34.28989028930664,65535.0
18570.10032269519,3152.89453125,3545.33544921875,3018.135986328125,2395.839599609375,-17.528614044189453,38.657291412353516,27.490413665771484,80.67105102539062,-43.01765060424805,65535.0
18570.100722703744,3162.741943359375,3544.48095703125,3022.005859375,2357.57470703125,-10.088562965393066,46.81379318237305,30.56490135192871,85.8051528930664,-22.879451751708984,65535.0
18570.101122712298,3166.862548828125,3551.14697265625,3023.394775390625,2294.740234375,-23.877281188964844,34.11503601074219,18.696630477905273,75.53258514404297,-50.836368560791016,65535.0
18570.101522720848,3156.279541015625,3548.277587890625,3017.0087890625,2217.032470703125,-16.77997398376465,41.5870475769043,26.735820770263672,81.70667266845703,-42.8177490234375,65535.0
18570.101922729402,3166.172607421875,3550.497802734375,3027.492431640625,2171.748046875,-11.711851119995117,50.285526275634766,31.76511001586914,87.83592224121094,-30.73668098449707,65535.0
18570.102322737956,3164.986572265625,3551.63671875,3033.696044921875,2166.57470703125,-16.981475830078125,44.10022735595703,24.01983642578125,81.54539489746094,-37.66862487792969,65535.0
18570.102722746506,3159.566650390625,3544.296875,3027.74560546875,2173.943115234375,-16.90042495727539,44.54182052612305,25.449567794799805,81.06903839111328,-41.11933517456055,65535.0
18570.10312275506,3181.654541015625,3551.9140625,3016.56396484375,2178.231689453125,-15.625417709350586,48.27495574951172,29.42536163330078,82.79547882080078,-38.78118896484375,65535.0
18570.103522763613,3192.292724609375,3541.58203125,3031.908447265625,2167.35205078125,-13.581336975097656,55.530303955078125,31.57769775390625,87.29466247558594,-39.065101623535156,65535.0
18570.103922772167,3185.856201171875,3545.8447265625,3043.900390625,2145.300537109375,-15.975807189941406,50.00423049926758,27.942138671875,80.55536651611328,-45.86741256713867,65535.0
18570.104322780717,3171.979248046875,3552.841064453125,3035.725830078125,2130.28564453125,-19.485248565673828,43.570621490478516,21.294279098510742,75.79949951171875,-39.48598098754883,65535.0
18570.10472278927,3172.9140625,3553.109375,3025.80126953125,2146.407958984375,-17.328603744506836,49.88535690307617,22.954505920410156,81.44141387939453,-34.17581558227539,65535.0
18570.105122797824,3180.5732421875,3553.464599609375,3024.26025390625,2160.41845703125,-4.142805576324463,63.51658248901367,37.559329986572266,92.68042755126953,-41.48795700073242,65535.0
18570.105522806374,3174.47412109375,3551.505126953125,3027.153564453125,2168.546142578125,-10.576547622680664,60.773773193359375,32.80632019042969,88.1178207397461,-44.62972640991211,65535.0
18570.105922814928,3172.33251953125,3540.1279296875,3015.412841796875,2186.8916015625,-16.72975730895996,51.76297378540039,26.607192993164062,83.19000244140625,-39.370941162109375,65535.0
18570.10632282348,3149.830322265625,3547.070556640625,3010.193603515625,2200.91455078125,-14.055121421813965,56.07753372192383,28.411182403564453,84.44031524658203,-44.90531921386719,65535.0
18570.106722832035,3128.127685546875,3538.162109375,3006.787109375,2227.11376953125,-16.89447021484375,55.843414306640625,24.759828567504883,81.15872192382812,-50.892059326171875,65535.0
18570.107122840585,3111.652587890625,3548.514404296875,2997.22265625,2219.74169921875,-14.429834365844727,59.646697998046875,27.58595848083496,83.62572479248047,-37.60865783691406,65535.0
18570.10752284914,3122.991943359375,3550.85595703125,3016.121826171875,2215.844970703125,-5.1588053703308105,69.60730743408203,37.02445983886719,91.14663696289062,-36.60517501831055,65535.0
18570.107922857693,3133.053955078125,3540.2578125,3030.350830078125,2206.935302734375,-8.747336387634277,67.04645538330078,33.57010269165039,89.04268646240234,-44.42377853393555,65535.0
18570.108322866243,3131.4951171875,3556.77490234375,3014.85107421875,2198.403564453125,-0.3590238094329834,73.83878326416016,43.892066955566406,97.29386901855469,-45.51133728027344,65535.0
18570.108722874797,3137.8369140625,3557.053466796875,3037.379150390625,2205.312744140625,-5.945256233215332,71.27397918701172,35.80184555053711,92.2909927368164,-48.03774642944336,65535.0
18570.10912288335,3129.75244140625,3549.449951171875,3045.776611328125,2203.840576171875,-9.71621322631836,66.53180694580078,32.431705474853516,86.01586151123047,-33.86785888671875,65535.0
18570.109522891904,3109.861328125,3550.214111328125,3053.705078125,2185.931396484375,-12.492749214172363,62.69560623168945,29.450878143310547,86.09046173095703,-30.622844696044922,65535.0
18570.109922900454,3083.521240234375,3560.23095703125,3042.1318359375,2171.290283203125,-10.731620788574219,63.70137023925781,34.4099235534668,86.36534118652344,-44.17832565307617,65535.0
18570.110322909008,3087.195068359375,3550.27197265625,3029.84228515625,2175.650634765625,-3.838149309158325,71.12629699707031,40.98139953613281,93.76387786865234,-44.18537521362305,65535.0
18570.11072291756,3123.27978515625,3544.309814453125,3027.141357421875,2183.84033203125,-12.446913719177246,58.443450927734375,28.338354110717773,85.12068939208984,-42.13496017456055,65535.0
18570.11112292611,3142.03857421875,3544.59765625,3019.620361328125,2190.058837890625,-9.163928985595703,60.57892608642578,33.414432525634766,87.83736419677734,-39.54173278808594,65535.0
18570.111522934665,3158.763427734375,3541.816650390625,3026.63720703125,2202.550537109375,-8.265052795410156,61.73517608642578,35.772151947021484,90.38996887207031,-41.37490463256836,65535.0
18570.11192294322,3151.541259765625,3540.487548828125,3038.989013671875,2199.972900390625,-9.379144668579102,59.26283645629883,32.147769927978516,90.40558624267578,-42.025516510009766,65535.0
18570.112322951773,3144.814453125,3541.550048828125,3037.086669921875,2195.92529296875,-11.230332374572754,58.70217514038086,32.77793502807617,87.7285385131836,-50.9648551940918,65535.0
18570.112722960323,3144.36083984375,3551.767578125,3039.283447265625,2202.357666015625,-15.723342895507812,54.334049224853516,28.487672805786133,84.95563507080078,-45.14926528930664,65535.0
18570.113122968876,3141.106201171875,3551.152587890625,3058.252197265625,2233.742919921875,-9.965086936950684,52.07240295410156,31.185012817382812,86.64093017578125,-32.279483795166016,65535.0
18570.11352297743,3144.08154296875,3547.61328125,3054.879150390625,2247.407470703125,-12.972478866577148,50.724090576171875,30.059011459350586,86.42105102539062,-37.1455078125,65535.0
18570.11392298598,3159.061279296875,3550.59228515625,3047.97265625,2238.341064453125,-11.91013240814209,52.96139144897461,28.70393943786621,83.70564270019531,-43.034080505371094,65535.0
18570.114322994534,3164.307373046875,3565.736328125,3044.4501953125,2226.6376953125,-15.382058143615723,49.93014907836914,28.68880844116211,84.05878448486328,-43.99588394165039,65535.0
18570.114723003087,3151.595703125,3569.04150390625,3049.522705078125,2232.68359375,-8.225418090820312,54.789791107177734,33.48638153076172,89.4937973022461,-41.32277297973633,65535.0
18570.11512301164,3151.1201171875,3567.1611328125,3048.765625,2230.1240234375,-5.421972751617432,59.3229866027832,37.34593963623047,91.0322494506836,-40.00119400024414,65535.0
18570.11552302019,3158.902099609375,3566.366943359375,3047.63818359375,2237.0751953125,-12.416682243347168,44.58544921875,28.562408447265625,85.75198364257812,-42.684078216552734,65535.0
18570.115923028745,3165.751708984375,3560.52294921875,3045.562744140625,2238.509765625,-15.668146133422852,41.09990310668945,28.131635665893555,79.7833480834961,-53.338768005371094,65535.0
18570.1163230373,3162.70751953125,3565.4833984375,3035.24609375,2253.361572265625,-20.214954376220703,39.875160217285156,24.43429946899414,79.52928924560547,-51.79609298706055,65535.0
18570.11672304585,3173.5849609375,3559.7373046875,3043.98974609375,2263.740234375,-23.33478355407715,34.58281707763672,22.186620712280273,76.45973205566406,-36.81489562988281,65535.0
18570.117123054402,3186.783935546875,3546.438232421875,3047.955322265625,2254.66455078125,-15.723670959472656,39.219383239746094,26.870454788208008,82.12480926513672,-37.65608596801758,65535.0
18570.117523062956,3178.99072265625,3543.117431640625,3048.431396484375,2254.5791015625,-9.766449928283691,44.35539627075195,33.71255111694336,88.57989501953125,-49.92197799682617,65535.0
18570.11792307151,3180.765869140625,3546.0703125,3038.2119140625,2254.030029296875,-20.692354202270508,33.40988540649414,24.688720703125,78.1534194946289,-41.75892639160156,65535.0
18570.11832308006,3202.028564453125,3549.02978515625,3040.147216796875,2243.408447265625,-18.54839515686035,33.0039176940918,25.013748168945312,77.8096923828125,-35.714881896972656,65535.0
18570.118723088613,3188.863037109375,3550.919189453125,3036.439697265625,2242.310791015625,-19.303756713867188,35.22612380981445,23.621089935302734,78.0936508178711,-52.25065994262695,65535.0
18570.119123097167,3170.35009765625,3543.732421875,3028.370361328125,2237.995361328125,-19.053760528564453,36.62533950805664,27.863597869873047,80.99126434326172,-50.01276397705078,65535.0
18570.119523105717,3165.982421875,3549.252685546875,3028.1181640625,2249.057373046875,-20.64171028137207,31.849018096923828,21.224199295043945,77.33616638183594,-51.93035125732422,65535.0
18570.11992311427,3151.33203125,3548.48046875,3029.22900390625,2259.772216796875,-23.94827651977539,28.700654983520508,16.32706069946289,74.4224624633789,-35.25954055786133,65535.0
18570.120323122825,3146.519287109375,3540.224365234375,3025.472412109375,2260.57568359375,-16.24519157409668,36.909603118896484,24.695974349975586,82.9424057006836,-43.91859817504883,65535.0
18570.12072313138,3149.95556640625,3551.598388671875,3021.84619140625,2254.40966796875,-10.99105453491211,45.949188232421875,31.50371551513672,85.1031723022461,-46.45763397216797,65535.0
18570.12112313993,3159.069091796875,3550.69775390625,3028.292236328125,2260.150634765625,-16.441205978393555,42.19540786743164,28.59235382080078,82.41634368896484,-34.07866668701172,65535.0
18570.121523148482,3183.58251953125,3544.575439453125,3033.459716796875,2268.013916015625,-15.7867431640625,38.911495208740234,24.42694854736328,79.64112091064453,-37.85508728027344,65535.0
18570.121923157036,3178.629150390625,3546.219482421875,3033.161865234375,2295.66748046875,-18.484451293945312,40.52836608886719,20.993928909301758,77.69248962402344,-41.63742446899414,65535.0
18570.122323165586,3172.302001953125,3533.828369140625,3023.62060546875,2325.241943359375,-12.456782341003418,46.70173263549805,31.17266082763672,85.90888214111328,-34.85635757446289,65535.0
18570.12272317414,3166.161865234375,3545.904052734375,3028.46337890625,2344.631103515625,-14.416669845581055,46.07229232788086,27.733449935913086,84.4023666381836,-29.588106155395508,65535.0
18570.123123182693,3156.064697265625,3534.837158203125,3032.2734375,2349.145751953125,-10.84384536743164,50.17136001586914,30.2786865234375,87.27333068847656,-28.2647762298584,65535.0
18570.123523191247,3154.6611328125,3532.845703125,3026.838134765625,2339.990234375,-4.259665012359619,56.983909606933594,34.546875,91.98029327392578,-44.04253005981445,65535.0
18570.123923199797,3151.544921875,3538.478759765625,3024.7421875,2305.003173828125,-6.195202827453613,59.514869689941406,39.143775939941406,92.05017852783203,-50.606876373291016,65535.0
18570.12432320835,3158.574462890625,3536.11767578125,3012.208740234375,2249.25,0.4218645989894867,69.52143859863281,43.93278121948242,98.67677307128906,-48.665958404541016,65535.0
18570.124723216904,3141.2099609375,3536.100341796875,3017.66357421875,2170.3916015625,2.563955783843994,75.60865020751953,44.800926208496094,102.65521240234375,-34.03744125366211,65535.0
18570.125123225454,3099.515869140625,3536.326171875,3022.4892578125,2138.304931640625,-6.095886707305908,65.4653549194336,40.053836822509766,92.41448211669922,-33.86941146850586,65535.0
18570.125523234008,3089.91455078125,3537.554931640625,3020.6630859375,2142.426025390625,-9.096612930297852,64.18376922607422,38.44853591918945,91.13516998291016,-45.522830963134766,65535.0
18570.125923242562,3104.174072265625,3543.298095703125,3026.07275390625,2156.883544921875,-8.479252815246582,62.91392517089844,35.04391098022461,90.48920440673828,-46.715904235839844,65535.0
18570.126323251116,3102.578857421875,3540.780517578125,3012.59619140625,2175.724609375,2.320328950881958,73.56266784667969,44.738712310791016,102.2786636352539,-41.05330276489258,65535.0
18570.126723259666,3100.788818359375,3538.1005859375,3004.16357421875,2220.852294921875,8.360917091369629,84.87067413330078,51.23279571533203,106.94465637207031,-52.127899169921875,65535.0
18570.12712326822,3088.7294921875,3544.498291015625,3024.813232421875,2234.052001953125,2.5322744846343994,77.66659545898438,44.9561653137207,100.4738540649414,-35.015838623046875,65535.0
18570.127523276773,3128.1181640625,3545.31201171875,3038.663818359375,2204.764892578125,8.203925132751465,84.60386657714844,49.93217849731445,107.2265853881836,-46.35893630981445,65535.0
18570.127923285323,3138.810791015625,3562.396484375,3036.978271484375,2196.00537109375,9.988761901855469,88.47677612304688,53.37838363647461,109.3782958984375,-47.87248611450195,65535.0
18570.128323293877,3123.09814453125,3562.062255859375,3039.11572265625,2200.140380859375,13.049114227294922,88.92523193359375,55.08755111694336,112.69770050048828,-43.661685943603516,65535.0
18570.12872330243,3111.523681640625,3560.56494140625,3040.595947265625,2172.7802734375,6.971546173095703,84.61957550048828,51.29376983642578,105.05555725097656,-35.12287139892578,65535.0
18570.129123310984,3096.827880859375,3558.061279296875,3036.06787109375,2135.3232421875,5.140187740325928,82.34667205810547,48.44879913330078,101.16023254394531,-44.81731033325195,65535.0
18570.129523319534,3107.353271484375,3547.477783203125,3040.050537109375,2113.901611328125,-9.322096824645996,62.254817962646484,31.2407169342041,88.42584228515625,-41.560279846191406,65535.0
18570.129923328088,3097.280029296875,3545.258056640625,3041.3671875,2143.364990234375,-1.372632384300232,71.7308120727539,42.86646270751953,101.53640747070312,-36.78186798095703,65535.0
18570.13032333664,3093.836181640625,3541.33056640625,3039.44189453125,2180.985595703125,1.3133424520492554,72.94650268554688,43.2158203125,99.30552673339844,-55.96322250366211,65535.0
18570.13072334519,3105.412353515625,3547.732421875,3046.12548828125,2204.06494140625,-1.5484986305236816,69.14542388916016,43.17779541015625,98.93833923339844,-50.222251892089844,65535.0
18570.131123353745,3137.902587890625,3547.95947265625,3037.66943359375,2217.574462890625,7.491497993469238,74.62028503417969,48.712646484375,104.48920440673828,-39.3252067565918,65535.0
18570.1315233623,3170.948974609375,3549.519775390625,3043.205078125,2231.47216796875,6.709516525268555,79.86778259277344,50.321475982666016,105.94562530517578,-50.018646240234375,65535.0
18570.131923370853,3153.89208984375,3546.867431640625,3046.563720703125,2243.703125,-5.669976711273193,65.8625259399414,38.14363479614258,94.17972564697266,-46.4854736328125,65535.0
18570.132323379403,3166.1806640625,3542.74658203125,3048.45947265625,2236.28125,0.27489644289016724,64.85713195800781,43.766292572021484,95.95194244384766,-42.3699836730957,65535.0
18570.132723387957,3185.445068359375,3535.0322265625,3056.511474609375,2259.57421875,0.9521900415420532,70.18722534179688,44.96038818359375,100.08260345458984,-32.850738525390625,65535.0
18570.13312339651,3168.8486328125,3546.739013671875,3059.113525390625,2289.7001953125,4.800670146942139,71.9808349609375,47.872676849365234,104.02935791015625,-46.06967544555664,65535.0
18570.13352340506,3166.397216796875,3549.72021484375,3055.505126953125,2298.30029296875,0.6532340049743652,68.48074340820312,44.15303421020508,98.26828002929688,-33.34569549560547,65535.0
18570.133923413614,3168.655517578125,3542.839599609375,3061.268798828125,2296.73046875,-7.031024932861328,59.47468566894531,38.74089813232422,95.72264862060547,-35.539878845214844,65535.0
18570.134323422168,3162.49169921875,3546.9345703125,3078.79296875,2295.959716796875,-4.102266311645508,61.087100982666016,41.40327453613281,94.38417053222656,-43.69742965698242,65535.0
18570.13472343072,3174.66357421875,3548.696533203125,3061.111328125,2303.76123046875,-6.520355701446533,53.633522033691406,37.06655502319336,93.23931121826172,-27.3456974029541,65535.0
18570.13512343927,3187.2958984375,3548.998046875,3055.1376953125,2314.520751953125,-11.106687545776367,48.00438690185547,32.9979133605957,89.8388442993164,-36.38211441040039,65535.0
18570.135523447825,3192.607666015625,3542.16650390625,3056.299072265625,2306.19140625,-10.695696830749512,45.845985412597656,32.76348114013672,86.10345458984375,-41.242210388183594,65535.0
18570.13592345638,3191.2568359375,3551.041748046875,3062.29052734375,2265.203369140625,-1.222311019897461,57.501922607421875,43.071380615234375,97.35848236083984,-38.0382194519043,65535.0
18570.13632346493,3177.2724609375,3553.37451171875,3066.29638671875,2237.85791015625,6.423052787780762,65.58934020996094,51.532100677490234,103.11912536621094,-40.55149841308594,65535.0
18570.136723473483,3174.9140625,3545.60986328125,3059.216552734375,2238.9609375,0.7145957946777344,54.8621711730957,42.19478225708008,96.52051544189453,-42.442039489746094,65535.0
18570.137123482036,3176.1728515625,3544.453125,3052.334228515625,2229.02392578125,-13.500960350036621,39.8592529296875,31.132646560668945,85.65850830078125,-44.67723846435547,65535.0
18570.13752349059,3165.563720703125,3536.539306640625,3048.001953125,2212.053955078125,-20.1640567779541,33.200889587402344,24.523603439331055,78.5140380859375,-37.12339782714844,65535.0
18570.13792349914,3161.62451171875,3533.3583984375,3048.839111328125,2249.7470703125,-14.923254013061523,39.3538818359375,29.51034164428711,83.72315979003906,-24.549009323120117,65535.0
18570.138323507694,3182.131103515625,3532.261962890625,3043.138671875,2274.877197265625,-14.343228340148926,38.32572555541992,26.311790466308594,84.35432434082031,-29.203105926513672,65535.0
18570.138723516247,3211.964599609375,3525.219482421875,3041.80078125,2273.798095703125,-19.06653594970703,34.248291015625,27.22633171081543,80.66573333740234,-40.3516845703125,65535.0
18570.139123524797,3220.31103515625,3537.76904296875,3037.940185546875,2248.5185546875,-1.1471827030181885,53.376251220703125,45.5296630859375,99.07057189941406,-33.953086853027344,65535.0
18570.13952353335,3201.419189453125,3543.955078125,3040.544677734375,2208.726318359375,-20.99540138244629,35.40736389160156,25.49302101135254,78.62947845458984,-43.50118637084961,65535.0
18570.139923541905,3194.35107421875,3542.2197265625,3040.58740234375,2188.5283203125,-24.161104202270508,29.542585372924805,22.508317947387695,79.2467269897461,-44.631858825683594,65535.0
18570.14032355046,3191.58740234375,3539.115234375,3038.43408203125,2176.703857421875,-12.459285736083984,41.20227813720703,34.14859390258789,86.96363830566406,-40.990211486816406,65535.0
18570.14072355901,3178.884033203125,3540.253662109375,3036.46826171875,2166.791748046875,-13.048678398132324,42.7424430847168,30.359867095947266,84.59994506835938,-30.217971801757812,65535.0
18570.141123567562,3189.3544921875,3525.720703125,3038.185302734375,2166.093994140625,-14.985998153686523,41.92181396484375,27.500226974487305,83.26100158691406,-48.52900695800781,65535.0
18570.141523576116,3175.259521484375,3532.86669921875,3043.142333984375,2180.68212890625,-12.380104064941406,45.087860107421875,31.70649528503418,85.45921325683594,-37.647491455078125,65535.0
18570.141923584666,3177.038818359375,3542.54931640625,3047.021728515625,2171.764404296875,-13.56550121307373,44.533470153808594,30.57028579711914,83.77313995361328,-48.714691162109375,65535.0
18570.14232359322,3176.80908203125,3544.685546875,3044.35107421875,2180.732177734375,2.053891897201538,61.29732894897461,45.691612243652344,100.34814453125,-42.97825241088867,65535.0
18570.142723601773,3167.23974609375,3546.01318359375,3038.81640625,2186.6162109375,6.545126438140869,70.64322662353516,51.59516906738281,106.2622299194336,-29.752944946289062,65535.0
18570.143123610327,3163.65966796875,3548.447265625,3036.771728515625,2190.572998046875,-2.797145128250122,60.065216064453125,38.109466552734375,95.1568374633789,-39.84223556518555,65535.0
18570.143523618877,3147.4677734375,3553.66845703125,3029.709228515625,2182.529296875,2.9309275150299072,64.10187530517578,43.42374801635742,98.9200210571289,-43.104286193847656,65535.0
18570.14392362743,3130.19970703125,3548.024658203125,3024.75048828125,2174.96533203125,-3.737483024597168,59.084842681884766,41.58453369140625,89.82166290283203,-44.45950698852539,65535.0
18570.144323635985,3121.436767578125,3554.819580078125,3037.833251953125,2168.55517578125,-5.144637107849121,59.593318939208984,38.858551025390625,92.24180603027344,-44.84244918823242,65535.0
18570.144723644535,3092.2509765625,3550.02197265625,3026.77783203125,2150.8916015625,-3.818591594696045,63.841339111328125,42.98783493041992,99.03739929199219,-47.86016845703125,65535.0
18570.14512365309,3076.52294921875,3552.2197265625,3034.138671875,2137.40380859375,4.085774898529053,72.98209381103516,47.8391227722168,103.15493774414062,-34.64387130737305,65535.0
18570.145523661642,3081.49365234375,3557.247314453125,3042.876220703125,2129.351318359375,-7.873203277587891,63.79171371459961,33.92350387573242,90.73754119873047,-38.583614349365234,65535.0
18570.145923670196,3074.13818359375,3550.80810546875,3033.347900390625,2127.20068359375,-3.309175491333008,63.70054244995117,38.899593353271484,93.67375183105469,-40.06808090209961,65535.0
18570.146323678746,3061.4560546875,3542.922607421875,3027.825927734375,2118.912109375,3.43196702003479,77.3133316040039,47.15127182006836,100.96249389648438,-38.370548248291016,65535.0
18570.1467236873,3058.315673828125,3547.626708984375,3026.57177734375,2095.064208984375,7.599290370941162,84.55337524414062,51.99860763549805,104.67151641845703,-33.66743850708008,65535.0
18570.147123695853,3070.979248046875,3549.302490234375,3028.55859375,2060.52099609375,-3.289275884628296,70.6703109741211,39.311187744140625,94.85025024414062,-30.713037490844727,65535.0
18570.147523704403,3075.844482421875,3548.0859375,3029.090087890625,2049.455078125,3.6230671405792236,80.03009033203125,46.299102783203125,102.73332214355469,-41.73307800292969,65535.0
18570.147923712957,3082.531494140625,3555.03515625,3030.071044921875,2052.6611328125,5.33779239654541,82.74976348876953,47.989601135253906,103.34722137451172,-39.127593994140625,65535.0
18570.14832372151,3087.55615234375,3551.275634765625,3034.284423828125,2054.269287109375,1.5104836225509644,77.10338592529297,46.668033599853516,100.13359069824219,-35.0522346496582,65535.0
18570.148723730064,3073.024169921875,3546.072509765625,3023.564697265625,2061.042236328125,-1.0223119258880615,72.6402359008789,43.808563232421875,95.12386322021484,-39.87174987792969,65535.0
18570.149123738614,3053.613037109375,3545.88623046875,3029.443359375,2046.3135986328125,-3.0091946125030518,72.07377624511719,42.58845138549805,97.46533203125,-58.36955642700195,65535.0
18570.149523747168,3061.38330078125,3547.350830078125,3034.0498046875,2031.5155029296875,-7.44680643081665,68.52899932861328,37.12457275390625,90.03462219238281,-47.168670654296875,65535.0
18570.149923755722,3077.39013671875,3555.259765625,3043.911865234375,2020.008056640625,-6.079693794250488,67.90071105957031,35.4785041809082,88.70635223388672,-43.41255187988281,65535.0
18570.150323764272,3079.331298828125,3545.204345703125,3044.025390625,2026.623779296875,4.3556084632873535,73.43550109863281,42.52865219116211,96.19061279296875,-40.92034149169922,65535.0
18570.150723772826,3078.0,3545.303955078125,3028.651611328125,2047.487060546875,1.0970829725265503,74.30748748779297,43.75300598144531,99.40092468261719,-40.27078628540039,65535.0
18570.15112378138,3082.2919921875,3551.18408203125,3030.766357421875,2051.195556640625,-4.894550800323486,64.90677642822266,36.88563919067383,93.53068542480469,-49.88716125488281,65535.0
18570.151523789933,3084.1171875,3549.45361328125,3030.67333984375,2063.137451171875,-2.084679365158081,69.18771362304688,41.16397476196289,96.73811340332031,-58.40618896484375,65535.0
18570.151923798483,3086.016357421875,3556.270263671875,3046.2783203125,2072.557861328125,-11.167293548583984,59.583065032958984,34.008419036865234,89.85064697265625,-37.23003005981445,65535.0
18570.152323807037,3102.088623046875,3558.16796875,3052.118408203125,2107.24365234375,-8.264720916748047,57.44120788574219,31.41812515258789,87.23978424072266,-35.42357635498047,65535.0
18570.15272381559,3125.823974609375,3552.455322265625,3055.786865234375,2186.489990234375,2.7673797607421875,71.61995697021484,45.060340881347656,100.11103820800781,-38.24327087402344,65535.0
18570.15312382414,3152.247314453125,3557.60595703125,3060.346923828125,2295.713134765625,-1.8902546167373657,67.83262634277344,41.90283966064453,94.73741912841797,-31.97977066040039,65535.0
18570.153523832694,3150.70263671875,3551.6884765625,3054.26611328125,2343.100830078125,-5.281703948974609,60.157222747802734,37.6600227355957,96.06901550292969,-27.002899169921875,65535.0
18570.153923841248,3137.421875,3545.970703125,3055.646728515625,2334.901123046875,-3.79388427734375,63.63405990600586,38.683319091796875,97.66901397705078,-41.83620834350586,65535.0
18570.1543238498,3118.33984375,3546.80810546875,3059.939697265625,2322.90576171875,-14.180377960205078,50.1797981262207,30.11754035949707,85.89360046386719,-46.21238327026367,65535.0
18570.15472385835,3111.521728515625,3550.8271484375,3052.687744140625,2295.893798828125,-7.275716304779053,52.581092834472656,34.59880065917969,90.05880737304688,-30.78139305114746,65535.0
18570.155123866905,3116.497802734375,3547.49609375,3051.87939453125,2277.966552734375,-16.300018310546875,43.50251770019531,26.966520309448242,81.91580963134766,-28.178516387939453,65535.0
18570.15552387546,3114.74609375,3545.887451171875,3057.2626953125,2254.18359375,-8.169480323791504,48.68510055541992,34.763282775878906,90.19779205322266,-32.9277229309082,65535.0
18570.15592388401,3127.293212890625,3550.895263671875,3054.808837890625,2245.02197265625,-4.764843463897705,54.70838928222656,36.4879150390625,91.03587341308594,-43.04275131225586,65535.0
18570.156323892563,3137.26953125,3550.41064453125,3045.01318359375,2246.1474609375,-8.594990730285645,56.66764831542969,36.39934158325195,91.2489242553711,-42.540771484375,65535.0
18570.156723901116,3122.357421875,3550.473388671875,3052.122314453125,2265.648193359375,-7.058734893798828,47.846412658691406,34.33717346191406,89.22671508789062,-39.15180206298828,65535.0
18570.15712390967,3125.169189453125,3553.94970703125,3059.734619140625,2290.950927734375,-11.044367790222168,46.72903823852539,31.376371383666992,88.74942779541016,-45.12411880493164,65535.0
18570.15752391822,3133.1396484375,3533.319580078125,3045.588134765625,2294.074462890625,-10.747639656066895,46.794124603271484,33.68960952758789,88.35370635986328,-37.02611541748047,65535.0
18570.157923926774,3138.70947265625,3546.796630859375,3045.416015625,2294.206298828125,-16.358003616333008,38.963104248046875,27.265762329101562,81.96526336669922,-31.740835189819336,65535.0
18570.158323935328,3126.86962890625,3545.017822265625,3049.338623046875,2300.86669921875,-10.971606254577637,43.1110954284668,30.107101440429688,87.0259017944336,-38.24636459350586,65535.0
18570.158723943878,3130.158447265625,3540.898681640625,3042.5615234375,2274.199462890625,-7.653627872467041,44.361000061035156,36.4046630859375,88.2896957397461,-36.271331787109375,65535.0
18570.15912395243,3125.53857421875,3547.578857421875,3040.323974609375,2260.872314453125,-13.29923152923584,43.41445541381836,30.078245162963867,84.90702056884766,-30.777706146240234,65535.0
18570.159523960985,3121.9775390625,3545.099609375,3036.00439453125,2254.423828125,-11.157540321350098,47.60028076171875,30.076175689697266,86.56645965576172,-40.3403434753418,65535.0
18570.15992396954,3118.796875,3558.5263671875,3038.76123046875,2230.617919921875,-10.5736665725708,44.531070709228516,31.900623321533203,84.9612045288086,-38.0162467956543,65535.0
18570.16032397809,3126.6015625,3560.026123046875,3046.274658203125,2221.65869140625,-13.908158302307129,46.61384582519531,30.551591873168945,84.07220458984375,-29.6038875579834,65535.0
18570.160723986643,3130.695556640625,3543.872314453125,3026.60546875,2237.452392578125,-5.939727783203125,51.045257568359375,37.440242767333984,91.04816436767578,-37.003475189208984,65535.0
18570.161123995196,3141.2587890625,3550.483642578125,3039.974853515625,2230.817626953125,-12.133794784545898,46.84255599975586,31.800344467163086,89.38021087646484,-53.61103820800781,65535.0
18570.161524003746,3141.834716796875,3544.6640625,3047.990966796875,2231.437744140625,-15.883169174194336,43.17497634887695,29.51343536376953,85.33152770996094,-43.42477798461914,65535.0
18570.1619240123,3141.259033203125,3545.463623046875,3039.86962890625,2234.89453125,-16.900157928466797,43.0593376159668,26.978973388671875,82.57588958740234,-37.674652099609375,65535.0
18570.162324020854,3141.895263671875,3543.013916015625,3038.53271484375,2235.695556640625,-11.777448654174805,52.33221435546875,33.0406379699707,87.24066162109375,-40.55181884765625,65535.0
18570.162724029407,3127.736328125,3547.072998046875,3029.57470703125,2227.01953125,-10.290596008300781,53.255130767822266,32.868038177490234,88.10102081298828,-31.360158920288086,65535.0
18570.163124037957,3119.76904296875,3534.805419921875,3027.664306640625,2208.912353515625,-6.194174766540527,59.543190002441406,36.497745513916016,92.21495819091797,-34.252708435058594,65535.0
18570.16352404651,3103.52197265625,3535.552978515625,3029.637451171875,2218.603515625,-4.8951263427734375,64.41123962402344,39.40370178222656,92.6972427368164,-34.534080505371094,65535.0
18570.163924055065,3063.345947265625,3544.299560546875,3028.945068359375,2242.35498046875,-7.090029239654541,62.036468505859375,35.892112731933594,89.65355682373047,-32.02434158325195,65535.0
18570.164324063615,3048.785400390625,3542.182373046875,3016.828857421875,2252.48876953125,7.311039447784424,73.64221954345703,47.623722076416016,102.8509292602539,-30.412809371948242,65535.0
18570.16472407217,3067.81787109375,3547.146728515625,3021.501953125,2254.924560546875,7.8120245933532715,77.91683197021484,47.64007568359375,103.55415344238281,-53.98949432373047,65535.0
18570.165124080722,3076.246337890625,3547.384033203125,3008.703369140625,2255.462646484375,4.131487846374512,76.38639831542969,46.461639404296875,101.99075317382812,-48.544273376464844,65535.0
18570.165524089276,3079.136474609375,3544.299560546875,3018.88916015625,2258.609619140625,-4.57930326461792,66.19673919677734,39.49900817871094,93.01188659667969,-49.66044235229492,65535.0
18570.165924097826,3083.82666015625,3543.234619140625,3033.29052734375,2267.05712890625,2.315016508102417,74.81526947021484,43.785682678222656,100.88898468017578,-51.659156799316406,65535.0
18570.16632410638,3092.9775390625,3553.577880859375,3024.1044921875,2291.326416015625,8.314275741577148,86.60589599609375,50.26348114013672,108.5718994140625,-41.05058670043945,65535.0
18570.166724114933,3092.58251953125,3550.6630859375,3030.970947265625,2299.220947265625,16.389808654785156,95.98152160644531,60.27301788330078,115.14337921142578,-24.97449493408203,65535.0
18570.167124123484,3087.449462890625,3557.610595703125,3030.213134765625,2280.332275390625,10.750585556030273,90.88551330566406,55.205665588378906,110.36480712890625,-19.64295196533203,65535.0
18570.167524132037,3101.721435546875,3555.2998046875,3038.6435546875,2266.32763671875,14.576314926147461,94.7829360961914,56.06333541870117,111.95110321044922,-40.17169189453125,65535.0
18570.16792414059,3115.81201171875,3555.53515625,3042.2509765625,2247.0478515625,12.06478500366211,91.94758605957031,54.02415466308594,105.75001525878906,-43.005531311035156,65535.0
18570.168324149145,3100.191162109375,3553.60791015625,3034.146728515625,2216.986572265625,4.596926212310791,83.49691772460938,48.190162658691406,103.75070190429688,-44.085750579833984,65535.0
18570.168724157695,3080.9638671875,3546.526123046875,3035.240966796875,2195.580078125,16.712499618530273,96.82408142089844,62.28910446166992,115.65496826171875,-34.24449920654297,65535.0
18570.16912416625,3102.70458984375,3550.9287109375,3041.042236328125,2186.689208984375,11.283917427062988,89.61237335205078,53.943138122558594,108.22489166259766,-36.371517181396484,65535.0
18570.169524174802,3126.16845703125,3559.403076171875,3033.517578125,2162.2998046875,0.12662893533706665,74.01991271972656,41.06233215332031,93.9948501586914,-37.07659149169922,65535.0
18570.169924183352,3127.798828125,3550.377685546875,3033.05517578125,2146.16064453125,-2.606910228729248,74.50955963134766,42.27350616455078,96.41959381103516,-33.96411895751953,65535.0
18570.170324191906,3098.1943359375,3546.425048828125,3034.7919921875,2158.8232421875,2.902399778366089,78.7210693359375,45.09880828857422,102.83137512207031,-34.5810546875,65535.0
18570.17072420046,3096.030517578125,3533.1259765625,3039.67529296875,2177.288818359375,-3.1186904907226562,71.85460662841797,40.811309814453125,98.59431457519531,-48.94644546508789,65535.0
18570.171124209013,3117.332275390625,3538.153564453125,3024.8623046875,2188.802490234375,-5.311252593994141,62.27117156982422,35.161643981933594,91.99542999267578,-42.671302795410156,65535.0
18570.171524217563,3139.776611328125,3545.31201171875,3031.740966796875,2233.600341796875,-4.154409885406494,61.42429733276367,39.03813171386719,92.0103530883789,-42.40373611450195,65535.0
18570.171924226117,3150.563720703125,3546.099853515625,3039.83056640625,2264.673095703125,-7.923523902893066,65.27264404296875,37.36064147949219,88.27928161621094,-30.98756980895996,65535.0
18570.17232423467,3158.897705078125,3550.607177734375,3032.831787109375,2281.424072265625,-4.953375339508057,62.35132598876953,35.26927947998047,92.7321548461914,-35.07118606567383,65535.0
18570.17272424322,3151.3486328125,3552.20068359375,3017.963623046875,2302.7724609375,5.435262203216553,71.94690704345703,46.799537658691406,104.30845642089844,-36.68490219116211,65535.0
18570.173124251774,3126.087890625,3549.627197265625,3029.601806640625,2299.85595703125,-4.169363021850586,62.466773986816406,37.65003204345703,92.62256622314453,-39.02565383911133,65535.0
18570.173524260328,3114.83642578125,3551.3740234375,3038.962646484375,2290.129638671875,-12.125349998474121,55.288963317871094,28.63026237487793,89.1115951538086,-44.70255661010742,65535.0
18570.173924268882,3121.97216796875,3546.527587890625,3039.052001953125,2278.183837890625,-3.7405571937561035,59.30057907104492,36.42871856689453,92.6054916381836,-39.59967803955078,65535.0
18570.174324277432,3135.100830078125,3555.7685546875,3041.57470703125,2228.905517578125,-5.188974380493164,55.29399490356445,39.937049865722656,90.52719116210938,-45.9293327331543,65535.0
18570.174724285986,3144.30712890625,3559.808349609375,3048.369873046875,2168.70068359375,-13.686860084533691,44.872276306152344,30.676368713378906,80.50580596923828,-50.86177444458008,65535.0
18570.17512429454,3157.2998046875,3558.0419921875,3052.778076171875,2166.614013671875,-9.575200080871582,48.04588317871094,32.2111930847168,86.46379852294922,-54.230506896972656,65535.0
18570.17552430309,3157.98974609375,3558.93359375,3045.128662109375,2169.37744140625,-16.97993278503418,40.393409729003906,23.567543029785156,81.79673767089844,-57.5344123840332,65535.0
18570.175924311643,3141.5908203125,3564.53173828125,3046.389892578125,2205.9072265625,-13.847407341003418,39.45973205566406,26.168182373046875,82.4008560180664,-51.64033508300781,65535.0
18570.176324320197,3128.453125,3561.52392578125,3044.948486328125,2241.36865234375,-12.827423095703125,44.766788482666016,32.17797088623047,88.1651840209961,-37.61106491088867,65535.0
18570.17672432875,3116.11669921875,3557.2294921875,3044.7919921875,2262.104736328125,-15.079498291015625,40.563533782958984,27.93998146057129,83.89155578613281,-45.21471405029297,65535.0
18570.1771243373,3116.2607421875,3553.785400390625,3047.064697265625,2267.02490234375,-18.632614135742188,37.09674835205078,25.68157196044922,79.6996841430664,-43.65878677368164,65535.0
18570.177524345854,3138.14892578125,3558.501953125,3052.491943359375,2248.748291015625,-21.463237762451172,31.928739547729492,24.048978805541992,75.346435546875,-36.319793701171875,65535.0
18570.177924354408,3133.361572265625,3549.3173828125,3050.203125,2227.4306640625,-16.40471649169922,35.38253402709961,25.504703521728516,82.34007263183594,-35.51017761230469,65535.0
18570.178324362958,3136.476806640625,3533.697021484375,3052.989990234375,2252.61767578125,-13.64881706237793,38.09288024902344,26.832000732421875,84.51763916015625,-29.528118133544922,65535.0
18570.17872437151,3139.229248046875,3539.52783203125,3049.782470703125,2302.09423828125,-21.229930877685547,34.25047302246094,21.337186813354492,78.07693481445312,-40.90797805786133,65535.0
18570.179124380065,3130.523193359375,3546.774658203125,3044.959228515625,2357.6982421875,-22.52712631225586,29.22056007385254,20.19676399230957,73.53975677490234,-54.31533432006836,65535.0
18570.17952438862,3119.743896484375,3532.993408203125,3055.1640625,2383.84814453125,-20.917346954345703,30.627782821655273,22.145200729370117,76.06397247314453,-34.38648986816406,65535.0
18570.17992439717,3120.672119140625,3536.066650390625,3045.86279296875,2375.556640625,-21.39995574951172,35.65555191040039,23.641521453857422,77.28988647460938,-42.542694091796875,65535.0
18570.180324405723,3121.773681640625,3537.50830078125,3044.3857421875,2362.64013671875,-26.03241539001465,31.70937156677246,18.163711547851562,72.25160217285156,-35.644615173339844,65535.0
18570.180724414276,3131.62890625,3530.77587890625,3043.478759765625,2381.50830078125,-19.600078582763672,33.86349105834961,21.109851837158203,76.01984405517578,-37.694644927978516,65535.0
18570.181124422827,3141.57568359375,3530.85888671875,3039.328125,2386.625,-14.98642635345459,42.37992858886719,25.058822631835938,83.89058685302734,-32.72850036621094,65535.0
18570.18152443138,3126.0576171875,3544.826171875,3044.09326171875,2351.66943359375,-8.024377822875977,48.36365509033203,31.545988082885742,90.03427124023438,-40.45050811767578,65535.0
18570.181924439934,3120.647216796875,3536.45361328125,3043.11962890625,2293.220458984375,-4.798930644989014,55.34848403930664,36.417720794677734,94.617919921875,-46.19276809692383,65535.0
18570.182324448484,3133.114501953125,3529.44921875,3041.489013671875,2244.16015625,-10.66122055053711,52.70125198364258,34.28853225708008,89.38626098632812,-44.49959182739258,65535.0
18570.182724457038,3138.861572265625,3529.615966796875,3041.576904296875,2223.927734375,-19.24207305908203,41.539031982421875,22.3198299407959,80.5506820678711,-40.277931213378906,65535.0
18570.18312446559,3136.976318359375,3532.121826171875,3040.194091796875,2233.6298828125,-13.487481117248535,47.63840103149414,30.230182647705078,88.25235748291016,-39.41200637817383,65535.0
18570.183524474145,3122.367919921875,3532.630859375,3041.989990234375,2263.37744140625,-8.203126907348633,54.53950119018555,32.669151306152344,87.44802856445312,-43.0188102722168,65535.0
18570.183924482695,3100.772705078125,3527.455078125,3034.4775390625,2290.012939453125,-5.370187282562256,58.109710693359375,35.91753005981445,90.48963165283203,-51.574337005615234,65535.0
18570.18432449125,3085.79345703125,3528.290283203125,3033.701416015625,2306.447509765625,-4.1786603927612305,63.18904113769531,39.318599700927734,93.05706787109375,-30.900083541870117,65535.0
18570.184724499803,3094.148193359375,3526.737548828125,3027.488037109375,2290.71337890625,-4.048161029815674,60.677433013916016,38.76503372192383,91.56729125976562,-28.20503807067871,65535.0
18570.185124508353,3123.55810546875,3520.850341796875,3030.999755859375,2271.716796875,3.231337547302246,72.63873291015625,47.25202178955078,103.0949935913086,-46.82015609741211,65535.0
18570.185524516906,3163.233154296875,3531.833984375,3043.217529296875,2299.725830078125,-5.964292526245117,63.810420989990234,36.23780059814453,90.51004028320312,-46.88842010498047,65535.0
18570.18592452546,3200.863037109375,3529.27880859375,3044.73583984375,2345.635498046875,-4.324503421783447,63.34836959838867,38.55364990234375,93.18133544921875,-31.801288604736328,65535.0
18570.186324534014,3195.542724609375,3526.535400390625,3044.58642578125,2373.921630859375,-4.253647327423096,69.83505249023438,37.64460754394531,95.80746459960938,-37.32197952270508,65535.0
18570.186724542564,3177.66357421875,3523.94287109375,3043.511474609375,2388.052001953125,-3.2610692977905273,74.7188720703125,40.38949966430664,95.89348602294922,-43.51913070678711,65535.0
18570.187124551117,3148.022216796875,3520.4638671875,3041.073974609375,2392.151123046875,5.687304973602295,82.2984390258789,48.54474639892578,104.82856750488281,-26.07948112487793,65535.0
18570.18752455967,3143.4453125,3530.96044921875,3034.476806640625,2374.231201171875,0.6320478916168213,75.0689468383789,43.7044677734375,98.59818267822266,-38.01289367675781,65535.0
18570.18792456822,3142.849609375,3529.58251953125,3039.474365234375,2321.66845703125,7.530717849731445,87.87448120117188,53.93517303466797,108.41603088378906,-33.09908676147461,65535.0
18570.188324576775,3123.389404296875,3529.4765625,3034.993896484375,2248.420654296875,-0.9863361716270447,79.00834655761719,42.59081268310547,97.39371490478516,-46.98866271972656,65535.0
18570.18872458533,3120.210693359375,3527.18408203125,3031.140869140625,2223.886474609375,4.744808197021484,82.13050842285156,45.68309020996094,104.15070343017578,-43.60027313232422,65535.0
18570.189124593882,3133.873046875,3528.64892578125,3034.7216796875,2238.93017578125,1.587514042854309,79.37420654296875,45.89130783081055,101.47673034667969,-43.83415603637695,65535.0
18570.189524602432,3168.761474609375,3535.16796875,3044.849609375,2236.893798828125,1.0373804569244385,78.78803253173828,45.28757095336914,98.88279724121094,-45.091033935546875,65535.0
18570.189924610986,3172.766357421875,3527.754150390625,3048.4189453125,2233.5048828125,8.462891578674316,86.1882553100586,52.29913330078125,104.89462280273438,-47.51506042480469,65535.0
18570.19032461954,3180.281494140625,3537.839111328125,3034.67919921875,2242.379150390625,12.69478702545166,91.7242660522461,57.10332489013672,108.69511413574219,-41.14891052246094,65535.0
18570.19072462809,3210.86865234375,3532.376953125,3045.80517578125,2253.590087890625,4.766805171966553,77.99275970458984,46.74864959716797,102.31458282470703,-37.42617416381836,65535.0
18570.191124636644,3267.421142578125,3528.75439453125,3043.697265625,2226.804931640625,1.105414867401123,71.53084564208984,41.940513610839844,98.49185180664062,-43.03417205810547,65535.0
18570.191524645197,3309.91455078125,3532.649169921875,3052.12744140625,2186.068115234375,-2.0715584754943848,70.5322494506836,38.80241775512695,98.87039947509766,-42.99211883544922,65535.0
18570.19192465375,3331.16015625,3533.293701171875,3056.2744140625,2164.17431640625,-0.28626757860183716,68.24137115478516,39.168067932128906,97.14647674560547,-48.46758270263672,65535.0
18570.1923246623,3320.224609375,3537.180908203125,3044.0986328125,2160.74169921875,-11.826566696166992,57.78032684326172,31.55169677734375,85.70874786376953,-25.271751403808594,65535.0
18570.192724670855,3271.14404296875,3533.83447265625,3044.2060546875,2173.35595703125,-3.221259832382202,61.76634216308594,38.81649398803711,94.39733123779297,-30.4830265045166,65535.0
18570.19312467941,3226.91748046875,3541.536865234375,3046.9462890625,2166.1083984375,-12.502006530761719,50.7432975769043,26.713613510131836,83.64723205566406,-37.12910079956055,65535.0
18570.19352468796,3207.91796875,3541.985107421875,3040.306396484375,2155.88525390625,-23.042072296142578,39.003475189208984,16.600330352783203,74.07878112792969,-51.275787353515625,65535.0
18570.193924696512,3185.015625,3537.919677734375,3043.130126953125,2157.822021484375,-15.446277618408203,46.67094802856445,25.788354873657227,81.11241149902344,-48.22517013549805,65535.0
18570.194324705066,3151.007080078125,3535.942626953125,3052.350341796875,2144.940673828125,-25.342966079711914,35.45907974243164,18.45806312561035,72.27880096435547,-32.128177642822266,65535.0
18570.19472471362,3118.764404296875,3538.4580078125,3045.98193359375,2144.681396484375,-19.803186416625977,34.962127685546875,24.47207260131836,79.7022705078125,-40.44666290283203,65535.0
18570.19512472217,3124.829833984375,3559.184814453125,3047.595703125,2129.404052734375,-24.247678756713867,33.582679748535156,17.807966232299805,76.70286560058594,-42.89698028564453,65535.0
18570.195524730723,3132.449951171875,3561.5634765625,3051.77099609375,2093.983154296875,-22.8389892578125,32.02220916748047,20.857738494873047,74.04827880859375,-55.776363372802734,65535.0
18570.195924739277,3140.881591796875,3549.149169921875,3057.029296875,2076.35302734375,-27.153078079223633,27.40442657470703,20.407190322875977,70.5054702758789,-51.31339645385742,65535.0
18570.196324747827,3150.85791015625,3546.897705078125,3056.480224609375,2071.368408203125,-32.579925537109375,24.295137405395508,11.85229206085205,68.29322052001953,-40.885921478271484,65535.0
18570.19672475638,3154.322021484375,3548.459716796875,3053.94873046875,2075.300048828125,-33.530826568603516,17.31770896911621,10.217759132385254,65.21754455566406,-33.50342559814453,65535.0
18570.197124764934,3164.472900390625,3555.610107421875,3051.6689453125,2100.7236328125,-29.15131187438965,22.114469528198242,14.111580848693848,68.19962310791016,-21.969005584716797,65535.0
18570.197524773488,3162.184326171875,3541.352783203125,3052.766845703125,2159.8076171875,-26.11087989807129,23.921138763427734,17.126060485839844,68.83216094970703,-40.65538024902344,65535.0
18570.197924782038,3148.90185546875,3532.463134765625,3050.4677734375,2179.088623046875,-22.71832847595215,30.608341217041016,22.655508041381836,76.31696319580078,-39.90476989746094,65535.0
18570.198324790592,3129.06689453125,3531.721435546875,3039.883544921875,2168.987060546875,-28.927949905395508,25.601526260375977,15.947541236877441,70.27543640136719,-30.99590301513672,65535.0
18570.198724799146,3117.89501953125,3530.607177734375,3031.921875,2159.99365234375,-33.85869598388672,17.151531219482422,12.510684967041016,66.85069274902344,-35.057106018066406,65535.0
18570.199124807696,3130.615478515625,3526.845458984375,3033.50439453125,2153.75537109375,-34.51890563964844,18.7890567779541,9.522613525390625,63.62299346923828,-36.869998931884766,65535.0
18570.19952481625,3136.97998046875,3515.74169921875,3040.408935546875,2116.011474609375,-32.53760528564453,21.139728546142578,9.897934913635254,66.57263946533203,-35.35226821899414,65535.0
18570.199924824803,3143.7109375,3527.16015625,3041.739990234375,2103.494140625,-28.935277938842773,22.565702438354492,13.445968627929688,67.61891174316406,-42.10673522949219,65535.0
18570.200324833357,3158.70166015625,3520.052978515625,3049.38671875,2154.40380859375,-27.210376739501953,27.285444259643555,13.21480655670166,69.8673324584961,-45.572059631347656,65535.0
18570.200724841907,3173.154541015625,3520.052978515625,3042.913818359375,2227.8525390625,-21.634761810302734,31.788679122924805,19.277193069458008,75.79912567138672,-46.020774841308594,65535.0
18570.20112485046,3167.967041015625,3528.87548828125,3045.388671875,2278.215576171875,-36.43913269042969,17.00275993347168,6.0381975173950195,62.53529357910156,-40.285865783691406,65535.0
18570.201524859014,3149.092041015625,3524.370849609375,3038.29736328125,2296.44482421875,-28.894771575927734,26.636415481567383,16.588008880615234,71.99065399169922,-41.36561584472656,65535.0
18570.201924867564,3153.897216796875,3519.17236328125,3042.625732421875,2318.757568359375,-28.264190673828125,32.2459602355957,18.227617263793945,73.87769317626953,-45.93980407714844,65535.0
18570.202324876118,3140.3759765625,3528.33837890625,3034.08154296875,2347.488037109375,-35.68790817260742,20.9985408782959,8.740116119384766,61.90242385864258,-35.73179244995117,65535.0
18570.20272488467,3133.607421875,3528.418701171875,3033.732421875,2348.905517578125,-18.04973602294922,36.90681076049805,22.41545295715332,77.36688995361328,-38.29393768310547,65535.0
18570.203124893225,3142.89208984375,3528.66943359375,3033.344970703125,2352.837890625,-4.22244930267334,56.87954330444336,36.259681701660156,91.36932373046875,-42.58766555786133,65535.0
18570.203524901775,3145.448974609375,3533.7314453125,3026.357666015625,2330.454345703125,-6.631477355957031,58.05571365356445,34.483192443847656,88.40386962890625,-48.6912841796875,65535.0
18570.20392491033,3142.42431640625,3536.119384765625,3040.486572265625,2321.85595703125,-10.666967391967773,54.89277267456055,31.267946243286133,86.18946075439453,-48.5533561706543,65535.0
18570.204324918883,3132.60546875,3530.8955078125,3041.557373046875,2322.51708984375,-7.099228382110596,60.43077850341797,36.38629150390625,90.31919860839844,-43.78464126586914,65535.0
18570.204724927433,3120.87841796875,3530.23291015625,3042.7783203125,2316.79541015625,-6.0747575759887695,60.899696350097656,35.04863357543945,91.73526000976562,-31.06056022644043,65535.0
18570.205124935987,3110.232666015625,3533.533203125,3033.833740234375,2307.41357421875,-3.6012539863586426,67.3525161743164,42.941497802734375,94.94683837890625,-36.230289459228516,65535.0
18570.20552494454,3098.075927734375,3526.41162109375,3036.212158203125,2301.178955078125,-5.484736442565918,64.63407897949219,39.837989807128906,91.06722259521484,-37.04761505126953,65535.0
18570.205924953094,3098.06494140625,3526.2333984375,3044.958984375,2319.658935546875,-10.081262588500977,62.377010345458984,35.63644790649414,91.3644790649414,-39.28957748413086,65535.0
18570.206324961644,3094.0693359375,3518.453369140625,3036.70947265625,2311.660400390625,-2.7872941493988037,74.81195068359375,44.496368408203125,98.45428466796875,-50.93962097167969,65535.0
18570.206724970198,3089.077392578125,3522.999267578125,3029.02197265625,2317.039794921875,-4.393996238708496,74.01061248779297,40.13017272949219,93.19527435302734,-40.69742202758789,65535.0
18570.20712497875,3083.789794921875,3522.013916015625,3037.33984375,2349.047119140625,-2.3275957107543945,77.4565658569336,41.394283294677734,97.07234191894531,-33.74858093261719,65535.0
18570.2075249873,3063.68359375,3530.36572265625,3041.330078125,2367.497802734375,-5.960546493530273,72.94155883789062,38.71531677246094,95.60758972167969,-42.848628997802734,65535.0
18570.207924995855,3035.21435546875,3527.811279296875,3046.8623046875,2365.8837890625,2.005056619644165,77.85506439208984,43.74820327758789,98.57679748535156,-45.952919006347656,65535.0
18570.20832500441,3011.9326171875,3531.876953125,3047.411865234375,2370.268310546875,-3.5683510303497314,73.22770690917969,39.061214447021484,91.29151916503906,-42.89949417114258,65535.0
18570.208725012963,3008.997802734375,3536.958251953125,3039.6123046875,2391.740966796875,-5.96459436416626,72.03337860107422,39.731712341308594,93.98128509521484,-41.14900207519531,65535.0
18570.209125021513,2992.6259765625,3540.03271484375,3039.72216796875,2417.644287109375,5.436178207397461,81.69396209716797,50.53194808959961,103.1036148071289,-40.310482025146484,65535.0
18570.209525030066,2988.01123046875,3540.104736328125,3046.823974609375,2432.19384765625,0.6172349452972412,78.2879638671875,44.016815185546875,99.62703704833984,-28.572338104248047,65535.0
18570.20992503862,3012.91552734375,3539.705322265625,3041.632080078125,2450.556396484375,-1.3225404024124146,80.00524139404297,44.18368148803711,101.82872009277344,-42.33720397949219,65535.0
18570.21032504717,3025.212158203125,3534.51904296875,3043.861572265625,2449.5654296875,-14.76964282989502,61.42922592163086,30.66749382019043,85.44083404541016,-43.28474426269531,65535.0
18570.210725055724,3039.04736328125,3529.824462890625,3032.108642578125,2362.232666015625,-0.36109745502471924,71.64449310302734,42.02944564819336,96.40982818603516,-38.407772064208984,65535.0
18570.211125064277,3053.53271484375,3537.580078125,3040.718505859375,2288.826171875,8.228195190429688,81.13776397705078,52.023990631103516,107.56505584716797,-42.88331985473633,65535.0
18570.21152507283,3056.394775390625,3545.949462890625,3051.351318359375,2256.8623046875,-4.0203471183776855,71.05170440673828,39.28716278076172,93.27099609375,-38.80125427246094,65535.0
18570.21192508138,3074.08056640625,3531.130615234375,3033.670166015625,2242.61669921875,1.9537681341171265,72.94019317626953,45.393367767333984,100.28274536132812,-37.144718170166016,65535.0
18570.212325089935,3098.432373046875,3529.135009765625,3043.21142578125,2243.356201171875,7.554630756378174,81.90328979492188,52.55683517456055,107.99507141113281,-37.58250045776367,65535.0
18570.21272509849,3086.44775390625,3534.91064453125,3041.3896484375,2245.08447265625,-1.429059624671936,68.9873046875,41.380775451660156,94.66957092285156,-33.37134552001953,65535.0
18570.21312510704,3062.014404296875,3528.076904296875,3046.117919921875,2242.16748046875,1.003627061843872,67.32886505126953,42.447750091552734,96.85044860839844,-24.015064239501953,65535.0
18570.213525115592,3053.772705078125,3531.209228515625,3061.53564453125,2232.47509765625,-3.2825605869293213,70.28507232666016,43.695926666259766,97.20352935791016,-40.620323181152344,65535.0
18570.213925124146,3061.789794921875,3536.601318359375,3055.4189453125,2236.38818359375,-4.646740436553955,64.70429992675781,40.508155822753906,95.01435852050781,-37.72270965576172,65535.0
18570.2143251327,3053.194580078125,3538.8046875,3055.9326171875,2259.263671875,-1.5561387538909912,62.582454681396484,39.965030670166016,94.9301528930664,-47.451839447021484,65535.0
18570.21472514125,3045.255126953125,3537.331298828125,3056.099609375,2319.1728515625,-2.331251859664917,65.38108825683594,40.88418960571289,95.31906127929688,-49.486419677734375,65535.0
18570.215125149803,3062.0029296875,3546.0146484375,3048.645751953125,2373.73876953125,5.454955577850342,67.92095947265625,45.10274124145508,98.55634307861328,-42.062618255615234,65535.0
18570.215525158357,3072.14453125,3544.999755859375,3053.138671875,2422.346923828125,-5.744598865509033,56.297462463378906,38.69047164916992,93.39635467529297,-34.00846862792969,65535.0
18570.215925166907,3092.19580078125,3537.342529296875,3049.577880859375,2443.11572265625,-9.35810375213623,53.35686492919922,33.95161819458008,89.45641326904297,-39.668067932128906,65535.0
18570.21632517546,3108.48193359375,3534.416015625,3051.924072265625,2432.3271484375,7.402477264404297,71.8888931274414,51.23939895629883,107.98088073730469,-43.50514602661133,65535.0
18570.216725184015,3100.855224609375,3538.4853515625,3053.382568359375,2401.45703125,-3.8105361461639404,59.28514862060547,41.285118103027344,96.9827651977539,-40.90131378173828,65535.0
18570.21712519257,3089.4423828125,3536.8623046875,3053.77392578125,2351.4208984375,-10.579009056091309,48.9554443359375,32.95738983154297,86.5378189086914,-33.44673538208008,65535.0
18570.21752520112,3094.12109375,3533.139892578125,3050.69189453125,2319.22607421875,-9.089701652526855,46.063655853271484,33.06060791015625,89.98162078857422,-35.634490966796875,65535.0
18570.217925209672,3106.154296875,3529.42333984375,3045.893310546875,2296.0791015625,-13.577336311340332,43.98677062988281,28.5389461517334,82.47553253173828,-29.785436630249023,65535.0
18570.218325218226,3109.002685546875,3533.043701171875,3050.275634765625,2250.56494140625,-9.801966667175293,50.429954528808594,33.90009689331055,89.29631805419922,-23.400081634521484,65535.0
18570.218725226776,3106.02783203125,3533.328857421875,3060.19873046875,2234.359130859375,-10.61463451385498,46.032955169677734,34.9502067565918,87.15928649902344,-34.61473083496094,65535.0
18570.21912523533,3106.655517578125,3529.698486328125,3057.592529296875,2210.5439453125,-23.858814239501953,34.73835754394531,20.307296752929688,74.84600830078125,-30.439056396484375,65535.0
18570.219525243883,3095.43603515625,3526.9716796875,3049.31982421875,2185.083740234375,-22.57810401916504,35.526573181152344,18.93239974975586,74.15911865234375,-34.13301086425781,65535.0
18570.219925252437,3106.549072265625,3530.50390625,3037.692626953125,2182.76416015625,-14.504119873046875,43.32162094116211,29.603591918945312,82.92263793945312,-35.0979118347168,65535.0
18570.220325260987,3109.117431640625,3529.12939453125,3036.42431640625,2223.489501953125,-17.405147552490234,43.50728225708008,26.212554931640625,82.16860961914062,-40.914329528808594,65535.0
18570.22072526954,3105.09423828125,3531.39208984375,3040.130126953125,2265.6640625,-17.712135314941406,44.57849884033203,27.324596405029297,82.12574768066406,-32.85515213012695,65535.0
18570.221125278094,3106.3681640625,3536.7939453125,3032.433837890625,2296.5556640625,-14.265490531921387,47.22291946411133,28.758413314819336,87.578857421875,-34.683998107910156,65535.0
18570.221525286644,3093.042236328125,3535.19970703125,3037.348388671875,2317.335205078125,-9.04929256439209,54.188716888427734,32.18085479736328,89.82505798339844,-41.142723083496094,65535.0
18570.221925295198,3099.400146484375,3528.09912109375,3040.3662109375,2311.1162109375,-14.197245597839355,49.00709533691406,28.447175979614258,82.37995910644531,-42.735084533691406,65535.0
18570.222325303752,3103.32861328125,3525.62255859375,3038.859375,2297.808349609375,-14.181705474853516,47.09040451049805,29.442352294921875,87.07967376708984,-34.49216079711914,65535.0
18570.222725312306,3109.962646484375,3523.680419921875,3037.357177734375,2302.319091796875,-12.344496726989746,48.900604248046875,29.444765090942383,85.89977264404297,-35.24223709106445,65535.0
18570.223125320856,3111.103759765625,3520.111572265625,3035.40087890625,2302.15380859375,-10.939935684204102,55.429141998291016,31.279321670532227,88.36163330078125,-30.24002456665039,65535.0
18570.22352532941,3118.722900390625,3516.5546875,3036.34619140625,2266.488525390625,-4.537989616394043,62.94794464111328,38.28884506225586,94.35951232910156,-40.30467987060547,65535.0
18570.223925337963,3080.867431640625,3516.617431640625,3031.811767578125,2221.638916015625,-6.38291597366333,62.11663055419922,36.57705307006836,93.71027374267578,-35.501670837402344,65535.0
18570.224325346513,3053.478515625,3514.971435546875,3028.99462890625,2190.19287109375,-7.823285102844238,60.688560485839844,35.24536895751953,89.8194808959961,-37.02492904663086,65535.0
18570.224725355067,3064.343505859375,3504.87451171875,3030.32373046875,2192.569091796875,-0.1859298050403595,70.54021453857422,44.34096908569336,98.19598388671875,-25.13819694519043,65535.0
18570.22512536362,3096.8056640625,3508.75830078125,3033.470947265625,2215.00927734375,5.35795259475708,77.75852966308594,47.60477066040039,104.76569366455078,-35.57978057861328,65535.0
18570.225525372174,3108.035400390625,3519.697509765625,3039.935546875,2229.816162109375,8.151473045349121,87.47335815429688,54.64244079589844,107.04635620117188,-41.1961669921875,65535.0
18570.225925380724,3079.598388671875,3510.6337890625,3032.87451171875,2235.819580078125,1.9797686338424683,78.67916870117188,46.643924713134766,99.36908721923828,-34.88468551635742,65535.0
18570.226325389278,3062.10791015625,3503.423828125,3026.8974609375,2249.468505859375,3.2192203998565674,79.64965057373047,47.773746490478516,101.0167007446289,-45.86972427368164,65535.0
18570.22672539783,3041.67333984375,3517.905029296875,3024.735107421875,2282.402099609375,0.3193582594394684,77.38825225830078,41.25405502319336,97.08917236328125,-47.8075065612793,65535.0
18570.22712540638,3058.762451171875,3522.88330078125,3018.318115234375,2327.95849609375,10.064699172973633,87.74628448486328,53.62295913696289,108.7515869140625,-30.448123931884766,65535.0
18570.227525414935,3075.934814453125,3525.042236328125,3034.767822265625,2352.69873046875,6.2662272453308105,84.45533752441406,47.282291412353516,102.16014862060547,-36.58678436279297,65535.0
18570.22792542349,3082.13623046875,3509.3271484375,3041.162353515625,2345.89404296875,-5.383301734924316,74.30318450927734,38.536556243896484,95.5219955444336,-36.31673049926758,65535.0
18570.228325432043,3106.779296875,3502.503662109375,3046.302001953125,2318.936767578125,13.75316333770752,96.00997161865234,59.30171203613281,113.93240356445312,-43.68970489501953,65535.0
18570.228725440593,3134.340087890625,3507.934326171875,3059.261474609375,2316.52392578125,9.941577911376953,94.66988372802734,55.022579193115234,109.47727966308594,-47.428524017333984,65535.0
18570.229125449147,3157.23583984375,3511.62744140625,3060.225341796875,2345.2607421875,4.668888568878174,88.96165466308594,49.35667419433594,104.12140655517578,-47.35851287841797,65535.0
18570.2295254577,3154.324462890625,3514.04541015625,3043.638916015625,2364.972900390625,11.887887954711914,92.12281799316406,56.53739929199219,110.76197052001953,-44.182411193847656,65535.0
18570.22992546625,3151.790283203125,3521.45654296875,3040.41064453125,2359.573974609375,3.0471274852752686,79.0715560913086,45.66971969604492,97.70823669433594,-42.75101089477539,65535.0
18570.230325474804,3157.08154296875,3515.474365234375,3042.103759765625,2350.885009765625,8.553556442260742,83.18146514892578,49.93508529663086,106.95182037353516,-45.89698028564453,65535.0
18570.230725483358,3117.373046875,3521.66259765625,3041.448486328125,2345.291748046875,6.610795974731445,82.48989868164062,49.12218475341797,104.92623901367188,-36.07987976074219,65535.0
18570.23112549191,3098.18212890625,3524.653564453125,3042.9775390625,2356.1572265625,3.007441997528076,76.0663070678711,46.65873718261719,100.17090606689453,-27.80097770690918,65535.0
18570.23152550046,3096.66357421875,3514.5,3055.05517578125,2366.865234375,8.597747802734375,80.93472290039062,47.76427459716797,105.79226684570312,-31.86442756652832,65535.0
18570.231925509015,3114.24658203125,3510.435302734375,3055.690185546875,2367.33447265625,14.235869407653809,88.50530242919922,58.17618179321289,110.45901489257812,-41.92528533935547,65535.0
18570.23232551757,3127.7373046875,3512.19921875,3048.30126953125,2372.20458984375,1.4743319749832153,76.4828109741211,45.895355224609375,99.62728118896484,-41.50312805175781,65535.0
18570.23272552612,3128.735595703125,3523.835205078125,3049.8271484375,2359.373046875,-3.565850019454956,66.83739471435547,38.6893310546875,98.14322662353516,-36.63741683959961,65535.0
18570.233125534673,3126.546142578125,3520.128173828125,3061.101318359375,2360.34814453125,-4.6135454177856445,62.28369903564453,39.1900520324707,94.82526397705078,-39.911712646484375,65535.0
18570.233525543226,3125.707275390625,3516.1796875,3062.81005859375,2383.48974609375,-1.5875808000564575,64.258056640625,40.144004821777344,94.43192291259766,-44.09849548339844,65535.0
18570.23392555178,3124.13623046875,3529.19482421875,3050.635009765625,2396.8701171875,-5.998346328735352,62.57741928100586,37.87132263183594,94.80765533447266,-42.011634826660156,65535.0
18570.23432556033,3119.452880859375,3534.724609375,3041.562255859375,2382.01025390625,2.6062419414520264,69.10319519042969,46.55462646484375,102.34510040283203,-28.081851959228516,65535.0
18570.234725568884,3096.537109375,3522.280029296875,3045.830810546875,2380.531982421875,-0.06840413063764572,67.8894271850586,44.40863037109375,99.70236206054688,-41.74653244018555,65535.0
18570.235125577437,3076.891357421875,3519.7568359375,3049.30517578125,2366.305908203125,-13.091989517211914,50.9754753112793,29.381610870361328,89.08183288574219,-44.326820373535156,65535.0
18570.235525585987,3063.1669921875,3515.06787109375,3048.50732421875,2372.338134765625,-14.242934226989746,49.19927215576172,32.6660041809082,88.44635009765625,-33.58499526977539,65535.0
18570.23592559454,3056.456298828125,3508.306396484375,3052.575439453125,2362.491455078125,-20.487876892089844,37.98960494995117,23.438568115234375,78.19857025146484,-32.93219757080078,65535.0
18570.236325603095,3064.564453125,3513.09033203125,3050.031494140625,2321.2802734375,-18.304141998291016,37.411460876464844,24.929431915283203,77.67974090576172,-34.759056091308594,65535.0
18570.23672561165,3083.028564453125,3508.521728515625,3046.74267578125,2252.552978515625,-15.209218978881836,42.022151947021484,27.075498580932617,84.41757202148438,-47.98410415649414,65535.0
18570.2371256202,3092.778564453125,3503.07080078125,3046.2119140625,2213.33447265625,-12.216249465942383,44.08237075805664,29.11690902709961,84.51789093017578,-34.02951431274414,65535.0
18570.237525628752,3105.608642578125,3503.0380859375,3052.615234375,2224.072998046875,-19.135425567626953,38.61991882324219,23.019731521606445,79.9964599609375,-40.50735092163086,65535.0
18570.237925637306,3124.983642578125,3492.690185546875,3057.29150390625,2244.6875,-22.875450134277344,30.24585723876953,18.64130973815918,72.57317352294922,-45.22706985473633,65535.0
18570.238325645856,3136.27880859375,3501.119873046875,3057.712890625,2236.04638671875,-27.304277420043945,27.717180252075195,18.44269371032715,72.99687957763672,-39.506290435791016,65535.0
18570.23872565441,3131.882080078125,3495.025146484375,3053.039306640625,2211.55615234375,-15.093205451965332,39.93046569824219,29.236934661865234,85.42677307128906,-36.3845329284668,65535.0
18570.239125662963,3127.01513671875,3491.60693359375,3047.906005859375,2206.570556640625,-12.890049934387207,45.12216567993164,32.909664154052734,89.10008239746094,-27.482574462890625,65535.0
18570.239525671517,3120.510986328125,3486.014892578125,3047.939453125,2184.139892578125,-21.444366455078125,36.191017150878906,22.215030670166016,78.81459045410156,-36.44862747192383,65535.0
18570.239925680067,3116.70166015625,3486.7890625,3043.98193359375,2169.765380859375,-15.136347770690918,40.94034194946289,29.017234802246094,83.6346664428711,-51.47456359863281,65535.0
18570.24032568862,3114.4423828125,3495.89404296875,3043.30078125,2164.4169921875,-10.201089859008789,48.228755950927734,30.29975128173828,88.90233612060547,-41.45453643798828,65535.0
18570.240725697175,3128.916259765625,3492.646484375,3046.66552734375,2201.312744140625,-12.8180513381958,47.85673904418945,31.356977462768555,84.97425842285156,-39.963218688964844,65535.0
18570.241125705725,3164.42822265625,3486.12158203125,3045.785888671875,2249.65673828125,-8.507383346557617,49.60094451904297,33.08961486816406,87.15476989746094,-41.11568832397461,65535.0
18570.24152571428,3175.678466796875,3488.105712890625,3051.22119140625,2294.544921875,0.8302403688430786,62.735435485839844,42.68975067138672,98.44712829589844,-34.435306549072266,65535.0
18570.241925722832,3170.58544921875,3478.000732421875,3045.88427734375,2313.6923828125,-13.410111427307129,53.56593704223633,32.903236389160156,88.15866088867188,-29.712392807006836,65535.0
18570.242325731386,3168.82080078125,3471.830078125,3054.63330078125,2299.626953125,-1.7895305156707764,61.36117172241211,40.64438247680664,95.84960174560547,-41.115386962890625,65535.0
18570.242725739936,3161.248779296875,3489.039794921875,3047.38525390625,2294.704833984375,-6.362579345703125,59.58189392089844,36.45690155029297,93.06961822509766,-31.36503791809082,65535.0
18570.24312574849,3169.462158203125,3480.30615234375,3043.637939453125,2299.537109375,-14.848518371582031,48.27227020263672,25.47272491455078,82.5101547241211,-35.78343963623047,65535.0
18570.243525757043,3156.403564453125,3481.37744140625,3038.79931640625,2296.149169921875,-3.6275570392608643,60.300323486328125,37.80868148803711,94.6644287109375,-42.94294738769531,65535.0
18570.243925765593,3122.90234375,3489.280517578125,3034.06201171875,2256.97216796875,0.15495344996452332,69.8522720336914,41.691162109375,100.01651000976562,-45.92946243286133,65535.0
18570.244325774147,3092.978515625,3501.185791015625,3032.433837890625,2214.884765625,-2.7903220653533936,67.23928833007812,41.65331268310547,97.01639556884766,-42.2720832824707,65535.0
18570.2447257827,3092.8515625,3496.20458984375,3029.99560546875,2201.80322265625,-10.025880813598633,60.82163619995117,35.80438232421875,91.27407836914062,-30.71988868713379,65535.0
18570.245125791254,3094.101806640625,3488.8720703125,3031.28955078125,2211.42138671875,-13.812793731689453,52.907073974609375,29.522138595581055,83.38450622558594,-31.722097396850586,65535.0
18570.245525799804,3085.72607421875,3486.610595703125,3039.83740234375,2202.71142578125,-19.67801284790039,51.07634353637695,25.068485260009766,78.58423614501953,-44.337989807128906,65535.0
18570.245925808358,3073.641845703125,3488.58740234375,3038.282470703125,2201.516845703125,-11.813295364379883,61.0624885559082,31.16061782836914,87.88227844238281,-32.19308853149414,65535.0
18570.246325816912,3080.01513671875,3479.474365234375,3028.812255859375,2212.6025390625,1.2818162441253662,74.93965148925781,41.582313537597656,98.52191925048828,-30.839466094970703,65535.0
18570.246725825462,3089.08984375,3473.007080078125,3029.133056640625,2232.510498046875,-3.4759204387664795,73.40409088134766,38.65444564819336,95.9095458984375,-31.94603157043457,65535.0
18570.247125834016,3088.664306640625,3479.51708984375,3034.70361328125,2249.771484375,1.6421394348144531,78.09923553466797,43.143672943115234,100.45346069335938,-33.869510650634766,65535.0
18570.24752584257,3102.66845703125,3486.3984375,3037.024169921875,2249.351806640625,-13.803421020507812,62.37942886352539,30.939746856689453,84.77110290527344,-36.80327224731445,65535.0
18570.247925851123,3105.2060546875,3484.739990234375,3049.039794921875,2263.08251953125,-12.184335708618164,59.07672119140625,30.232507705688477,85.24137878417969,-47.09943389892578,65535.0
18570.248325859673,3092.058837890625,3477.63623046875,3048.179931640625,2277.02197265625,-12.540992736816406,62.58271026611328,31.252552032470703,86.82839965820312,-40.77141571044922,65535.0
18570.248725868227,3087.072509765625,3486.082763671875,3050.41748046875,2301.7177734375,-6.808353424072266,68.99215698242188,36.00627517700195,90.07105255126953,-46.600006103515625,65535.0
18570.24912587678,3072.0419921875,3499.584716796875,3049.956787109375,2287.098876953125,-13.031147003173828,63.32878875732422,32.1606330871582,84.42736053466797,-39.195396423339844,65535.0
18570.24952588533,3089.377685546875,3491.13427734375,3056.6806640625,2275.229248046875,-13.804590225219727,60.485321044921875,29.044269561767578,82.52068328857422,-36.155826568603516,65535.0
18570.249925893884,3100.441162109375,3496.9189453125,3050.860595703125,2283.33251953125,-6.933595180511475,65.9139404296875,35.7492561340332,92.26656341552734,-35.93488693237305,65535.0
18570.250325902438,3099.6884765625,3499.078857421875,3055.418212890625,2285.441162109375,-1.917638897895813,70.06401824951172,40.168426513671875,96.97828674316406,-48.13005447387695,65535.0
18570.25072591099,3085.3095703125,3505.1953125,3058.77685546875,2274.124755859375,-14.627037048339844,55.74870300292969,27.95779037475586,81.23909759521484,-44.95343780517578,65535.0
18570.25112591954,3079.946044921875,3489.99169921875,3042.0068359375,2283.130126953125,-15.950926780700684,52.18192672729492,28.211772918701172,82.03434753417969,-32.28288269042969,65535.0
18570.251525928095,3098.0810546875,3481.14306640625,3054.1767578125,2293.406494140625,-8.239665031433105,63.37300491333008,34.41773223876953,88.15171813964844,-35.728271484375,65535.0
18570.25192593665,3117.857666015625,3491.951904296875,3045.4609375,2299.162109375,-18.859228134155273,51.255409240722656,24.2055606842041,80.47692108154297,-33.085365295410156,65535.0
18570.2523259452,3119.8818359375,3504.314453125,3037.30419921875,2300.335205078125,-15.593934059143066,52.94328308105469,26.685068130493164,83.41189575195312,-27.637723922729492,65535.0
18570.252725953753,3093.9375,3506.331787109375,3043.024169921875,2275.46044921875,-8.387497901916504,59.58470916748047,37.64263916015625,90.4715576171875,-28.127531051635742,65535.0
18570.253125962307,3078.697509765625,3509.966552734375,3039.0380859375,2241.092529296875,3.8005623817443848,67.93913269042969,46.1414680480957,101.32748413085938,-29.89650535583496,65535.0
18570.25352597086,3065.27490234375,3495.515869140625,3039.86865234375,2157.58935546875,-5.2577080726623535,60.134788513183594,36.757205963134766,91.28346252441406,-34.20455551147461,65535.0
18570.25392597941,3074.555419921875,3489.33837890625,3042.58837890625,2092.939208984375,-8.605036735534668,58.329132080078125,35.45746612548828,89.85225677490234,-40.32526779174805,65535.0
18570.254325987964,3075.212890625,3494.88525390625,3043.48974609375,2084.959228515625,-19.750734329223633,46.190223693847656,23.821937561035156,79.80056762695312,-43.304039001464844,65535.0
18570.254725996518,3064.1494140625,3502.873779296875,3048.0146484375,2078.839111328125,-20.485441207885742,40.31801986694336,22.5166072845459,78.52529907226562,-32.137943267822266,65535.0
18570.255126005068,3059.988037109375,3505.048828125,3042.896484375,2084.077392578125,-15.339788436889648,43.9650764465332,28.183815002441406,81.22486877441406,-29.96543312072754,65535.0
18570.25552601362,3051.6845703125,3508.02685546875,3035.98291015625,2098.195068359375,-15.744601249694824,42.06673812866211,25.768129348754883,79.89867401123047,-24.619815826416016,65535.0
18570.255926022175,3030.570068359375,3506.77880859375,3040.8291015625,2089.7861328125,-23.89628028869629,35.57521438598633,18.355419158935547,73.09635925292969,-28.559953689575195,65535.0
18570.25632603073,3028.69189453125,3519.847900390625,3028.026123046875,2080.302001953125,-29.9373836517334,26.724170684814453,16.039928436279297,70.2064437866211,-44.124149322509766,65535.0
18570.25672603928,3023.588623046875,3508.1103515625,3044.248291015625,2093.0615234375,-27.34989356994629,26.46634864807129,15.343168258666992,70.47734069824219,-49.554351806640625,65535.0
18570.257126047833,3027.68310546875,3491.872802734375,3048.7529296875,2107.88232421875,-32.91049575805664,20.447895050048828,13.027822494506836,66.60026550292969,-51.534244537353516,65535.0
18570.257526056386,3049.647216796875,3504.011962890625,3041.185546875,2148.401611328125,-28.95450782775879,24.429792404174805,14.242859840393066,68.33661651611328,-26.6799259185791,65535.0
18570.257926064936,3053.47119140625,3497.033447265625,3041.975830078125,2188.87646484375,-30.968984603881836,20.44744300842285,11.191606521606445,66.55411529541016,-30.61549186706543,65535.0
18570.25832607349,3054.630126953125,3489.811767578125,3032.332275390625,2177.91455078125,-41.0281982421875,11.486899375915527,4.78444242477417,59.789546966552734,-49.781497955322266,65535.0
18570.258726082044,3030.724853515625,3491.76171875,3032.07421875,2167.512939453125,-27.812576293945312,23.414413452148438,11.65822982788086,69.6480941772461,-46.49030303955078,65535.0
18570.259126090597,3013.927734375,3488.366943359375,3045.579345703125,2179.15673828125,-25.86296272277832,27.695287704467773,18.700855255126953,73.16194152832031,-33.428977966308594,65535.0
18570.259526099147,3023.524169921875,3483.475830078125,3035.058349609375,2164.19921875,-35.70833206176758,18.833276748657227,8.443045616149902,62.99148941040039,-48.144107818603516,65535.0
18570.2599261077,3029.085693359375,3495.70556640625,3037.3330078125,2136.7880859375,-30.922910690307617,25.599735260009766,11.643972396850586,65.64461517333984,-41.13154220581055,65535.0
18570.260326116255,3057.179443359375,3484.527099609375,3035.530517578125,2107.25830078125,-23.241317749023438,32.73371124267578,16.84296989440918,72.215087890625,-31.703365325927734,65535.0
18570.260726124805,3072.992919921875,3486.055419921875,3037.894775390625,2110.241455078125,-16.12881088256836,42.1341552734375,23.760204315185547,78.69744110107422,-44.492759704589844,65535.0
18570.26112613336,3071.458984375,3486.404296875,3034.010498046875,2101.340087890625,-27.100658416748047,32.49407196044922,15.242751121520996,71.2708511352539,-34.77518844604492,65535.0
18570.261526141912,3061.8828125,3481.71337890625,3036.218505859375,2091.52783203125,-27.886398315429688,33.696720123291016,18.08208656311035,73.03005981445312,-35.39921951293945,65535.0
18570.261926150466,3073.16357421875,3471.95458984375,3041.873291015625,2076.9833984375,-16.98198890686035,43.367881774902344,25.914255142211914,78.71955108642578,-38.565711975097656,65535.0
18570.262326159016,3064.212158203125,3479.173828125,3045.214599609375,2070.18994140625,-16.65167236328125,45.37257385253906,23.890548706054688,80.47740936279297,-41.75379943847656,65535.0
18570.26272616757,3058.209716796875,3485.634521484375,3032.7685546875,2069.19677734375,-22.472429275512695,40.74663162231445,20.053401947021484,74.35506439208984,-41.82453536987305,65535.0
18570.263126176123,3050.049560546875,3485.302978515625,3026.046875,2061.542724609375,-19.569110870361328,46.104801177978516,25.022619247436523,79.45782470703125,-30.889080047607422,65535.0
18570.263526184674,3068.94482421875,3481.611572265625,3030.482421875,2094.525634765625,-21.30596160888672,47.907962799072266,21.811138153076172,78.34879302978516,-27.34078598022461,65535.0
18570.263926193227,3085.63134765625,3486.34423828125,3023.91748046875,2150.12158203125,-23.414148330688477,43.35573196411133,19.595375061035156,76.30268859863281,-40.15074157714844,65535.0
18570.26432620178,3077.932861328125,3485.843994140625,3012.6416015625,2199.888916015625,-18.237581253051758,48.153316497802734,22.771730422973633,78.45515441894531,-51.43682861328125,65535.0
18570.264726210335,3106.641357421875,3485.50830078125,3026.6923828125,2250.901123046875,-14.34780216217041,55.70636749267578,29.724760055541992,82.30961608886719,-42.760311126708984,65535.0
18570.265126218885,3137.240234375,3485.73388671875,3033.416259765625,2285.380126953125,-19.306976318359375,51.38625717163086,21.839282989501953,77.31733703613281,-33.65544891357422,65535.0
18570.26552622744,3145.249267578125,3487.329345703125,3037.94873046875,2293.662353515625,-21.996522903442383,48.683509826660156,20.86638832092285,74.51689147949219,-45.54073715209961,65535.0
18570.265926235992,3143.490234375,3486.0029296875,3034.96435546875,2266.862060546875,-17.039691925048828,52.54434585571289,25.007095336914062,78.54817199707031,-36.083492279052734,65535.0
18570.266326244542,3110.071533203125,3481.171142578125,3031.27978515625,2236.35302734375,-6.569222450256348,69.36107635498047,33.68747329711914,91.90269470214844,-38.36552047729492,65535.0
18570.266726253096,3104.8818359375,3485.853271484375,3031.4033203125,2249.894287109375,-10.8273286819458,65.11849212646484,33.70003128051758,86.64480590820312,-38.772945404052734,65535.0
18570.26712626165,3104.7685546875,3475.80517578125,3032.260986328125,2262.90380859375,-6.274066925048828,67.6933364868164,34.96540832519531,90.28199005126953,-22.796390533447266,65535.0
18570.267526270203,3109.53662109375,3470.00927734375,3032.3935546875,2257.03173828125,-1.829754114151001,72.52540588378906,38.045921325683594,93.7154769897461,-49.021568298339844,65535.0
18570.267926278753,3099.722900390625,3470.5625,3029.974609375,2250.143798828125,-12.650411605834961,67.55118560791016,33.303192138671875,89.7735595703125,-48.291847229003906,65535.0
18570.268326287307,3097.6572265625,3474.142822265625,3030.906982421875,2259.520751953125,-15.40207290649414,64.10711669921875,26.816181182861328,85.27913665771484,-49.821929931640625,65535.0
18570.26872629586,3094.970947265625,3484.04541015625,3031.6357421875,2272.966552734375,-23.765880584716797,50.85279083251953,17.710933685302734,75.79976654052734,-44.814456939697266,65535.0
18570.26912630441,3092.959228515625,3480.51904296875,3030.543701171875,2275.96533203125,-19.77164649963379,54.67368698120117,21.867687225341797,76.32891082763672,-43.190818786621094,65535.0
18570.269526312964,3093.390869140625,3488.41162109375,3032.614990234375,2283.56689453125,-11.595282554626465,67.7145767211914,31.9259033203125,86.39195251464844,-44.88739776611328,65535.0
18570.269926321518,3097.16845703125,3481.73046875,3034.426513671875,2281.966552734375,-12.871782302856445,63.39582824707031,31.01517677307129,87.47857666015625,-27.557056427001953,65535.0
18570.270326330072,3107.286865234375,3464.1806640625,3036.512939453125,2276.03369140625,-12.895689010620117,63.93962478637695,31.70717430114746,86.26507568359375,-40.681434631347656,65535.0
18570.270726338622,3105.21533203125,3473.863525390625,3035.51416015625,2286.27490234375,-15.529855728149414,58.86617660522461,28.755338668823242,81.148681640625,-50.146461486816406,65535.0
18570.271126347176,3093.320068359375,3482.386962890625,3038.256591796875,2297.66650390625,-9.550859451293945,63.14229965209961,32.30744934082031,86.25603485107422,-42.82875442504883,65535.0
18570.27152635573,3073.435302734375,3485.091552734375,3038.248779296875,2317.810546875,-10.003945350646973,64.54552459716797,32.44960403442383,84.6609878540039,-48.22422790527344,65535.0
18570.27192636428,3064.671875,3488.970703125,3025.71435546875,2348.498779296875,-12.832175254821777,60.39595413208008,32.14509582519531,85.69285583496094,-40.58631134033203,65535.0
18570.272326372833,3075.2421875,3495.6953125,3022.528076171875,2363.54150390625,-12.407130241394043,55.16023635864258,28.41431999206543,85.63984680175781,-34.67074203491211,65535.0
18570.272726381387,3068.40869140625,3504.5732421875,3031.193115234375,2346.614013671875,-12.886774063110352,59.174015045166016,29.95186996459961,85.59527587890625,-54.16109848022461,65535.0
18570.27312638994,3057.862548828125,3492.193359375,3035.675048828125,2313.5419921875,-18.056455612182617,49.237815856933594,24.43189811706543,78.88166046142578,-50.73780059814453,65535.0
18570.27352639849,3048.650634765625,3494.404296875,3036.870849609375,2297.76904296875,-15.305445671081543,50.222686767578125,27.561664581298828,82.63106536865234,-31.08487319946289,65535.0
18570.273926407044,3055.053466796875,3482.71728515625,3037.459228515625,2300.33984375,-9.865983009338379,57.84598159790039,33.40272521972656,87.53691101074219,-29.606693267822266,65535.0
18570.274326415598,3078.5205078125,3485.271240234375,3042.58984375,2291.892822265625,-18.530986785888672,45.93549728393555,25.241661071777344,77.18914031982422,-42.431766510009766,65535.0
18570.274726424148,3095.9599609375,3487.177490234375,3037.116455078125,2263.9375,-30.060739517211914,29.88374900817871,14.462846755981445,68.78103637695312,-32.28494644165039,65535.0
18570.2751264327,3096.4638671875,3491.674560546875,3034.630615234375,2238.967041015625,-15.944364547729492,46.75416946411133,28.04697036743164,82.39281463623047,-32.059696197509766,65535.0
18570.275526441255,3086.314208984375,3488.19580078125,3032.357177734375,2225.9970703125,-22.6923885345459,38.150482177734375,19.236080169677734,75.6827621459961,-40.52714920043945,65535.0
18570.27592644981,3119.2744140625,3485.411865234375,3026.637939453125,2240.085205078125,-20.629640579223633,35.564231872558594,20.24374771118164,75.78658294677734,-23.22614288330078,65535.0
18570.27632645836,3124.357177734375,3477.5751953125,3023.132568359375,2263.31689453125,-25.110746383666992,34.67910385131836,18.78412437438965,74.86007690429688,-33.726078033447266,65535.0
18570.276726466913,3111.211669921875,3480.54052734375,3029.497802734375,2272.475341796875,-32.8100471496582,25.203929901123047,11.438121795654297,65.80378723144531,-53.828922271728516,65535.0
18570.277126475467,3089.43212890625,3465.28564453125,3022.445068359375,2288.08935546875,-22.718063354492188,33.45191955566406,17.3465633392334,73.72967529296875,-43.15922546386719,65535.0
18570.277526484017,3116.765380859375,3461.216796875,3025.824462890625,2292.302490234375,-28.415679931640625,32.05964660644531,12.18025016784668,71.03691101074219,-41.127227783203125,65535.0
18570.27792649257,3126.2880859375,3468.156005859375,3026.399169921875,2313.388427734375,-20.946237564086914,33.2800178527832,20.497041702270508,76.31417846679688,-53.99796676635742,65535.0
18570.278326501124,3117.777099609375,3468.624267578125,3028.173095703125,2326.0966796875,-26.81267738342285,28.438005447387695,16.91508674621582,73.15023040771484,-54.673091888427734,65535.0
18570.278726509678,3110.79150390625,3461.929443359375,3024.662353515625,2326.2919921875,-32.43757247924805,25.18697166442871,13.471207618713379,67.69280242919922,-43.91929626464844,65535.0
18570.279126518228,3093.7802734375,3467.54833984375,3011.911376953125,2325.9521484375,-31.312570571899414,23.313182830810547,11.51504898071289,64.26961517333984,-45.78440475463867,65535.0
18570.27952652678,3100.88330078125,3464.340087890625,3017.8388671875,2318.481689453125,-25.029508590698242,30.954669952392578,18.630617141723633,71.61335754394531,-46.08583068847656,65535.0
18570.279926535335,3104.115234375,3464.0361328125,3009.535888671875,2280.251953125,-24.020626068115234,36.95147705078125,21.037782669067383,75.49920654296875,-47.136959075927734,65535.0
18570.280326543885,3121.5048828125,3461.980712890625,3013.125732421875,2282.893798828125,-21.184547424316406,38.96040344238281,23.380023956298828,79.77764129638672,-41.13861083984375,65535.0
18570.28072655244,3113.0732421875,3453.888671875,3013.45166015625,2317.54150390625,-18.614953994750977,43.578277587890625,24.461647033691406,80.14056396484375,-29.140079498291016,65535.0
18570.281126560993,3077.421630859375,3458.747802734375,3017.9208984375,2387.328369140625,-21.951791763305664,39.8262825012207,21.091144561767578,74.30176544189453,-29.877735137939453,65535.0
18570.281526569546,3059.354736328125,3455.705078125,3019.027099609375,2444.697265625,-22.356931686401367,36.91305160522461,19.66404914855957,75.37571716308594,-39.32889938354492,65535.0
18570.281926578096,3038.523193359375,3452.748779296875,3019.330078125,2426.064697265625,-20.881006240844727,41.93618392944336,21.57822036743164,78.86811065673828,-41.222816467285156,65535.0
18570.28232658665,3046.263916015625,3446.927734375,3016.465087890625,2330.047607421875,-30.85114860534668,35.87443542480469,11.897515296936035,70.20637512207031,-42.691307067871094,65535.0
18570.282726595204,3042.3359375,3450.91357421875,3007.06298828125,2258.16015625,-32.8868522644043,29.87029457092285,11.890740394592285,65.60845947265625,-51.741737365722656,65535.0
18570.283126603754,3044.752685546875,3458.8876953125,3014.9267578125,2262.04296875,-14.713090896606445,48.1878776550293,28.028764724731445,85.21952819824219,-37.670597076416016,65535.0
18570.283526612307,3033.349853515625,3461.0517578125,3023.7421875,2278.88330078125,-15.500312805175781,53.910247802734375,30.28081703186035,84.05360412597656,-32.49858856201172,65535.0
18570.28392662086,3027.43701171875,3459.041748046875,3010.224365234375,2303.888427734375,-13.283312797546387,54.29263687133789,28.022226333618164,83.42357635498047,-38.3663215637207,65535.0
18570.284326629415,3037.011474609375,3460.642822265625,3006.05029296875,2307.253662109375,-8.994611740112305,60.839454650878906,33.97575378417969,89.57564544677734,-46.64361572265625,65535.0
18570.284726637965,3015.89892578125,3453.09716796875,3001.985107421875,2300.82666015625,-12.054548263549805,62.02295684814453,33.089622497558594,87.64787292480469,-41.48186492919922,65535.0
18570.28512664652,2995.68798828125,3453.125244140625,3010.9326171875,2299.73046875,-10.6615629196167,63.4709358215332,33.389339447021484,89.28502655029297,-42.19232177734375,65535.0
18570.285526655072,2971.88330078125,3460.7294921875,3020.412841796875,2288.3583984375,-8.548824310302734,66.54341888427734,34.66527557373047,92.0931396484375,-30.503599166870117,65535.0
18570.285926663622,2916.7490234375,3452.177490234375,3006.818603515625,2277.309814453125,-9.902058601379395,67.36612701416016,33.652984619140625,88.546630859375,-49.73015213012695,65535.0
18570.286326672176,2887.280517578125,3448.61572265625,3001.147216796875,2308.4404296875,-9.533912658691406,69.83706665039062,33.09492492675781,88.91228485107422,-45.200984954833984,65535.0
18570.28672668073,2916.4404296875,3448.34716796875,3006.366943359375,2323.962890625,-7.986686706542969,69.16529083251953,33.162872314453125,90.83698272705078,-44.8428840637207,65535.0
18570.287126689283,2934.13232421875,3456.58251953125,3014.455810546875,2323.50732421875,-4.619496822357178,74.29244995117188,37.95219039916992,94.31192016601562,-43.661441802978516,65535.0
18570.287526697834,2936.4013671875,3453.816650390625,3008.822509765625,2310.20654296875,-6.505927562713623,76.41168975830078,38.73841094970703,93.51397705078125,-37.333580017089844,65535.0
18570.287926706387,2965.440673828125,3456.416015625,3005.676025390625,2281.7822265625,-6.580463886260986,71.37602233886719,35.53975296020508,91.6053466796875,-35.37546157836914,65535.0
18570.28832671494,2995.95458984375,3460.403564453125,3014.57373046875,2275.21728515625,-11.917366027832031,67.42743682861328,34.15346908569336,87.93059539794922,-37.07365417480469,65535.0
18570.28872672349,3020.730712890625,3467.30224609375,3024.121826171875,2260.773681640625,-15.318102836608887,65.38309478759766,31.588369369506836,86.07530212402344,-50.19184112548828,65535.0
18570.289126732045,3042.062255859375,3466.87158203125,3034.639404296875,2236.44287109375,-16.461240768432617,58.23386764526367,26.289472579956055,82.31471252441406,-51.712303161621094,65535.0
18570.2895267406,3040.570556640625,3466.48583984375,3020.669677734375,2214.507080078125,-20.14387321472168,54.89657211303711,21.62632179260254,77.56613159179688,-42.601043701171875,65535.0
18570.289926749152,3025.031982421875,3479.23583984375,3017.95068359375,2233.545166015625,-16.11984634399414,61.14872741699219,28.486217498779297,80.91035461425781,-42.361289978027344,65535.0
18570.290326757702,3037.26708984375,3474.17626953125,3019.65966796875,2261.8564453125,-18.99283790588379,54.40117263793945,23.443443298339844,80.24566650390625,-29.94178581237793,65535.0
18570.290726766256,3049.626953125,3466.319580078125,3016.267333984375,2286.7216796875,-25.495372772216797,48.81507873535156,19.20554542541504,74.96971893310547,-31.683212280273438,65535.0
18570.29112677481,3063.28271484375,3474.952392578125,3017.966064453125,2326.634765625,-22.493005752563477,50.29159164428711,23.137014389038086,76.87886810302734,-31.914222717285156,65535.0
18570.29152678336,3056.247314453125,3468.535400390625,3020.49658203125,2356.33251953125,-19.333026885986328,52.76061248779297,24.0887508392334,79.2115707397461,-43.7065315246582,65535.0
18570.291926791913,3044.85693359375,3476.346435546875,3015.886962890625,2357.067626953125,-9.477540969848633,62.12023162841797,32.39799499511719,86.81178283691406,-44.136165618896484,65535.0
18570.292326800467,3043.3798828125,3471.347412109375,3018.760986328125,2387.290283203125,-12.148580551147461,58.12026596069336,31.804248809814453,86.32550048828125,-51.15896224975586,65535.0
18570.29272680902,3051.276123046875,3471.72021484375,3010.875,2408.143798828125,-17.144807815551758,52.679561614990234,25.96845817565918,81.248779296875,-44.078819274902344,65535.0
18570.29312681757,3071.52197265625,3488.868896484375,3013.5888671875,2388.084716796875,-18.120094299316406,51.54172134399414,28.325775146484375,84.7323989868164,-29.184114456176758,65535.0
18570.293526826124,3074.98876953125,3473.38818359375,3017.260498046875,2348.3349609375,-8.38165283203125,57.86089324951172,32.327972412109375,88.22434997558594,-42.78410720825195,65535.0
18570.293926834678,3076.357666015625,3465.6083984375,3015.834228515625,2315.468505859375,-3.9238810539245605,65.69674682617188,38.40719985961914,91.88479614257812,-52.490535736083984,65535.0
18570.29432684323,3079.072509765625,3465.36572265625,3018.750732421875,2288.4423828125,-16.102569580078125,54.08944320678711,27.24515151977539,83.35196685791016,-53.89372634887695,65535.0
18570.294726851782,3074.776611328125,3461.92333984375,3018.310791015625,2270.177978515625,-18.272645950317383,49.86662673950195,26.794458389282227,83.18648529052734,-47.761260986328125,65535.0
18570.295126860336,3061.397705078125,3454.69482421875,3016.5361328125,2263.3271484375,-19.566242218017578,44.619991302490234,22.497272491455078,78.53913116455078,-44.17915725708008,65535.0
18570.29552686889,3054.025634765625,3463.901123046875,3017.208251953125,2236.365478515625,-25.891536712646484,35.250675201416016,17.773679733276367,72.1182632446289,-44.970314025878906,65535.0
18570.29592687744,3054.6875,3463.143310546875,3010.715576171875,2244.452392578125,-13.165763854980469,48.92593002319336,30.006803512573242,87.8326416015625,-38.448875427246094,65535.0
18570.296326885993,3062.17138671875,3458.4951171875,3005.3525390625,2277.7919921875,-16.87516212463379,41.35689163208008,25.262027740478516,80.7589340209961,-42.7322883605957,65535.0
18570.296726894547,3071.277587890625,3455.573974609375,3017.85546875,2290.431396484375,-17.807601928710938,37.58974838256836,24.051437377929688,78.56369018554688,-36.586002349853516,65535.0
18570.297126903097,3080.204345703125,3444.3779296875,3007.018798828125,2301.235595703125,-20.371814727783203,39.011390686035156,21.584444046020508,77.01903533935547,-33.099117279052734,65535.0
18570.29752691165,3083.573974609375,3440.074462890625,2999.751708984375,2316.16748046875,-26.749399185180664,29.733898162841797,14.294486999511719,72.11724853515625,-30.433164596557617,65535.0
18570.297926920204,3077.1318359375,3435.608642578125,3007.703125,2316.423095703125,-30.242204666137695,24.0816650390625,11.247659683227539,68.1139907836914,-32.20786666870117,65535.0
18570.298326928758,3070.5986328125,3436.709716796875,2988.892578125,2330.157958984375,-28.088031768798828,24.7289981842041,11.946237564086914,68.7663345336914,-40.32428741455078,65535.0
18570.298726937308,3059.87255859375,3442.192626953125,2978.989013671875,2311.59375,-25.550628662109375,27.22001838684082,15.928478240966797,73.49440002441406,-42.848087310791016,65535.0
18570.29912694586,3054.34423828125,3446.68798828125,2987.574462890625,2289.88671875,-26.626012802124023,24.819690704345703,15.473287582397461,71.4239273071289,-43.92417907714844,65535.0
18570.299526954415,3072.194580078125,3449.2783203125,2987.84716796875,2254.555419921875,-25.367618560791016,31.616779327392578,20.074859619140625,76.20723724365234,-44.936649322509766,65535.0
18570.299926962965,3103.24951171875,3446.337890625,2990.18359375,2220.831298828125,-30.61813735961914,24.006793975830078,14.695818901062012,68.57731628417969,-40.29552459716797,65535.0
18570.30032697152,3102.541259765625,3455.0205078125,2991.27294921875,2208.753662109375,-19.965103149414062,36.39189529418945,22.592836380004883,77.58008575439453,-35.69412612915039,65535.0
18570.300726980073,3094.406494140625,3461.125,2985.197021484375,2177.02294921875,-22.088382720947266,40.59841537475586,21.98453712463379,75.6090087890625,-38.60812759399414,65535.0
18570.301126988626,3097.337890625,3461.9208984375,2973.5546875,2176.186767578125,-26.99251937866211,35.284141540527344,18.754119873046875,72.90087127685547,-42.711395263671875,65535.0
18570.301526997177,3102.030517578125,3476.470703125,2986.75244140625,2177.224365234375,-21.82721519470215,37.48746871948242,17.723833084106445,77.60821533203125,-50.387821197509766,65535.0
18570.30192700573,3135.80029296875,3472.71875,2975.794921875,2201.063720703125,-16.686649322509766,41.94221115112305,24.13524055480957,79.58263397216797,-38.87403106689453,65535.0
18570.302327014284,3160.069091796875,3489.71826171875,2974.353271484375,2226.614990234375,-23.361648559570312,37.38495635986328,20.471078872680664,74.66649627685547,-43.04421615600586,65535.0
18570.302727022834,3134.33154296875,3485.7431640625,2975.708740234375,2257.85693359375,-14.723645210266113,43.431400299072266,26.684106826782227,81.44525146484375,-43.57497787475586,65535.0
18570.303127031388,3127.746826171875,3488.9150390625,2974.276123046875,2284.107666015625,-13.563030242919922,51.814552307128906,27.780309677124023,84.00794219970703,-39.11818313598633,65535.0
18570.30352703994,3136.90673828125,3495.075439453125,2988.185791015625,2302.964111328125,-20.55143928527832,46.14888381958008,21.900117874145508,78.14347839355469,-36.402957916259766,65535.0
18570.303927048495,3148.555908203125,3483.51708984375,2978.77099609375,2310.5537109375,-11.11335277557373,53.379451751708984,28.444360733032227,85.07546997070312,-37.821720123291016,65535.0
18570.304327057045,3142.586669921875,3473.35595703125,2972.7783203125,2306.791259765625,-13.459342002868652,56.618778228759766,29.081893920898438,83.6705093383789,-38.566253662109375,65535.0
18570.3047270656,3126.05908203125,3479.521728515625,2979.84228515625,2296.309326171875,-8.267627716064453,65.01100158691406,35.131141662597656,89.3553466796875,-47.17714309692383,65535.0
18570.305127074153,3103.81787109375,3482.04833984375,2976.52587890625,2282.59326171875,-13.411504745483398,58.72032165527344,29.912708282470703,85.62113189697266,-38.340267181396484,65535.0
18570.305527082703,3097.717529296875,3484.6494140625,2969.569091796875,2274.305419921875,-13.419161796569824,57.967079162597656,31.746658325195312,87.87388610839844,-28.82476234436035,65535.0
18570.305927091256,3083.284423828125,3479.09814453125,2972.107421875,2274.297119140625,-7.238171577453613,68.67318725585938,37.047325134277344,92.4067153930664,-48.238346099853516,65535.0
18570.30632709981,3074.329833984375,3485.104248046875,2964.67138671875,2263.184326171875,-3.047267436981201,73.56561279296875,42.24570846557617,95.10604858398438,-42.19862747192383,65535.0
18570.30672710836,3073.455078125,3488.48291015625,2973.75048828125,2234.009765625,-0.8294233083724976,77.28511047363281,42.01960372924805,97.20252227783203,-37.19241714477539,65535.0
18570.307127116914,3075.2236328125,3485.497802734375,2987.07373046875,2205.0302734375,-5.79769229888916,73.19708251953125,37.87845230102539,93.96417999267578,-52.42359924316406,65535.0
18570.307527125467,3062.770751953125,3482.51171875,2977.962646484375,2194.408447265625,-8.302876472473145,69.1441421508789,35.85195541381836,90.65752410888672,-44.70183563232422,65535.0
18570.30792713402,3027.997802734375,3470.85498046875,2972.412109375,2204.9765625,1.2641438245773315,76.7181625366211,41.83641815185547,97.7776870727539,-54.7545280456543,65535.0
18570.30832714257,3002.968994140625,3477.5390625,2974.12158203125,2249.245849609375,-5.871030807495117,71.0384292602539,37.03243637084961,93.78874206542969,-54.11651611328125,65535.0
18570.308727151125,2966.297119140625,3484.014892578125,2964.96923828125,2295.072021484375,-2.220332622528076,75.69681549072266,41.29828643798828,96.40987396240234,-41.43604278564453,65535.0
18570.30912715968,2982.133544921875,3476.055908203125,2966.509765625,2337.1533203125,-4.915987968444824,74.54835510253906,39.873268127441406,97.04846954345703,-36.14350509643555,65535.0
18570.30952716823,3003.453857421875,3471.913330078125,2964.058349609375,2381.668701171875,-3.4653568267822266,76.00413513183594,40.80947494506836,98.03870391845703,-37.078182220458984,65535.0
18570.309927176782,3019.9560546875,3483.11376953125,2969.995849609375,2416.3271484375,-5.079556465148926,70.491943359375,38.60995101928711,92.75687408447266,-30.854848861694336,65535.0
18570.310327185336,3032.80029296875,3479.156982421875,2981.98828125,2435.974365234375,1.8337758779525757,78.39025115966797,46.738677978515625,99.4406967163086,-44.51388168334961,65535.0
18570.31072719389,3053.737548828125,3482.72265625,2982.0732421875,2419.25,-1.7910112142562866,74.91690826416016,42.59831619262695,99.47418212890625,-41.651390075683594,65535.0
18570.31112720244,3083.256591796875,3490.242431640625,2986.3408203125,2385.033203125,-13.398133277893066,60.3620491027832,31.55730628967285,88.26134490966797,-39.53702926635742,65535.0
18570.311527210994,3088.529296875,3482.370361328125,2987.283203125,2377.78515625,-12.655560493469238,56.15208435058594,26.339513778686523,84.51484680175781,-45.021812438964844,65535.0
18570.311927219547,3087.695068359375,3489.373779296875,2992.467529296875,2366.622802734375,-3.280299663543701,66.53994750976562,38.63352966308594,97.28822326660156,-36.47563934326172,65535.0
18570.312327228097,3083.1396484375,3478.445068359375,3002.194091796875,2334.0244140625,1.674230694770813,72.12203979492188,45.847267150878906,101.83485412597656,-27.543636322021484,65535.0
18570.31272723665,3069.5751953125,3485.573486328125,2996.921875,2292.0673828125,0.28761154413223267,69.0981216430664,42.819244384765625,97.78923034667969,-48.881385803222656,65535.0
18570.313127245205,3047.153076171875,3494.81787109375,2979.96875,2244.880126953125,-8.462220191955566,60.8851318359375,34.60491180419922,91.09609985351562,-48.238807678222656,65535.0
18570.31352725376,3022.49853515625,3480.66162109375,2986.5478515625,2224.972412109375,-15.045454978942871,51.67811584472656,26.933238983154297,84.11075592041016,-38.32276153564453,65535.0
18570.31392726231,2984.3623046875,3483.385986328125,2999.451416015625,2235.4345703125,-17.92452049255371,47.192848205566406,26.050609588623047,80.65026092529297,-39.85585403442383,65535.0
18570.314327270862,2985.4326171875,3485.1884765625,2999.00830078125,2272.889404296875,-12.644159317016602,51.264060974121094,28.42812728881836,84.36746215820312,-48.17414855957031,65535.0
18570.314727279416,2996.453369140625,3479.313720703125,3006.951904296875,2299.948974609375,-10.126899719238281,54.606441497802734,31.848548889160156,88.86183166503906,-36.93819808959961,65535.0
18570.315127287966,3023.231201171875,3484.331787109375,3005.17333984375,2294.51318359375,-22.138832092285156,40.2559928894043,22.45252227783203,77.99823760986328,-43.62689971923828,65535.0
18570.31552729652,3019.482177734375,3485.820556640625,3009.1904296875,2292.46435546875,-19.159027099609375,41.925384521484375,24.7940616607666,78.86848449707031,-29.950660705566406,65535.0
18570.315927305073,2995.488037109375,3481.256103515625,3005.5419921875,2273.369140625,-9.547913551330566,50.399444580078125,35.56948471069336,91.23783874511719,-43.745391845703125,65535.0
18570.316327313627,2977.98046875,3488.662353515625,2992.1796875,2269.823974609375,-18.8844051361084,39.00522994995117,25.212867736816406,81.00267791748047,-39.00007247924805,65535.0
18570.316727322177,2974.62158203125,3485.910888671875,2993.767822265625,2278.895751953125,-16.23993492126465,44.584617614746094,28.37393569946289,84.63638305664062,-29.754457473754883,65535.0
18570.31712733073,2969.67431640625,3478.97314453125,2995.466552734375,2285.800048828125,-18.912450790405273,42.1952018737793,24.1397705078125,80.25545501708984,-48.96736145019531,65535.0
18570.317527339284,2998.138671875,3472.026611328125,3001.3095703125,2286.155029296875,-36.437992095947266,18.30592155456543,7.217791557312012,62.6726188659668,-41.079185485839844,65535.0
18570.317927347834,3024.680419921875,3472.95849609375,2998.46923828125,2302.327392578125,-23.285764694213867,31.258907318115234,21.330005645751953,77.39462280273438,-47.955074310302734,65535.0
18570.31832735639,3028.887451171875,3475.890625,3003.767822265625,2328.581787109375,-19.52161979675293,36.47032928466797,22.450824737548828,77.16800689697266,-48.20083236694336,65535.0
18570.318727364942,3017.366455078125,3475.548583984375,3000.178466796875,2337.1572265625,-24.380212783813477,30.159677505493164,17.42595672607422,74.33772277832031,-40.728782653808594,65535.0
18570.319127373496,3005.947998046875,3474.31396484375,3005.02978515625,2337.3798828125,-21.80082130432129,32.81363296508789,20.492290496826172,76.58100891113281,-38.52738571166992,65535.0
18570.319527382046,3010.622802734375,3473.607666015625,3005.62548828125,2322.494384765625,-21.555429458618164,34.033443450927734,22.604736328125,78.2979507446289,-33.23935317993164,65535.0
18570.3199273906,3023.353759765625,3469.831298828125,3003.1357421875,2315.7900390625,-13.591253280639648,43.43128204345703,30.716060638427734,83.83834075927734,-36.14957046508789,65535.0
18570.320327399153,3016.57763671875,3475.63671875,3003.47119140625,2311.87890625,-10.276917457580566,48.02730178833008,31.840373992919922,85.4721450805664,-40.43313217163086,65535.0
18570.320727407703,3029.037841796875,3469.187255859375,3005.533935546875,2292.51611328125,-17.923959732055664,44.181575775146484,25.436859130859375,80.65152740478516,-42.05858612060547,65535.0
18570.321127416257,3039.3310546875,3469.375,3001.3671875,2277.540283203125,-24.169633865356445,34.09145736694336,18.3212947845459,73.56611633300781,-42.7984619140625,65535.0
18570.32152742481,3055.89697265625,3468.191650390625,3002.1640625,2265.90966796875,-22.692102432250977,36.80884552001953,16.75053596496582,75.8388671875,-39.30630111694336,65535.0
18570.321927433364,3074.2646484375,3473.19384765625,3000.511474609375,2236.956298828125,-18.05558204650879,44.04861831665039,24.861635208129883,80.30644989013672,-44.83622741699219,65535.0
18570.322327441914,3074.555908203125,3471.367919921875,3005.939453125,2239.0625,-17.293682098388672,47.39429473876953,24.28116226196289,82.25128936767578,-52.424808502197266,65535.0
18570.322727450468,3078.5087890625,3457.359619140625,3006.775146484375,2247.896484375,-14.545680046081543,50.177215576171875,28.402233123779297,86.3646011352539,-39.179779052734375,65535.0
18570.32312745902,3098.14990234375,3452.98779296875,3019.59716796875,2250.8291015625,-17.144126892089844,48.43853759765625,28.97395896911621,81.33274841308594,-48.845340728759766,65535.0
18570.32352746757,3088.69287109375,3468.1435546875,3016.32958984375,2250.328369140625,-6.773331165313721,59.692230224609375,36.423118591308594,91.62956237792969,-41.840091705322266,65535.0
18570.323927476125,3058.909912109375,3470.59912109375,3002.540771484375,2237.368408203125,-10.459856986999512,59.4417839050293,33.162513732910156,87.50670623779297,-36.99428939819336,65535.0
18570.32432748468,3038.46728515625,3462.07177734375,3007.140625,2239.708740234375,-10.83317756652832,60.9023323059082,32.06525802612305,87.89722442626953,-36.482521057128906,65535.0
18570.324727493233,3015.64501953125,3463.136962890625,3005.12158203125,2278.710693359375,-9.513141632080078,62.961971282958984,35.261146545410156,90.05429077148438,-42.99365997314453,65535.0
18570.325127501783,2981.7509765625,3461.036865234375,3014.4375,2273.805419921875,3.564133405685425,77.03630065917969,44.59696578979492,101.51227569580078,-55.300537109375,65535.0
18570.325527510337,2972.92578125,3466.088623046875,3026.93115234375,2260.29150390625,-9.766997337341309,63.70732116699219,33.78569793701172,89.35627746582031,-40.81977844238281,65535.0
18570.32592751889,2986.72314453125,3457.263427734375,3029.0849609375,2292.88427734375,-5.143776893615723,65.72152709960938,36.48190689086914,91.59419250488281,-36.77286148071289,65535.0
18570.32632752744,2997.888916015625,3446.468994140625,3020.875244140625,2305.21875,-6.030073642730713,70.29882049560547,35.72899627685547,91.66311645507812,-43.88678741455078,65535.0
18570.326727535994,2995.69921875,3456.352783203125,3015.249755859375,2298.235595703125,-2.0350501537323,74.32637786865234,38.59085464477539,97.61141204833984,-47.694129943847656,65535.0
18570.327127544548,2982.9560546875,3456.993896484375,3029.3935546875,2268.295654296875,-4.261241436004639,73.20753479003906,40.476341247558594,96.21324157714844,-48.2618293762207,65535.0
18570.3275275531,2979.397705078125,3454.3291015625,3027.94873046875,2271.15673828125,2.845881223678589,80.86502075195312,47.14799880981445,102.38725280761719,-44.601715087890625,65535.0
18570.32792756165,2989.91015625,3446.217041015625,3031.183837890625,2288.7841796875,-3.848809003829956,72.2610092163086,39.383277893066406,93.20374298095703,-30.283769607543945,65535.0
18570.328327570205,2985.2333984375,3452.282470703125,3016.57861328125,2280.286376953125,-6.883031845092773,69.13006591796875,35.98967742919922,93.02767944335938,-35.767574310302734,65535.0
18570.32872757876,2997.69140625,3459.071044921875,3013.1171875,2275.5595703125,-5.105991840362549,73.1419906616211,39.1280632019043,94.77285766601562,-45.61613464355469,65535.0
18570.32912758731,3021.4091796875,3463.786865234375,3010.615478515625,2232.95849609375,-8.059995651245117,69.6027603149414,37.63719177246094,91.16998291015625,-47.71480941772461,65535.0
18570.329527595863,3041.677001953125,3462.849609375,3024.712158203125,2195.308349609375,-9.56747055053711,66.98229217529297,33.53282928466797,90.41238403320312,-28.302961349487305,65535.0
18570.329927604416,3053.01416015625,3457.23193359375,3030.528076171875,2203.336181640625,-2.1092398166656494,74.4238052368164,42.236263275146484,97.2962417602539,-35.36698913574219,65535.0
18570.33032761297,3049.80615234375,3467.77392578125,3028.156982421875,2215.885986328125,-3.745973825454712,69.32787322998047,43.75337600708008,96.10243225097656,-22.931978225708008,65535.0
18570.33072762152,3030.526611328125,3465.065185546875,3019.99951171875,2247.31396484375,-10.163823127746582,59.82182693481445,34.113487243652344,89.23043060302734,-32.09312438964844,65535.0
18570.331127630074,3028.78515625,3456.384765625,3026.732177734375,2251.758056640625,-5.063591480255127,63.30485916137695,36.29151916503906,92.3409423828125,-41.91156768798828,65535.0
18570.331527638627,3023.947021484375,3462.143798828125,3026.973388671875,2235.14599609375,-7.1985392570495605,62.88933563232422,36.859867095947266,89.29781341552734,-46.28864669799805,65535.0
18570.331927647178,3005.609130859375,3464.988037109375,3024.41064453125,2228.8154296875,-7.071235179901123,62.08525848388672,32.14556121826172,87.13164520263672,-52.38541793823242,65535.0
18570.33232765573,3015.14404296875,3472.8056640625,3034.626708984375,2241.177734375,-15.25810432434082,52.33290481567383,26.815940856933594,79.81725311279297,-48.290523529052734,65535.0
18570.332727664285,3029.849609375,3465.28271484375,3025.335205078125,2233.538330078125,-15.813424110412598,52.214176177978516,28.84459686279297,86.455078125,-41.23957443237305,65535.0
18570.33312767284,3040.156982421875,3464.5400390625,3022.574951171875,2203.643798828125,-12.990249633789062,52.362945556640625,31.409160614013672,87.08977508544922,-49.960025787353516,65535.0
18570.33352768139,3035.84033203125,3465.15576171875,3021.178955078125,2187.0283203125,-22.726919174194336,38.409542083740234,19.80359649658203,72.00472259521484,-32.15108871459961,65535.0
18570.333927689942,3039.80517578125,3470.9423828125,3024.3388671875,2183.12353515625,-26.75762176513672,36.09329605102539,16.203615188598633,72.72564697265625,-27.917476654052734,65535.0
18570.334327698496,3050.893310546875,3482.44384765625,3034.936767578125,2184.23388671875,-21.29842185974121,40.411006927490234,21.40826988220215,76.08777618408203,-41.9188346862793,65535.0
18570.334727707046,3024.854248046875,3484.356201171875,3022.148681640625,2197.019287109375,-26.04995346069336,34.46927261352539,18.527400970458984,71.0932846069336,-42.2627067565918,65535.0
18570.3351277156,3003.28173828125,3482.7080078125,3012.076171875,2186.220458984375,-29.053272247314453,29.190441131591797,15.597034454345703,71.37377166748047,-53.2271842956543,65535.0
18570.335527724154,3010.911376953125,3480.18798828125,3016.8798828125,2183.40966796875,-19.66650390625,38.477272033691406,21.15025520324707,78.85690307617188,-62.72245788574219,65535.0
18570.335927732707,3025.13720703125,3489.61181640625,3022.1220703125,2183.26513671875,-31.38551902770996,26.008968353271484,12.467060089111328,67.21196746826172,-41.13779830932617,65535.0
18570.336327741257,3021.9482421875,3474.647216796875,3019.4833984375,2195.479248046875,-19.77837371826172,35.66679763793945,23.200366973876953,79.25548553466797,-41.24712371826172,65535.0
18570.33672774981,3025.63525390625,3474.4609375,3021.55517578125,2214.341552734375,-20.539325714111328,35.23405838012695,20.303974151611328,76.94876098632812,-39.6257438659668,65535.0
18570.337127758365,3007.69873046875,3468.81591796875,3019.762451171875,2240.36572265625,-21.327510833740234,37.120384216308594,23.543750762939453,78.06999969482422,-37.58616256713867,65535.0
18570.337527766915,2995.8779296875,3465.742919921875,3015.89990234375,2260.814697265625,-23.820009231567383,31.131166458129883,19.635055541992188,74.97307586669922,-47.57582473754883,65535.0
18570.33792777547,3004.1015625,3471.632568359375,3017.914794921875,2263.385498046875,-20.581560134887695,33.860252380371094,22.195758819580078,78.86943817138672,-34.995059967041016,65535.0
18570.338327784022,2994.9736328125,3459.492919921875,3021.381103515625,2258.514892578125,-21.95377540588379,32.059635162353516,22.118478775024414,75.97540283203125,-45.019039154052734,65535.0
18570.338727792576,2976.490966796875,3473.119140625,3018.204833984375,2251.33642578125,-21.138704299926758,32.350276947021484,19.408740997314453,78.18120574951172,-43.231021881103516,65535.0
18570.339127801126,2964.948974609375,3473.673828125,3020.756591796875,2220.193115234375,-28.01397705078125,25.033546447753906,13.533998489379883,67.81794738769531,-41.80034255981445,65535.0
18570.33952780968,2968.01806640625,3456.631591796875,3020.83203125,2203.334228515625,-24.271846771240234,28.616661071777344,14.98927116394043,71.52064514160156,-36.27470397949219,65535.0
18570.339927818233,2968.625732421875,3467.83935546875,3008.659912109375,2220.06591796875,-26.725204467773438,29.01950454711914,18.14700698852539,74.01781463623047,-32.25255584716797,65535.0
18570.340327826783,2945.093505859375,3471.3046875,3017.7607421875,2235.8740234375,-30.00360870361328,26.956092834472656,16.130090713500977,69.5085678100586,-28.766956329345703,65535.0
18570.340727835337,2932.087890625,3455.3740234375,3009.81884765625,2245.405029296875,-27.634639739990234,26.570791244506836,17.559431076049805,71.35317993164062,-34.371429443359375,65535.0
18570.34112784389,2925.552734375,3458.9365234375,3016.320068359375,2256.75732421875,-24.379112243652344,32.8015251159668,18.083391189575195,73.92401885986328,-42.6820182800293,65535.0
18570.341527852444,2932.809326171875,3457.26220703125,3014.8330078125,2269.667724609375,-28.142786026000977,31.18675994873047,14.403324127197266,70.2096176147461,-37.87423324584961,65535.0
18570.341927860994,2931.252197265625,3465.74462890625,3010.82958984375,2258.665283203125,-32.224151611328125,28.772207260131836,14.670955657958984,68.16278076171875,-52.455257415771484,65535.0
18570.342327869548,2940.435546875,3466.7177734375,3014.833984375,2232.1650390625,-18.995800018310547,36.95845413208008,22.23189926147461,75.98889923095703,-46.88138961791992,65535.0
18570.342727878102,2948.47705078125,3470.554931640625,3029.311279296875,2222.232666015625,-18.7606258392334,39.96562194824219,22.194313049316406,78.98932647705078,-37.59601593017578,65535.0
18570.343127886652,2937.348388671875,3464.25927734375,3029.244873046875,2224.65966796875,-24.493314743041992,39.22793960571289,18.80630111694336,75.09518432617188,-40.558109283447266,65535.0
18570.343527895206,2943.54931640625,3473.690185546875,3020.048583984375,2228.690185546875,-16.695722579956055,42.31467056274414,22.297286987304688,78.20680236816406,-39.407562255859375,65535.0
18570.34392790376,2940.484619140625,3459.1025390625,3022.078369140625,2246.8681640625,-11.608057975769043,54.922508239746094,30.690263748168945,87.31095123291016,-38.75360107421875,65535.0
18570.344327912313,2931.1728515625,3465.8271484375,3006.515380859375,2261.0859375,-16.280221939086914,52.64719772338867,27.849594116210938,81.61759185791016,-45.00318145751953,65535.0
18570.344727920863,2942.833740234375,3466.485595703125,3017.162109375,2292.45556640625,-13.616819381713867,53.24009704589844,25.28129005432129,81.52515411376953,-44.208839416503906,65535.0
18570.345127929417,2936.73193359375,3471.93505859375,3008.99951171875,2328.85888671875,-26.83538818359375,45.385616302490234,21.060367584228516,74.34016418457031,-50.93144989013672,65535.0
18570.34552793797,2951.8828125,3473.029052734375,2995.407470703125,2335.11865234375,-30.948118209838867,40.919639587402344,15.5225830078125,72.10128021240234,-50.10539245605469,65535.0
18570.34592794652,2959.596435546875,3475.55908203125,3003.863037109375,2298.04443359375,-14.459619522094727,53.25503158569336,26.884479522705078,83.1341781616211,-42.3287353515625,65535.0
18570.346327955074,2953.052734375,3472.938232421875,3005.9697265625,2281.75048828125,-4.241154670715332,68.84961700439453,37.97836685180664,93.2486801147461,-49.414588928222656,65535.0
18570.346727963628,2954.031494140625,3472.442138671875,3007.975830078125,2290.2744140625,-8.70653247833252,67.94955444335938,35.895626068115234,90.31352233886719,-44.612403869628906,65535.0
18570.34712797218,2957.839599609375,3471.794189453125,3015.95556640625,2300.76416015625,-5.285083770751953,67.78944396972656,36.701995849609375,93.43000793457031,-39.99163818359375,65535.0
18570.34752798073,2972.8017578125,3485.1806640625,3021.403564453125,2275.41259765625,-9.493244171142578,65.0792007446289,33.58600997924805,90.09109497070312,-40.21105194091797,65535.0
18570.347927989285,2974.147216796875,3478.542236328125,3016.3076171875,2200.071044921875,-16.605838775634766,55.9393196105957,27.627004623413086,82.57661437988281,-52.59796142578125,65535.0
18570.34832799784,2971.582275390625,3479.441650390625,3017.38330078125,2148.09814453125,-15.352356910705566,56.16971969604492,27.92783546447754,81.41748809814453,-45.518497467041016,65535.0
18570.34872800639,2978.8271484375,3477.910400390625,3014.89990234375,2148.22802734375,-12.81518840789795,60.67897033691406,29.416656494140625,87.79618835449219,-27.15253448486328,65535.0
18570.349128014943,2979.629638671875,3489.175048828125,3005.993896484375,2191.0048828125,-0.8889682292938232,74.20720672607422,41.29396057128906,95.40465545654297,-45.910892486572266,65535.0
18570.349528023497,2974.56640625,3486.88916015625,3018.564208984375,2265.9501953125,5.548223495483398,80.15563201904297,49.3029670715332,102.60590362548828,-42.23544692993164,65535.0
18570.34992803205,2960.022216796875,3483.800537109375,3015.7978515625,2358.95361328125,-3.015472173690796,71.10133361816406,41.755611419677734,98.23991394042969,-43.47388458251953,65535.0
18570.3503280406,2963.83056640625,3478.424072265625,3011.963623046875,2426.73486328125,-7.046219348907471,64.34268188476562,35.74576950073242,90.69583129882812,-50.047420501708984,65535.0
