time,X_NOSE,Y_NOSE,Z_NOSE,visibility_NOSE,X_LEFT_EYE_INNER,Y_LEFT_EYE_INNER,Z_LEFT_EYE_INNER,visibility_LEFT_EYE_INNER,X_LEFT_EYE,Y_LEFT_EYE,Z_LEFT_EYE,visibility_LEFT_EYE,X_LEFT_EYE_OUTER,Y_LEFT_EYE_OUTER,Z_LEFT_EYE_OUTER,visibility_LEFT_EYE_OUTER,X_RIGHT_EYE_OUTER,Y_RIGHT_EYE_OUTER,Z_RIGHT_EYE_OUTER,visibility_RIGHT_EYE_OUTER,X_RIGHT_EYE,Y_RIGHT_EYE,Z_RIGHT_EYE,visibility_RIGHT_EYE,X_RIGHT_EYE_OUTER,Y_RIGHT_EYE_OUTER,Z_RIGHT_EYE_OUTER,visibility_RIGHT_EYE_OUTER,X_LEFT_EAR,Y_LEFT_EAR,Z_LEFT_EAR,visibility_LEFT_EAR,X_RIGHT_EAR,Y_RIGHT_EAR,Z_RIGHT_EAR,visibility_RIGHT_EAR,X_MOUTH_LEFT,Y_MOUTH_LEFT,Z_MOUTH_LEFT,visibility_MOUTH_LEFT,X_MOUTH_RIGHT,Y_MOUTH_RIGHT,Z_MOUTH_RIGHT,visibility_MOUTH_RIGHT,X_LEFT_SHOULDER,Y_LEFT_SHOULDER,Z_LEFT_SHOULDER,visibility_LEFT_SHOULDER,X_RIGHT_SHOULDER,Y_RIGHT_SHOULDER,Z_RIGHT_SHOULDER,visibility_RIGHT_SHOULDER,X_LEFT_ELBOW,Y_LEFT_ELBOW,Z_LEFT_ELBOW,visibility_LEFT_ELBOW,X_RIGHT_ELBOW,Y_RIGHT_ELBOW,Z_RIGHT_ELBOW,visibility_RIGHT_ELBOW,X_LEFT_WRIST,Y_LEFT_WRIST,Z_LEFT_WRIST,visibility_LEFT_WRIST,X_RIGHT_WRIST,Y_RIGHT_WRIST,Z_RIGHT_WRIST,visibility_RIGHT_WRIST,X_LEFT_PINKY,Y_LEFT_PINKY,Z_LEFT_PINKY,visibility_LEFT_PINKY,X_RIGHT_PINKY,Y_RIGHT_PINKY,Z_RIGHT_PINKY,visibility_RIGHT_PINKY,X_LEFT_INDEX,Y_LEFT_INDEX,Z_LEFT_INDEX,visibility_LEFT_INDEX,X_RIGHT_INDEX,Y_RIGHT_INDEX,Z_RIGHT_INDEX,visibility_RIGHT_INDEX,X_LEFT_THUMB,Y_LEFT_THUMB,Z_LEFT_THUMB,visibility_LEFT_THUMB,X_RIGHT_THUMB,Y_RIGHT_THUMB,Z_RIGHT_THUMB,visibility_RIGHT_THUMB,X_LEFT_HIP,Y_LEFT_HIP,Z_LEFT_HIP,visibility_LEFT_HIP,X_RIGHT_HIP,Y_RIGHT_HIP,Z_RIGHT_HIP,visibility_RIGHT_HIP,X_LEFT_KNEE,Y_LEFT_KNEE,Z_LEFT_KNEE,visibility_LEFT_KNEE,X_RIGHT_KNEE,Y_RIGHT_KNEE,Z_RIGHT_KNEE,visibility_RIGHT_KNEE,X_LEFT_ANKLE,Y_LEFT_ANKLE,Z_LEFT_ANKLE,visibility_LEFT_ANKLE,X_RIGHT_ANKLE,Y_RIGHT_ANKLE,Z_RIGHT_ANKLE,visibility_RIGHT_ANKLE,X_LEFT_HEEL,Y_LEFT_HEEL,Z_LEFT_HEEL,visibility_LEFT_HEEL,X_RIGHT_HEEL,Y_RIGHT_HEEL,Z_RIGHT_HEEL,visibility_RIGHT_HEEL,X_LEFT_FOOT_INDEX,Y_LEFT_FOOT_INDEX,Z_LEFT_FOOT_INDEX,visibility_LEFT_FOOT_INDEX,X_RIGHT_FOOT_INDEX,Y_RIGHT_FOOT_INDEX,Z_RIGHT_FOOT_INDEX,visibility_RIGHT_FOOT_INDEX
19218.19475588609,0.4461698532104492,0.23931777477264404,-1.1350165605545044,0.9999877214431763,0.4506838321685791,0.21347269415855408,-1.0917775630950928,0.9999608993530273,0.4589032530784607,0.21194300055503845,-1.091843843460083,0.9999517202377319,0.4663429260253906,0.21050092577934265,-1.0919150114059448,0.9999469518661499,0.4183022081851959,0.2165951430797577,-1.1221195459365845,0.9999711513519287,0.401061087846756,0.21703800559043884,-1.1223783493041992,0.9999709129333496,0.3821089267730713,0.21762850880622864,-1.122528314590454,0.9999699592590332,0.4586859345436096,0.21625715494155884,-0.7679774165153503,0.9999085664749146,0.332614004611969,0.22702577710151672,-0.9217074513435364,0.999976634979248,0.45709022879600525,0.25981229543685913,-1.0071338415145874,0.9999921321868896,0.42327365279197693,0.26278623938560486,-1.0502471923828125,0.9999961853027344,0.5418704152107239,0.3474501967430115,-0.4865487217903137,0.9999594688415527,0.17471826076507568,0.3708350658416748,-0.7788951396942139,0.9999679327011108,0.5757150650024414,0.5129598379135132,-0.28286176919937134,0.9857616424560547,0.17587018013000488,0.5541204214096069,-0.756210207939148,0.9949169158935547,0.6305732131004333,0.6520209312438965,-0.5024808645248413,0.9887623190879822,0.23230230808258057,0.7084723711013794,-0.9225032925605774,0.9684388637542725,0.6533854007720947,0.6913065910339355,-0.5928040742874146,0.9754608273506165,0.23607224225997925,0.7545769810676575,-1.0171877145767212,0.9401252865791321,0.6333231329917908,0.6920390129089355,-0.6890286803245544,0.9775683879852295,0.27840495109558105,0.7469165921211243,-1.0985580682754517,0.9439349174499512,0.61748868227005,0.6839666366577148,-0.5456833243370056,0.9767196178436279,0.286094069480896,0.7321171164512634,-0.9566356539726257,0.9463425874710083,0.4892021417617798,0.6354700922966003,0.10733741521835327,0.9984151124954224,0.31395599246025085,0.6522352695465088,-0.10717366635799408,0.999168872833252,0.48191365599632263,0.8493173122406006,0.3534773290157318,0.9524323344230652,0.33571159839630127,0.8774877786636353,0.028528548777103424,0.9804434180259705,0.4766918122768402,0.9626089334487915,1.056803822517395,0.8573216199874878,0.3514898419380188,0.9979220628738403,0.5104999542236328,0.924713134765625,0.4516662359237671,0.9771878719329834,1.1108330488204956,0.7917411923408508,0.33078619837760925,1.0367151498794556,0.542646050453186,0.6600133776664734,0.5524634122848511,1.0206568241119385,0.8953254818916321,0.8186088800430298,0.39917290210723877,1.112044095993042,0.1818128377199173,0.8326327800750732
19234.861422552756,0.4470548629760742,0.2386561930179596,-1.1567589044570923,0.9999794960021973,0.45108288526535034,0.21287629008293152,-1.1138583421707153,0.9999392032623291,0.4589911103248596,0.21148571372032166,-1.113926649093628,0.9999246597290039,0.46586984395980835,0.21018239855766296,-1.1139909029006958,0.9999173879623413,0.4191364347934723,0.21517303586006165,-1.1453170776367188,0.9999566078186035,0.4022233784198761,0.21534982323646545,-1.145585298538208,0.9999569654464722,0.3834858238697052,0.21589285135269165,-1.1457374095916748,0.9999561309814453,0.4558473825454712,0.21574971079826355,-0.7895409464836121,0.9998618364334106,0.33290696144104004,0.2259978950023651,-0.9471747875213623,0.9999674558639526,0.45625901222229004,0.25928470492362976,-1.0287928581237793,0.9999874830245972,0.42280492186546326,0.26195505261421204,-1.072858214378357,0.9999939203262329,0.5411727428436279,0.3477104604244232,-0.5065051317214966,0.9999357461929321,0.17396962642669678,0.372721791267395,-0.7983578443527222,0.9999523162841797,0.5802562832832336,0.5116181969642639,-0.29877886176109314,0.9834786653518677,0.17659211158752441,0.5570930242538452,-0.7679830193519592,0.9946228265762329,0.6310900449752808,0.6525400876998901,-0.5207871198654175,0.9837362170219421,0.23249028623104095,0.7082661986351013,-0.928957462310791,0.9619337916374207,0.6544588804244995,0.6928783059120178,-0.6109898686408997,0.9652871489524841,0.23748156428337097,0.7535573244094849,-1.0241498947143555,0.9282094240188599,0.6343474984169006,0.6935103535652161,-0.7058001160621643,0.968329668045044,0.2782922387123108,0.745811939239502,-1.1059858798980713,0.9330530762672424,0.6191376447677612,0.6848136186599731,-0.563579797744751,0.9679706692695618,0.2854592204093933,0.7309927940368652,-0.9633527994155884,0.9369015693664551,0.489645391702652,0.635951578617096,0.10362672060728073,0.9980883002281189,0.31409695744514465,0.6518971920013428,-0.1034240648150444,0.9988951086997986,0.48159465193748474,0.8505920171737671,0.3679117262363434,0.9445491433143616,0.33760571479797363,0.8757047057151794,0.06590596586465836,0.9739547371864319,0.4758829176425934,0.9650827050209045,1.0439156293869019,0.8539425134658813,0.3520495295524597,0.9945734143257141,0.5841439366340637,0.9063844680786133,0.45037490129470825,0.9788065552711487,1.0947991609573364,0.7974173426628113,0.3437659740447998,0.995475172996521,0.6202256679534912,0.6540714502334595,0.548073947429657,1.024834394454956,0.864523708820343,0.8081397414207458,0.3904944658279419,1.106400489807129,0.26168110966682434,0.7969031929969788
19251.528089219424,0.4463845193386078,0.23842507600784302,-1.1527653932571411,0.9999831914901733,0.4515046179294586,0.2121177315711975,-1.1114555597305298,0.9999475479125977,0.4598539173603058,0.21074602007865906,-1.11149001121521,0.9999334812164307,0.46724629402160645,0.20944184064865112,-1.1115466356277466,0.9999279975891113,0.4184447228908539,0.21487700939178467,-1.1429709196090698,0.9999632835388184,0.4009054899215698,0.215275377035141,-1.1432392597198486,0.9999626874923706,0.3820604383945465,0.21602463722229004,-1.1433851718902588,0.9999628067016602,0.4595464766025543,0.21572089195251465,-0.7930092811584473,0.9998730421066284,0.3320735692977905,0.22659993171691895,-0.9517235159873962,0.9999704360961914,0.4565390646457672,0.25932198762893677,-1.0264153480529785,0.9999887943267822,0.42285051941871643,0.26197338104248047,-1.070853590965271,0.9999946355819702,0.54315185546875,0.3477947413921356,-0.5174381136894226,0.9999380111694336,0.1703382283449173,0.37374889850616455,-0.8041905164718628,0.9999581575393677,0.5779088139533997,0.5130566954612732,-0.30707961320877075,0.9835251569747925,0.17428863048553467,0.5550802946090698,-0.7725356221199036,0.9945857524871826,0.6326554417610168,0.6531849503517151,-0.5092191696166992,0.9853968024253845,0.23150837421417236,0.7106977701187134,-0.9177380800247192,0.9675003290176392,0.6551394462585449,0.6934462189674377,-0.5942879915237427,0.9685711860656738,0.2347356081008911,0.7560755610466003,-1.0094105005264282,0.9379994869232178,0.6358093023300171,0.6938162446022034,-0.6896130442619324,0.9713171720504761,0.27633410692214966,0.7481100559234619,-1.0874210596084595,0.941941499710083,0.6201975345611572,0.6852403283119202,-0.551947295665741,0.970964252948761,0.28359362483024597,0.7335776090621948,-0.950451672077179,0.945155143737793,0.4916496276855469,0.6351137161254883,0.09969738870859146,0.9980411529541016,0.31296253204345703,0.6524614691734314,-0.09954195469617844,0.9989155530929565,0.48407790064811707,0.8454505205154419,0.3479384481906891,0.9501675367355347,0.33542874455451965,0.8718242645263672,0.06853808462619781,0.9755550026893616,0.4763392508029938,0.9614928960800171,1.025496482849121,0.8632521033287048,0.35157346725463867,0.9944283962249756,0.6073130965232849,0.9175251126289368,0.451678067445755,0.9758592247962952,1.07668936252594,0.801794707775116,0.339891642332077,1.02780020236969,0.6454868912696838,0.6678034067153931,0.5458207130432129,1.0226733684539795,0.8495383858680725,0.8235834240913391,0.387937992811203,1.1034653186798096,0.2916646897792816,0.8206825256347656
19268.194755886092,0.4472265839576721,0.23777319490909576,-1.1469556093215942,0.9999842643737793,0.45147705078125,0.2118314802646637,-1.1031508445739746,0.9999524354934692,0.45958733558654785,0.21052467823028564,-1.1032183170318604,0.9999401569366455,0.46710386872291565,0.20920154452323914,-1.1032739877700806,0.9999339580535889,0.41897231340408325,0.21453091502189636,-1.1346216201782227,0.9999656677246094,0.40183278918266296,0.2150176763534546,-1.1348859071731567,0.9999655485153198,0.3826945126056671,0.21573662757873535,-1.135032057762146,0.9999648332595825,0.4583044946193695,0.21530276536941528,-0.7768773436546326,0.9998859167098999,0.333698570728302,0.22549334168434143,-0.9355072975158691,0.9999744892120361,0.4572889506816864,0.258465439081192,-1.0185030698776245,0.9999902248382568,0.42355310916900635,0.2605949640274048,-1.062907099723816,0.9999954700469971,0.5428124070167542,0.34814485907554626,-0.49242863059043884,0.9999489784240723,0.17398351430892944,0.37157151103019714,-0.7894699573516846,0.9999644756317139,0.5769912600517273,0.5111547708511353,-0.2859562635421753,0.9834528565406799,0.172763854265213,0.5536855459213257,-0.7608264088630676,0.9950491786003113,0.6337792873382568,0.6519763469696045,-0.513931930065155,0.9855169653892517,0.2321193665266037,0.7071762084960938,-0.9251884818077087,0.9663795232772827,0.6564024686813354,0.6911520957946777,-0.6040714979171753,0.9692015647888184,0.23915360867977142,0.7529467940330505,-1.0209072828292847,0.9357598423957825,0.6367750763893127,0.6915836930274963,-0.7018319368362427,0.9719411134719849,0.27787911891937256,0.7460042238235474,-1.10231351852417,0.9402069449424744,0.6207368969917297,0.6829745173454285,-0.5582058429718018,0.9714134931564331,0.28461045026779175,0.7314023971557617,-0.9595239758491516,0.9434379935264587,0.4902690649032593,0.6339086890220642,0.106876902282238,0.9984351992607117,0.31324610114097595,0.6498626470565796,-0.10667482018470764,0.9991337656974792,0.4804299473762512,0.8510077595710754,0.36781951785087585,0.9498287439346313,0.3367446959018707,0.8743869662284851,0.05567362532019615,0.9779729247093201,0.47245702147483826,0.96610027551651,1.0655814409255981,0.858316957950592,0.35207170248031616,0.993041455745697,0.5731950402259827,0.9170806407928467,0.4468546509742737,0.9780610203742981,1.1186137199401855,0.8015468716621399,0.33445829153060913,1.0302196741104126,0.6093407869338989,0.6667319536209106,0.5436426401138306,1.0253829956054688,0.8933094143867493,0.8159752488136292,0.39197009801864624,1.1056361198425293,0.2518947124481201,0.8190177083015442
19284.86142255276,0.44755348563194275,0.24116241931915283,-1.1569241285324097,0.9999775886535645,0.4528711140155792,0.21664169430732727,-1.1141724586486816,0.9999315738677979,0.4605313837528229,0.21533402800559998,-1.114255666732788,0.9999146461486816,0.46749064326286316,0.214048832654953,-1.1143510341644287,0.9999058246612549,0.4214476943016052,0.21796110272407532,-1.1454771757125854,0.9999512434005737,0.4057163894176483,0.21756082773208618,-1.145755648612976,0.9999518394470215,0.38667622208595276,0.21743977069854736,-1.145922303199768,0.9999514818191528,0.457740843296051,0.21809902787208557,-0.785005509853363,0.9998422861099243,0.33669498562812805,0.22566759586334229,-0.9421834349632263,0.9999654293060303,0.45519688725471497,0.2616639733314514,-1.0260212421417236,0.9999866485595703,0.4232897460460663,0.2645883560180664,-1.0701242685317993,0.9999938011169434,0.539397656917572,0.345788836479187,-0.48759740591049194,0.9999390840530396,0.17575892806053162,0.369357168674469,-0.7890337705612183,0.9999620914459229,0.5761716365814209,0.5103167295455933,-0.2736009359359741,0.9805066585540771,0.17266038060188293,0.5525670647621155,-0.7581342458724976,0.9947196245193481,0.6328356862068176,0.6495271325111389,-0.49922502040863037,0.9808422327041626,0.23068265616893768,0.706155002117157,-0.9265139698982239,0.962196409702301,0.6561062932014465,0.6910644173622131,-0.5885046124458313,0.9602570533752441,0.23917877674102783,0.7521228790283203,-1.0227388143539429,0.9284828901290894,0.6354060173034668,0.6917784810066223,-0.6853785514831543,0.9637020230293274,0.2779335677623749,0.7445510029792786,-1.1036990880966187,0.9331493973731995,0.6198785305023193,0.6825730204582214,-0.5429830551147461,0.9631721377372742,0.28514188528060913,0.7303003072738647,-0.9604429006576538,0.9360139966011047,0.48818469047546387,0.6350372433662415,0.10734572261571884,0.9981856942176819,0.31581681966781616,0.6504887938499451,-0.1071714386343956,0.9990226030349731,0.48054540157318115,0.8512752652168274,0.35702213644981384,0.9436055421829224,0.33768245577812195,0.8794277906417847,0.04340814799070358,0.975319504737854,0.47553011775016785,0.9631590843200684,1.0675609111785889,0.8365975618362427,0.35181427001953125,0.9931378364562988,0.5503405332565308,0.9053289890289307,0.45006856322288513,0.9782211780548096,1.1222714185714722,0.7719324231147766,0.3275704085826874,1.0369669198989868,0.5852669477462769,0.6300936341285706,0.5484585165977478,1.0233383178710938,0.8972891569137573,0.7927266359329224,0.39506736397743225,1.1121559143066406,0.21995192766189575,0.798675000667572
19301.528089219428,0.44910240173339844,0.23776377737522125,-1.1211529970169067,0.9999823570251465,0.4539196193218231,0.2128107249736786,-1.0778520107269287,0.9999442100524902,0.46161791682243347,0.21165505051612854,-1.0778892040252686,0.9999289512634277,0.46869608759880066,0.21068182587623596,-1.077919840812683,0.9999227523803711,0.4223092198371887,0.21404030919075012,-1.110741138458252,0.9999616146087646,0.40636542439460754,0.21387863159179688,-1.1109896898269653,0.9999607801437378,0.38738393783569336,0.2141646444797516,-1.1111444234848022,0.999961256980896,0.4582259953022003,0.21672803163528442,-0.7622004151344299,0.9998562335968018,0.3363659679889679,0.22373366355895996,-0.9277641177177429,0.9999691247940063,0.45699191093444824,0.2582968771457672,-0.9972281455993652,0.9999876022338867,0.4241071045398712,0.2606217861175537,-1.043686866760254,0.9999943971633911,0.5430787205696106,0.3468662202358246,-0.49196720123291016,0.9999356269836426,0.17503945529460907,0.3690929412841797,-0.7944074273109436,0.9999641180038452,0.5750415325164795,0.5112907886505127,-0.29492202401161194,0.9809104800224304,0.17169106006622314,0.5523502230644226,-0.7770917415618896,0.9944714307785034,0.631004810333252,0.6509873867034912,-0.5044195652008057,0.9839247465133667,0.2330966740846634,0.7066543102264404,-0.9269759654998779,0.9675074815750122,0.6534850001335144,0.691265344619751,-0.5903251767158508,0.9659804701805115,0.23779191076755524,0.751702070236206,-1.0206444263458252,0.9386417865753174,0.6341506838798523,0.6919540762901306,-0.6838037967681885,0.9688032865524292,0.27717727422714233,0.7442754507064819,-1.0966391563415527,0.9422560930252075,0.6175380349159241,0.6826751828193665,-0.5465043783187866,0.9682314395904541,0.2843693494796753,0.7301516532897949,-0.9588060975074768,0.9445347785949707,0.48987191915512085,0.6325276494026184,0.10837758332490921,0.9982832670211792,0.31587857007980347,0.6491493582725525,-0.10822270810604095,0.9991995692253113,0.48133569955825806,0.8418890833854675,0.3967301547527313,0.9535677433013916,0.33653366565704346,0.8686718344688416,0.04910095036029816,0.9817000031471252,0.47287771105766296,0.9591767191886902,1.0625823736190796,0.8892532587051392,0.3518489599227905,0.9903514981269836,0.5559689998626709,0.9351535439491272,0.44810426235198975,0.9735260009765625,1.1119276285171509,0.8315155506134033,0.32974714040756226,1.0246466398239136,0.5904074311256409,0.6988398432731628,0.5476774573326111,1.0185489654541016,0.886751651763916,0.8544910550117493,0.381685733795166,1.1002042293548584,0.2364550083875656,0.852253258228302
19318.194755886096,0.4513855576515198,0.23742039501667023,-1.1122366189956665,0.9999817609786987,0.4546177089214325,0.21158787608146667,-1.066594123840332,0.9999457597732544,0.4617595076560974,0.21050146222114563,-1.066662073135376,0.9999319314956665,0.46828019618988037,0.20950481295585632,-1.0667238235473633,0.9999277591705322,0.42372074723243713,0.21319830417633057,-1.101118564605713,0.999958872795105,0.4074889123439789,0.21335312724113464,-1.1013574600219727,0.9999575614929199,0.38823243975639343,0.21396824717521667,-1.1015000343322754,0.9999570846557617,0.45605048537254333,0.21568915247917175,-0.7471192479133606,0.9998714923858643,0.33613643050193787,0.22457507252693176,-0.9195926785469055,0.9999661445617676,0.4588997960090637,0.2581167221069336,-0.987515926361084,0.999988317489624,0.42681884765625,0.2606814503669739,-1.0359266996383667,0.9999940395355225,0.5421227216720581,0.3477771580219269,-0.48200687766075134,0.9999502897262573,0.17531831562519073,0.37218308448791504,-0.7854281663894653,0.9999518394470215,0.5762170553207397,0.5124235153198242,-0.2865402400493622,0.9834379553794861,0.17462067306041718,0.5554866790771484,-0.7642897367477417,0.9938223361968994,0.6315877437591553,0.6515645384788513,-0.5014861226081848,0.9873955845832825,0.23188601434230804,0.7070062160491943,-0.9162858724594116,0.9650879502296448,0.6528491973876953,0.6920062303543091,-0.5898296236991882,0.9726119637489319,0.23945863544940948,0.7516289949417114,-1.0105445384979248,0.9353299736976624,0.6333167552947998,0.6926032304763794,-0.6835249066352844,0.9750696420669556,0.27777016162872314,0.7447076439857483,-1.087540864944458,0.939357578754425,0.6177958250045776,0.6832948327064514,-0.5434975624084473,0.9741247296333313,0.284577339887619,0.7312741279602051,-0.9486979246139526,0.9415915608406067,0.4885965585708618,0.6330758929252625,0.10822338610887527,0.9985685348510742,0.31603455543518066,0.6499059796333313,-0.1080533042550087,0.9991663694381714,0.4802123010158539,0.8466521501541138,0.3690122067928314,0.9449073672294617,0.3365156948566437,0.874581515789032,0.04022911936044693,0.9762001633644104,0.47186094522476196,0.9629248976707458,1.0528268814086914,0.8712902069091797,0.3489258289337158,0.9884280562400818,0.5740941166877747,0.9186970591545105,0.44648289680480957,0.9758992791175842,1.1040421724319458,0.815507173538208,0.32758477330207825,1.0233384370803833,0.6119203567504883,0.6638697981834412,0.5474205017089844,1.0226093530654907,0.876674473285675,0.8349509835243225,0.3813793361186981,1.0989168882369995,0.2616521120071411,0.8271738290786743
19334.861422552764,0.44570109248161316,0.23785990476608276,-1.145859956741333,0.999987006187439,0.4518023431301117,0.2118486762046814,-1.1023412942886353,0.9999594688415527,0.4603581726551056,0.2107657492160797,-1.1023993492126465,0.9999487400054932,0.46825650334358215,0.2097192108631134,-1.1024538278579712,0.9999442100524902,0.41876736283302307,0.21470600366592407,-1.1330339908599854,0.999970555305481,0.40178918838500977,0.2152298092842102,-1.1332825422286987,0.9999701976776123,0.38323554396629333,0.21590641140937805,-1.1334307193756104,0.9999699592590332,0.4610399007797241,0.21688756346702576,-0.7820732593536377,0.9999006986618042,0.3338591456413269,0.22595155239105225,-0.9371559619903564,0.9999779462814331,0.4567304849624634,0.25915366411209106,-1.0200494527816772,0.9999912977218628,0.422035276889801,0.26093944907188416,-1.0635334253311157,0.9999960660934448,0.542022705078125,0.34819331765174866,-0.5006689429283142,0.9999529123306274,0.17494840919971466,0.3706744313240051,-0.7972779273986816,0.9999680519104004,0.5762827396392822,0.5113347768783569,-0.2947670817375183,0.9833201766014099,0.17249886691570282,0.5513318777084351,-0.7752079367637634,0.9954115748405457,0.6340484619140625,0.6492280960083008,-0.5063076615333557,0.9864971041679382,0.23076552152633667,0.7070095539093018,-0.9348932504653931,0.9697544574737549,0.6571135520935059,0.6907426118850708,-0.5938294529914856,0.9709281921386719,0.23850393295288086,0.7530187368392944,-1.0290846824645996,0.9411903023719788,0.6376447677612305,0.6908779144287109,-0.6887950301170349,0.9733858108520508,0.2774704694747925,0.7461417317390442,-1.1092088222503662,0.9448654651641846,0.622025191783905,0.6817072033882141,-0.549044668674469,0.9728208780288696,0.2845216393470764,0.7325955033302307,-0.9684939980506897,0.9476075768470764,0.4864768385887146,0.6320886611938477,0.1076025739312172,0.9986269474029541,0.31159090995788574,0.6488742828369141,-0.10742821544408798,0.9992517828941345,0.4797534942626953,0.8475786447525024,0.36808666586875916,0.9533877372741699,0.33563894033432007,0.876159131526947,0.051693130284547806,0.9813320636749268,0.47117719054222107,0.9638503193855286,1.0435296297073364,0.8757601380348206,0.3516727685928345,0.9909491539001465,0.5604211091995239,0.926253080368042,0.4447077214717865,0.9768916368484497,1.093995451927185,0.8140794038772583,0.33045339584350586,1.028382658958435,0.5956868529319763,0.6754284501075745,0.5474575757980347,1.024122953414917,0.8674200177192688,0.8346218466758728,0.3927307426929474,1.1035444736480713,0.2408820241689682,0.8343077898025513
19351.52808921943,0.4485321640968323,0.2386862337589264,-1.1237088441848755,0.9999802112579346,0.4524664580821991,0.21349957585334778,-1.07760751247406,0.9999401569366455,0.459850549697876,0.2122911512851715,-1.0776958465576172,0.9999262094497681,0.4665120840072632,0.21121221780776978,-1.0777467489242554,0.9999203681945801,0.4215511977672577,0.21523800492286682,-1.1110461950302124,0.9999548196792603,0.4052444100379944,0.2153470814228058,-1.111286997795105,0.999954104423523,0.38607192039489746,0.21585074067115784,-1.111449122428894,0.9999526739120483,0.45538103580474854,0.21693384647369385,-0.755612313747406,0.9998632669448853,0.33493345975875854,0.22549232840538025,-0.9227713346481323,0.9999632835388184,0.45614632964134216,0.2593797445297241,-0.9981937408447266,0.9999874830245972,0.4238220155239105,0.2620117664337158,-1.0451570749282837,0.9999938011169434,0.5414323806762695,0.3493642807006836,-0.48497796058654785,0.9999475479125977,0.17474967241287231,0.3731438219547272,-0.7821502089500427,0.9999494552612305,0.5778707265853882,0.5132055878639221,-0.28308889269828796,0.9847033619880676,0.1753048449754715,0.5568539500236511,-0.7571682333946228,0.9940705895423889,0.629806399345398,0.6519076228141785,-0.5034594535827637,0.9879173636436462,0.2346809357404709,0.7076956033706665,-0.9217454195022583,0.9645193219184875,0.6515792608261108,0.6917543411254883,-0.593889594078064,0.9733423590660095,0.2420477569103241,0.7526236772537231,-1.0168869495391846,0.9342233538627625,0.6319413781166077,0.6928992867469788,-0.6871841549873352,0.9757010340690613,0.28043776750564575,0.7451967000961304,-1.0978559255599976,0.9383970499038696,0.6165031790733337,0.6833107471466064,-0.5452753305435181,0.9747959971427917,0.28738266229629517,0.7314006090164185,-0.9557417035102844,0.9405749440193176,0.4864678680896759,0.6348021626472473,0.10545807331800461,0.9985067248344421,0.3129492700099945,0.6501938700675964,-0.10524798929691315,0.9991596937179565,0.4806431829929352,0.8504988551139832,0.38340651988983154,0.9478302597999573,0.3385833501815796,0.8778449296951294,0.05048304796218872,0.9772418737411499,0.4729728102684021,0.9659287929534912,1.0771756172180176,0.8664774894714355,0.35463225841522217,0.9911341071128845,0.5647392868995667,0.9149237871170044,0.4462011754512787,0.977599561214447,1.129618525505066,0.8081221580505371,0.3319023847579956,1.0303826332092285,0.600570797920227,0.6544327139854431,0.5472131967544556,1.0240391492843628,0.9021725058555603,0.8269746899604797,0.393821656703949,1.1046726703643799,0.2432224601507187,0.8170374631881714
19368.1947558861,0.4495677053928375,0.23666712641716003,-1.12668776512146,0.9999862909317017,0.4527783691883087,0.21041426062583923,-1.0812795162200928,0.9999576807022095,0.4607381820678711,0.20953845977783203,-1.0813512802124023,0.9999464750289917,0.46822604537010193,0.20859062671661377,-1.0814223289489746,0.999942421913147,0.42036691308021545,0.21298128366470337,-1.1130985021591187,0.9999686479568481,0.403596967458725,0.2136787474155426,-1.1133434772491455,0.9999676942825317,0.38462719321250916,0.21452581882476807,-1.1134878396987915,0.9999676942825317,0.4585932791233063,0.2156485915184021,-0.7577337622642517,0.999897837638855,0.3350444734096527,0.22531402111053467,-0.9175751209259033,0.9999746084213257,0.45966076850891113,0.2577970027923584,-1.0001606941223145,0.9999910593032837,0.42626944184303284,0.25951990485191345,-1.0450116395950317,0.9999957084655762,0.5407575368881226,0.3478313684463501,-0.4844387471675873,0.9999524354934692,0.17593684792518616,0.37188607454299927,-0.7805467247962952,0.999961256980896,0.5747248530387878,0.5119049549102783,-0.28854769468307495,0.9835917949676514,0.17289167642593384,0.5550880432128906,-0.7598468065261841,0.9943860769271851,0.6322498321533203,0.6490590572357178,-0.5084286332130432,0.9860835671424866,0.23334260284900665,0.7073912024497986,-0.9185470938682556,0.9658889174461365,0.6550232768058777,0.6897805333137512,-0.5966655015945435,0.9699750542640686,0.23874811828136444,0.7525593638420105,-1.0136606693267822,0.9348592758178711,0.6361547708511353,0.6903504133224487,-0.691579282283783,0.9726276397705078,0.27764296531677246,0.7454792261123657,-1.0900864601135254,0.9388844966888428,0.620172381401062,0.6816964149475098,-0.551337718963623,0.9718162417411804,0.2849242687225342,0.7314838767051697,-0.9508503079414368,0.9414528012275696,0.48693907260894775,0.6329481601715088,0.1059839129447937,0.9985426664352417,0.31381741166114807,0.6493392586708069,-0.10582783073186874,0.9991713762283325,0.48078498244285583,0.8412997722625732,0.34756994247436523,0.9498271942138672,0.3361535668373108,0.8704114556312561,0.039169784635305405,0.9785849452018738,0.4730137884616852,0.9586008787155151,1.044565200805664,0.8708683252334595,0.35114139318466187,0.9885028004646301,0.5685771107673645,0.9258193969726562,0.4480351507663727,0.972628116607666,1.097283959388733,0.8087978363037109,0.3282827138900757,1.0232101678848267,0.6057620644569397,0.6708385348320007,0.5471311807632446,1.0199335813522339,0.8699142336845398,0.8342232704162598,0.38459959626197815,1.0985312461853027,0.2497803270816803,0.8385291695594788
19384.861422552767,0.44908085465431213,0.24022866785526276,-1.1315792798995972,0.9999791383743286,0.45216554403305054,0.21439537405967712,-1.0880420207977295,0.9999351501464844,0.4600522518157959,0.21351507306098938,-1.0880998373031616,0.9999191761016846,0.46735724806785583,0.21246707439422607,-1.0881928205490112,0.9999144077301025,0.4208815395832062,0.21601876616477966,-1.1194707155227661,0.9999517202377319,0.40479084849357605,0.21617871522903442,-1.1197220087051392,0.9999507665634155,0.38636597990989685,0.2165449857711792,-1.1198718547821045,0.9999504089355469,0.4562130570411682,0.21812117099761963,-0.7749308347702026,0.9998482465744019,0.33542877435684204,0.2267492413520813,-0.9325098991394043,0.9999598264694214,0.45877161622047424,0.26084715127944946,-1.009021520614624,0.9999867677688599,0.4255844056606293,0.2618862986564636,-1.0531986951828003,0.999993085861206,0.5414673089981079,0.34898898005485535,-0.5086275935173035,0.9999351501464844,0.1774560511112213,0.37188443541526794,-0.8053985834121704,0.9999492168426514,0.5771210193634033,0.515929639339447,-0.3199545741081238,0.9815192222595215,0.17892727255821228,0.5557125210762024,-0.7878104448318481,0.9934158325195312,0.6321886777877808,0.6531189680099487,-0.5174597501754761,0.9838593602180481,0.23392903804779053,0.7073029279708862,-0.9316046833992004,0.962449312210083,0.6538619995117188,0.6921587586402893,-0.6023057103157043,0.9658039212226868,0.2387707382440567,0.7530412673950195,-1.0262837409973145,0.9308028817176819,0.6367262601852417,0.6925619840621948,-0.6945799589157104,0.9687512516975403,0.2773341238498688,0.746610164642334,-1.1015191078186035,0.9349470138549805,0.621428906917572,0.6840164065361023,-0.5590285658836365,0.9679321050643921,0.2848714590072632,0.7321186661720276,-0.9640875458717346,0.9379241466522217,0.487142413854599,0.6339830160140991,0.10537359863519669,0.9983662962913513,0.3149612545967102,0.650766909122467,-0.10523289442062378,0.999022364616394,0.4837234914302826,0.8442379832267761,0.3465817868709564,0.9426788687705994,0.3354790508747101,0.8723188042640686,0.058053724467754364,0.9752275347709656,0.47122707962989807,0.9608279466629028,1.019144892692566,0.8652235269546509,0.34865236282348633,0.988177478313446,0.6113316416740417,0.9180648326873779,0.4463738799095154,0.974770188331604,1.0693856477737427,0.8032289147377014,0.3413431942462921,0.9910173416137695,0.6510204076766968,0.6611706614494324,0.5470079779624939,1.0194735527038574,0.8421253561973572,0.8283811211585999,0.38198569416999817,1.0936460494995117,0.3066132366657257,0.8263614773750305
19401.528089219435,0.4516949951648712,0.23919661343097687,-1.1017767190933228,0.9999866485595703,0.45552024245262146,0.21269270777702332,-1.0574805736541748,0.9999586343765259,0.46336767077445984,0.21174436807632446,-1.05754554271698,0.9999490976333618,0.4706308841705322,0.21070551872253418,-1.0576248168945312,0.9999456405639648,0.4247256815433502,0.2150273621082306,-1.0896735191345215,0.9999692440032959,0.4090632200241089,0.21544435620307922,-1.0899196863174438,0.9999682903289795,0.3905014395713806,0.21606594324111938,-1.090065598487854,0.9999678134918213,0.4585934281349182,0.21674954891204834,-0.746051013469696,0.9999079704284668,0.3386448323726654,0.22620108723640442,-0.9074251055717468,0.999974250793457,0.4613094925880432,0.260091632604599,-0.9803347587585449,0.9999914169311523,0.42928433418273926,0.26114028692245483,-1.025607705116272,0.9999955892562866,0.5430068969726562,0.34915250539779663,-0.48566144704818726,0.9999473094940186,0.18087728321552277,0.37143927812576294,-0.7858156561851501,0.9999580383300781,0.5774663090705872,0.515920102596283,-0.29661017656326294,0.9837522506713867,0.17907769978046417,0.5564220547676086,-0.769230306148529,0.9937251210212708,0.6339445114135742,0.6530351638793945,-0.48921453952789307,0.9858750700950623,0.23382465541362762,0.7074577808380127,-0.9076899290084839,0.9634379744529724,0.6547914743423462,0.6933290362358093,-0.5725399255752563,0.9692693948745728,0.23759442567825317,0.7536410689353943,-0.9993066191673279,0.9320191740989685,0.6374585032463074,0.6939586400985718,-0.6644150018692017,0.9720182418823242,0.277823805809021,0.7468473315238953,-1.0748798847198486,0.9361841678619385,0.6222783327102661,0.6854050159454346,-0.5304726958274841,0.9714611768722534,0.28567230701446533,0.7322538495063782,-0.9400302767753601,0.9391661882400513,0.48538485169410706,0.6344615817070007,0.10715335607528687,0.9982484579086304,0.3109756410121918,0.6504430174827576,-0.10702051967382431,0.9990441203117371,0.48071810603141785,0.8450610637664795,0.36487722396850586,0.9485718607902527,0.3372906744480133,0.8728591203689575,0.043530046939849854,0.9788999557495117,0.47405382990837097,0.9588710069656372,1.0401169061660767,0.8706079721450806,0.35197922587394714,0.9940606951713562,0.550917387008667,0.9249936938285828,0.44894614815711975,0.9728478193283081,1.0911924839019775,0.8109840154647827,0.33448266983032227,1.028777003288269,0.5860092639923096,0.6742453575134277,0.5456579923629761,1.020147681236267,0.872185230255127,0.8334676623344421,0.39451491832733154,1.1038357019424438,0.2360578030347824,0.8349067568778992
19418.194755886103,0.4467478394508362,0.23846173286437988,-1.1441588401794434,0.9999861717224121,0.4522660970687866,0.2130286991596222,-1.100258708000183,0.9999581575393677,0.46065425872802734,0.21193450689315796,-1.1003384590148926,0.9999474287033081,0.46818286180496216,0.2109101414680481,-1.1004092693328857,0.9999428987503052,0.41989248991012573,0.21497094631195068,-1.1308510303497314,0.9999687671661377,0.40276992321014404,0.2151181697845459,-1.1310871839523315,0.9999675750732422,0.3844015896320343,0.21554145216941833,-1.1312419176101685,0.9999669790267944,0.4608750641345978,0.21780019998550415,-0.7763853669166565,0.9999047517776489,0.3350025415420532,0.2253013253211975,-0.9301590323448181,0.9999748468399048,0.45626139640808105,0.2596251666545868,-1.0170245170593262,0.9999911785125732,0.4220012426376343,0.2612444758415222,-1.0600658655166626,0.9999955892562866,0.5424988269805908,0.3479387164115906,-0.497041791677475,0.999951958656311,0.17694811522960663,0.3712608516216278,-0.7835973501205444,0.9999572038650513,0.5765082836151123,0.5119883418083191,-0.2861632704734802,0.9849193096160889,0.1733713150024414,0.5549496412277222,-0.7538601756095886,0.9941502213478088,0.6335290670394897,0.6502441763877869,-0.49817171692848206,0.9864649772644043,0.23487579822540283,0.7084967494010925,-0.9130618572235107,0.9637694954872131,0.6554746627807617,0.6911262273788452,-0.5853973031044006,0.9704411625862122,0.23785322904586792,0.7547611594200134,-1.0070135593414307,0.9314415454864502,0.637939453125,0.6915598511695862,-0.6830897331237793,0.9731979370117188,0.2790651321411133,0.7471882700920105,-1.0879768133163452,0.9362212419509888,0.6222257614135742,0.6828771829605103,-0.5419570207595825,0.9728888869285583,0.28657305240631104,0.7325032949447632,-0.9472060203552246,0.9399449229240417,0.487644761800766,0.6320626735687256,0.09903351962566376,0.9984745383262634,0.31198084354400635,0.6489421129226685,-0.09876394271850586,0.9991162419319153,0.478136271238327,0.8462882041931152,0.330536425113678,0.9558383226394653,0.33649715781211853,0.8755260705947876,0.04777180403470993,0.9782442450523376,0.47509831190109253,0.9625546932220459,1.038878083229065,0.8727635741233826,0.34917590022087097,0.9913622736930847,0.592014491558075,0.9238158464431763,0.4502578675746918,0.9744747877120972,1.092513084411621,0.816277027130127,0.3365260362625122,1.0262165069580078,0.6310376524925232,0.6825348138809204,0.5400511026382446,1.0284366607666016,0.8585547208786011,0.8225866556167603,0.3765062689781189,1.1022858619689941,0.2712675929069519,0.8256038427352905
19434.86142255277,0.44399362802505493,0.23855653405189514,-1.186409831047058,0.9999868869781494,0.4507773518562317,0.21258476376533508,-1.1414878368377686,0.9999592304229736,0.45967066287994385,0.21150192618370056,-1.1415601968765259,0.9999488592147827,0.4676376283168793,0.21047565340995789,-1.141629934310913,0.999943733215332,0.417193204164505,0.21497946977615356,-1.1709020137786865,0.9999704360961914,0.39958620071411133,0.21529099345207214,-1.171181321144104,0.9999703168869019,0.3814450204372406,0.21584129333496094,-1.1713340282440186,0.9999698400497437,0.46174106001853943,0.2177087962627411,-0.8092707395553589,0.9999008178710938,0.3323568105697632,0.22595930099487305,-0.9584072232246399,0.9999767541885376,0.4546829164028168,0.2598557770252228,-1.0562617778778076,0.9999915361404419,0.41954460740089417,0.26152533292770386,-1.0980409383773804,0.9999959468841553,0.5428219437599182,0.3485157787799835,-0.5201039910316467,0.9999477863311768,0.17619730532169342,0.37221550941467285,-0.8008626699447632,0.999962329864502,0.5780637264251709,0.5131949186325073,-0.30969709157943726,0.984955370426178,0.17333941161632538,0.5559496283531189,-0.766821026802063,0.9946225881576538,0.632411003112793,0.6515456438064575,-0.5351397395133972,0.9857534170150757,0.2338009923696518,0.7083171606063843,-0.9407922625541687,0.9655686020851135,0.6541792154312134,0.6914550065994263,-0.6243703365325928,0.968855082988739,0.23793348670005798,0.7536617517471313,-1.0374001264572144,0.9338828325271606,0.6365013718605042,0.6920337677001953,-0.7233494520187378,0.9716668725013733,0.2772442400455475,0.7458783388137817,-1.1182860136032104,0.938538670539856,0.621181309223175,0.6832547783851624,-0.579717218875885,0.9709720611572266,0.28473541140556335,0.7314454913139343,-0.9751230478286743,0.9411808848381042,0.4893721044063568,0.6322870850563049,0.0993078202009201,0.9983457326889038,0.31218820810317993,0.6497119069099426,-0.09910940378904343,0.9991111159324646,0.48004019260406494,0.8467520475387573,0.3374163806438446,0.9544925093650818,0.3362022042274475,0.8739566802978516,0.033492837101221085,0.9795179963111877,0.4732876718044281,0.9613670110702515,1.0542091131210327,0.8761980533599854,0.3514713943004608,0.993874192237854,0.5639303922653198,0.9269846081733704,0.44882744550704956,0.9740976691246033,1.1083149909973145,0.8123342394828796,0.3370048999786377,1.027940034866333,0.6003652215003967,0.670242190361023,0.5415927767753601,1.0241285562515259,0.8684352040290833,0.8348249197006226,0.3877376914024353,1.1047807931900024,0.22964800894260406,0.8367916941642761
19451.52808921944,0.44451001286506653,0.23855912685394287,-1.1341508626937866,0.9999839067459106,0.45002615451812744,0.21267932653427124,-1.0892307758331299,0.9999507665634155,0.45860055088996887,0.21145039796829224,-1.0893241167068481,0.9999382495880127,0.46622028946876526,0.21034467220306396,-1.0893925428390503,0.9999328851699829,0.417728453874588,0.21531924605369568,-1.1196738481521606,0.9999637603759766,0.4004655182361603,0.21572670340538025,-1.1199455261230469,0.9999632835388184,0.38229119777679443,0.21638932824134827,-1.1201099157333374,0.9999630451202393,0.4597204029560089,0.21711969375610352,-0.7619877457618713,0.9998835325241089,0.3333432078361511,0.22611212730407715,-0.9152826070785522,0.9999715089797974,0.45512068271636963,0.25972437858581543,-1.0059239864349365,0.9999897480010986,0.42069488763809204,0.2620127499103546,-1.0488797426223755,0.9999949932098389,0.5424944162368774,0.3489309251308441,-0.48082491755485535,0.9999468326568604,0.17699198424816132,0.37232497334480286,-0.7680607438087463,0.9999575614929199,0.5770737528800964,0.5133064389228821,-0.27114149928092957,0.983798086643219,0.17285779118537903,0.5553860664367676,-0.7356664538383484,0.9944087862968445,0.631566047668457,0.6507416367530823,-0.49095797538757324,0.9853455424308777,0.2324511855840683,0.707597017288208,-0.9017646312713623,0.964957058429718,0.6541448831558228,0.6906343698501587,-0.5782603025436401,0.9684422612190247,0.23627476394176483,0.7535332441329956,-0.9957742094993591,0.9332637786865234,0.6363943219184875,0.6910961270332336,-0.6751695275306702,0.9713113307952881,0.2766163945198059,0.7457130551338196,-1.076027750968933,0.9379197359085083,0.62078458070755,0.6824079751968384,-0.5344331860542297,0.9707825779914856,0.2842300236225128,0.7310099005699158,-0.9355961680412292,0.9409425258636475,0.4884561598300934,0.6345365047454834,0.10182477533817291,0.9983565211296082,0.3118058741092682,0.6518694162368774,-0.10162176191806793,0.9990505576133728,0.47943782806396484,0.8494832515716553,0.335934042930603,0.9513421654701233,0.3354167640209198,0.8766283392906189,0.03589031845331192,0.9776014089584351,0.47367292642593384,0.9628751277923584,1.045731544494629,0.8694334030151367,0.3510540723800659,0.9944465756416321,0.5697009563446045,0.9211535453796387,0.44909894466400146,0.9748859405517578,1.0997586250305176,0.8102072477340698,0.3355328440666199,1.0283210277557373,0.6073957085609436,0.6670556664466858,0.542256236076355,1.0253429412841797,0.8672654032707214,0.8283708691596985,0.3901508152484894,1.1049137115478516,0.24475373327732086,0.82805335521698
19468.194755886107,0.4484582841396332,0.2396816611289978,-1.113554835319519,0.9999815225601196,0.4531015455722809,0.2154202163219452,-1.069546103477478,0.9999428987503052,0.46078330278396606,0.2141006588935852,-1.0696334838867188,0.9999295473098755,0.46767064929008484,0.21285009384155273,-1.0697271823883057,0.9999233484268188,0.42135465145111084,0.2168164849281311,-1.1006486415863037,0.9999583959579468,0.4050789177417755,0.21655595302581787,-1.100898027420044,0.9999582767486572,0.3856329321861267,0.2166142761707306,-1.1010411977767944,0.9999576807022095,0.45753538608551025,0.21720734238624573,-0.744303822517395,0.9998685121536255,0.33495384454727173,0.22540631890296936,-0.9002814292907715,0.9999676942825317,0.456348180770874,0.2603345811367035,-0.9851636290550232,0.9999879598617554,0.42434874176979065,0.2634953260421753,-1.0289303064346313,0.9999940395355225,0.5385532379150391,0.3471803665161133,-0.4582526981830597,0.9999428987503052,0.17916104197502136,0.3703392446041107,-0.7601369619369507,0.999958872795105,0.5773259997367859,0.5101207494735718,-0.25155770778656006,0.9811487793922424,0.17511239647865295,0.5554238557815552,-0.7312678694725037,0.9939947724342346,0.6342989206314087,0.6495828628540039,-0.46903082728385925,0.9814088940620422,0.2354349046945572,0.7077459692955017,-0.8900416493415833,0.9606844186782837,0.6564946174621582,0.6912047863006592,-0.5558826923370361,0.960975170135498,0.24077999591827393,0.7535474896430969,-0.9845814108848572,0.9264986515045166,0.6360164880752563,0.6913233399391174,-0.6517209410667419,0.9643120169639587,0.28156930208206177,0.7461510896682739,-1.0617215633392334,0.9309103488922119,0.6205514073371887,0.6823101043701172,-0.5123803615570068,0.963832676410675,0.2890605926513672,0.7319905757904053,-0.9225672483444214,0.9336086511611938,0.48992112278938293,0.6357956528663635,0.1066826805472374,0.9980997443199158,0.31472453474998474,0.6512084603309631,-0.10645753145217896,0.9989559650421143,0.4804978668689728,0.8515655994415283,0.34134641289711,0.9451318979263306,0.33716362714767456,0.8744782209396362,0.031276535242795944,0.9775172472000122,0.47677963972091675,0.9651890397071838,1.0226550102233887,0.8429713249206543,0.35011565685272217,0.9970472455024719,0.5207979679107666,0.9158837795257568,0.45119038224220276,0.9785699844360352,1.0739171504974365,0.775407075881958,0.32649052143096924,1.034913420677185,0.553473949432373,0.6425672769546509,0.5492178797721863,1.0241472721099854,0.8498733043670654,0.7971447706222534,0.3894052803516388,1.1108719110488892,0.19084638357162476,0.8144427537918091
19484.861422552774,0.44717904925346375,0.23711344599723816,-1.171905755996704,0.9999827146530151,0.4523923695087433,0.21170929074287415,-1.1268129348754883,0.9999486207962036,0.46072518825531006,0.2108059823513031,-1.1269030570983887,0.9999368190765381,0.4679698050022125,0.2099844217300415,-1.12699294090271,0.9999309778213501,0.4198403060436249,0.21300971508026123,-1.1589765548706055,0.9999629259109497,0.4025818109512329,0.2130431830883026,-1.1592527627944946,0.9999630451202393,0.3843896985054016,0.21349868178367615,-1.1594082117080688,0.9999620914459229,0.4591759741306305,0.21634364128112793,-0.793443500995636,0.9998844861984253,0.33433306217193604,0.22358709573745728,-0.9541341066360474,0.999971866607666,0.4553655683994293,0.2580278515815735,-1.0408339500427246,0.9999895095825195,0.4215793013572693,0.2594899833202362,-1.0858982801437378,0.9999948740005493,0.5398883819580078,0.34739363193511963,-0.5039559006690979,0.999942421913147,0.17788644134998322,0.37100517749786377,-0.797756552696228,0.9999549388885498,0.5798345804214478,0.5107377767562866,-0.2938807010650635,0.9829005599021912,0.17757193744182587,0.5581690073013306,-0.7629455924034119,0.9945796728134155,0.634087324142456,0.651028037071228,-0.5249516367912292,0.9823215007781982,0.23281702399253845,0.708897590637207,-0.9290146827697754,0.9600527882575989,0.6553031802177429,0.6921690106391907,-0.6164596676826477,0.9621714353561401,0.2397526204586029,0.7537906169891357,-1.0246295928955078,0.9243014454841614,0.6348163485527039,0.6929351091384888,-0.7137986421585083,0.9657094478607178,0.27857908606529236,0.7464719414710999,-1.1075291633605957,0.929710328578949,0.620151162147522,0.6841854453086853,-0.5691097974777222,0.9652309417724609,0.28567978739738464,0.7319430708885193,-0.9637846946716309,0.9331150054931641,0.49295178055763245,0.6346782445907593,0.10198866575956345,0.9980399012565613,0.3181157112121582,0.6507638096809387,-0.10175833106040955,0.9989104270935059,0.4822327494621277,0.8508654832839966,0.34442493319511414,0.9445647597312927,0.3377853333950043,0.8766171932220459,0.036869894713163376,0.9737627506256104,0.4782305359840393,0.9657835960388184,1.0593749284744263,0.8339009284973145,0.3505035638809204,0.9952822327613831,0.5417943596839905,0.9010574817657471,0.4538155496120453,0.9800559878349304,1.1139336824417114,0.7678363919258118,0.3305830657482147,1.0381335020065308,0.5760873556137085,0.6155403852462769,0.5467607378959656,1.025770664215088,0.881702721118927,0.7848474979400635,0.3912762403488159,1.1128456592559814,0.20584391057491302,0.7884911298751831
19501.528089219442,0.44826626777648926,0.23768356442451477,-1.1094945669174194,0.9999791383743286,0.45374634861946106,0.2122979462146759,-1.0655025243759155,0.9999363422393799,0.4619356095790863,0.21129462122917175,-1.0655730962753296,0.999920129776001,0.4693845808506012,0.21034827828407288,-1.065629482269287,0.9999146461486816,0.42159101366996765,0.2140919268131256,-1.098678708076477,0.9999537467956543,0.40441909432411194,0.21423757076263428,-1.0989248752593994,0.9999527931213379,0.3855670392513275,0.2146020233631134,-1.0990798473358154,0.9999529123306274,0.4610341787338257,0.21707278490066528,-0.7504276633262634,0.9998471736907959,0.33518481254577637,0.22445634007453918,-0.9162924885749817,0.9999620914459229,0.4575183689594269,0.258881539106369,-0.9859607815742493,0.9999861717224121,0.423526406288147,0.26063939929008484,-1.0325006246566772,0.9999932050704956,0.5405111312866211,0.3485826253890991,-0.48586058616638184,0.9999384880065918,0.17296439409255981,0.37393444776535034,-0.7804847955703735,0.9999485015869141,0.5770372152328491,0.5110249519348145,-0.2871178388595581,0.981967568397522,0.17578358948230743,0.5593528747558594,-0.7537887692451477,0.9935024380683899,0.6305975914001465,0.6484324932098389,-0.49248388409614563,0.9847858548164368,0.23440049588680267,0.7077404260635376,-0.9006215333938599,0.96328204870224,0.6535676717758179,0.6891081929206848,-0.5778672099113464,0.9675398468971252,0.24227046966552734,0.752569317817688,-0.9919480681419373,0.9323945045471191,0.6340480446815491,0.689640462398529,-0.6697722673416138,0.9704629778862,0.279766321182251,0.745643675327301,-1.0683623552322388,0.9365516901016235,0.6179894208908081,0.680954098701477,-0.5338244438171387,0.9698778986930847,0.2865862250328064,0.7318617105484009,-0.9325612783432007,0.9395000338554382,0.48870205879211426,0.6327929496765137,0.10330473631620407,0.998166561126709,0.31498822569847107,0.6505540013313293,-0.10311343520879745,0.9989305138587952,0.48124179244041443,0.8431671261787415,0.35790959000587463,0.9397240281105042,0.3374648094177246,0.8707165718078613,0.05330139771103859,0.9725269675254822,0.4734545350074768,0.9596660733222961,1.0190188884735107,0.8549137115478516,0.35041385889053345,0.9871063232421875,0.5852307677268982,0.9054954648017883,0.44845491647720337,0.97236567735672,1.0680816173553467,0.7949014902114868,0.32883763313293457,1.022357702255249,0.6231605410575867,0.640798032283783,0.545414388179779,1.0211527347564697,0.8394202589988708,0.8132933974266052,0.3833811581134796,1.0973539352416992,0.2739584147930145,0.8011898398399353
19518.19475588611,0.4467925429344177,0.23761509358882904,-1.141976237297058,0.999976634979248,0.4514232575893402,0.2118607461452484,-1.0959432125091553,0.9999300241470337,0.45953503251075745,0.2105967104434967,-1.096024990081787,0.9999123811721802,0.46679458022117615,0.20941892266273499,-1.096100926399231,0.9999046325683594,0.41918760538101196,0.2148260474205017,-1.1282222270965576,0.9999501705169678,0.40231335163116455,0.21537280082702637,-1.1284563541412354,0.9999494552612305,0.3838385045528412,0.21619459986686707,-1.1286057233810425,0.9999490976333618,0.45829591155052185,0.2163579761981964,-0.7684435248374939,0.9998292922973633,0.3349820375442505,0.2259702980518341,-0.9299824237823486,0.9999610185623169,0.45655637979507446,0.2583220899105072,-1.0140516757965088,0.9999841451644897,0.42276132106781006,0.26129409670829773,-1.05934739112854,0.9999927282333374,0.5398016571998596,0.348516583442688,-0.48451510071754456,0.9999263286590576,0.17964355647563934,0.3720413148403168,-0.7865785360336304,0.9999463558197021,0.5779342651367188,0.5086889863014221,-0.2804146409034729,0.9791741967201233,0.17261667549610138,0.5534915328025818,-0.7670602202415466,0.9941003918647766,0.6312520503997803,0.6497582793235779,-0.4986843168735504,0.981265127658844,0.23471993207931519,0.7068588137626648,-0.9275508522987366,0.9582806825637817,0.6538861393928528,0.6909784078598022,-0.5862874388694763,0.9607000350952148,0.23994408547878265,0.7526981830596924,-1.0227537155151367,0.9209612607955933,0.6324828863143921,0.6922315359115601,-0.6810671091079712,0.9639325141906738,0.2800777852535248,0.7456000447273254,-1.1016043424606323,0.925663411617279,0.6171153783798218,0.6830403208732605,-0.5414591431617737,0.9631136059761047,0.28773200511932373,0.7317723035812378,-0.9608365297317505,0.9292097091674805,0.48954302072525024,0.6346768736839294,0.10743997246026993,0.9983872175216675,0.31520816683769226,0.6502692699432373,-0.10723687708377838,0.9991538524627686,0.4817168712615967,0.8491546511650085,0.3911120891571045,0.9541310667991638,0.3392958343029022,0.8710353374481201,0.05316162109375,0.9802815318107605,0.4731775224208832,0.964444100856781,1.0770387649536133,0.8795337677001953,0.3524845540523529,0.9914821982383728,0.5567966103553772,0.9272613525390625,0.44755759835243225,0.9778612852096558,1.127868413925171,0.8144636750221252,0.33271512389183044,1.0301294326782227,0.5907021164894104,0.6742284297943115,0.5488896369934082,1.0234546661376953,0.8952570557594299,0.8357029557228088,0.3857194185256958,1.1038872003555298,0.22682787477970123,0.8359420895576477
19534.861422552778,0.4487464725971222,0.2386402040719986,-1.1341042518615723,0.999983549118042,0.45258376002311707,0.2129567265510559,-1.0895657539367676,0.9999489784240723,0.4601629078388214,0.2117118239402771,-1.0896317958831787,0.9999364614486694,0.4668983221054077,0.21052736043930054,-1.089701771736145,0.9999315738677979,0.42084988951683044,0.21500247716903687,-1.1215932369232178,0.9999628067016602,0.4039110243320465,0.21521472930908203,-1.1218339204788208,0.9999620914459229,0.38489142060279846,0.2157556712627411,-1.1219843626022339,0.9999616146087646,0.45640698075294495,0.21619346737861633,-0.7684280276298523,0.9998811483383179,0.33467403054237366,0.2253400683403015,-0.928960919380188,0.9999704360961914,0.45714759826660156,0.2593011260032654,-1.0082402229309082,0.9999896287918091,0.4234583377838135,0.2620261311531067,-1.0532279014587402,0.9999948740005493,0.5408151149749756,0.34885045886039734,-0.4953435957431793,0.9999477863311768,0.17474541068077087,0.37352049350738525,-0.7898017168045044,0.9999587535858154,0.5778650641441345,0.5107432007789612,-0.2965221107006073,0.9840922355651855,0.17459262907505035,0.5585243701934814,-0.7654841542243958,0.9943609833717346,0.6325938701629639,0.6496641635894775,-0.5158421993255615,0.9868567585945129,0.23400673270225525,0.7084337472915649,-0.9270201325416565,0.9674719572067261,0.6544612646102905,0.6902003288269043,-0.6058285236358643,0.9716520309448242,0.24096360802650452,0.7535529136657715,-1.0231842994689941,0.9389005899429321,0.6340072751045227,0.6910865902900696,-0.7007932662963867,0.9741791486740112,0.27927905321121216,0.7461823225021362,-1.1020740270614624,0.9426762461662292,0.6186865568161011,0.6827713251113892,-0.5587307810783386,0.9733093976974487,0.28648701310157776,0.7322018146514893,-0.9605150818824768,0.9449941515922546,0.4885479807853699,0.6347495913505554,0.10603173077106476,0.9983404874801636,0.3146608769893646,0.6513527035713196,-0.10583201050758362,0.9990971088409424,0.47967228293418884,0.8489065170288086,0.3662189841270447,0.953031063079834,0.33752572536468506,0.8759398460388184,0.050318051129579544,0.9799839854240417,0.4768728017807007,0.9636315107345581,1.0455888509750366,0.8796856999397278,0.3528735339641571,0.9925240874290466,0.5755202770233154,0.9262772798538208,0.45126181840896606,0.977142333984375,1.096209168434143,0.8193221092224121,0.32829079031944275,1.03031325340271,0.6120224595069885,0.6753586530685425,0.5515727996826172,1.0212366580963135,0.8657295107841492,0.8403071165084839,0.3857646882534027,1.1054810285568237,0.2550005614757538,0.8343237638473511
19551.528089219446,0.44772469997406006,0.23818689584732056,-1.1250207424163818,0.9999815225601196,0.4516201615333557,0.21217110753059387,-1.0797600746154785,0.9999442100524902,0.4595361053943634,0.21081605553627014,-1.0798388719558716,0.9999295473098755,0.4667721688747406,0.20952874422073364,-1.0799130201339722,0.9999254941940308,0.419502317905426,0.21510422229766846,-1.1115621328353882,0.9999573230743408,0.4020706117153168,0.21559831500053406,-1.1118043661117554,0.9999556541442871,0.38303887844085693,0.21630224585533142,-1.1119505167007446,0.9999556541442871,0.4574858546257019,0.21572044491767883,-0.7577175498008728,0.9998670816421509,0.33317872881889343,0.22590917348861694,-0.9171760082244873,0.9999638795852661,0.4573948383331299,0.25895264744758606,-0.9990063905715942,0.9999881982803345,0.4235020577907562,0.2620951533317566,-1.0436843633651733,0.9999936819076538,0.5415169596672058,0.34709200263023376,-0.48825007677078247,0.9999494552612305,0.1765758991241455,0.3720678389072418,-0.7777317762374878,0.9999490976333618,0.5752045512199402,0.5104060769081116,-0.2958998382091522,0.9838913083076477,0.1741054654121399,0.5562990307807922,-0.7536903023719788,0.9932050704956055,0.6303236484527588,0.6497219204902649,-0.514634370803833,0.9870882034301758,0.23289170861244202,0.7067190408706665,-0.9142203330993652,0.9629034399986267,0.6521401405334473,0.690135657787323,-0.6032068133354187,0.9719198346138,0.2397504597902298,0.7526923418045044,-1.0094431638717651,0.9312130212783813,0.6324406266212463,0.6912233829498291,-0.6976490020751953,0.9744265079498291,0.27882009744644165,0.745741605758667,-1.086215853691101,0.935371994972229,0.6166983842849731,0.6824355125427246,-0.5571348667144775,0.9735203981399536,0.28607064485549927,0.7314522862434387,-0.9468916654586792,0.9383620619773865,0.4880833923816681,0.6324752569198608,0.10325891524553299,0.9984410405158997,0.314592182636261,0.649388313293457,-0.10309003293514252,0.9990297555923462,0.48070335388183594,0.8438307046890259,0.3421825170516968,0.94391930103302,0.3350508511066437,0.8710538148880005,0.05018504709005356,0.9745402932167053,0.4732213318347931,0.9597187042236328,1.01906156539917,0.8700541853904724,0.3493731915950775,0.9873867630958557,0.6052230000495911,0.9182099103927612,0.4491380453109741,0.9735146760940552,1.0691936016082764,0.810819685459137,0.32992205023765564,1.0213067531585693,0.6448575258255005,0.6637293696403503,0.5477315783500671,1.0204474925994873,0.8337912559509277,0.8337709903717041,0.3798729181289673,1.0967752933502197,0.29091739654541016,0.8275815844535828
19568.194755886114,0.4520542323589325,0.2382824420928955,-1.1377229690551758,0.9999781847000122,0.45534586906433105,0.21321624517440796,-1.092444896697998,0.9999364614486694,0.4624391496181488,0.21190807223320007,-1.0925145149230957,0.9999207258224487,0.4690508544445038,0.2107049524784088,-1.0926172733306885,0.9999164342880249,0.42509761452674866,0.21451202034950256,-1.1270710229873657,0.9999521970748901,0.40918564796447754,0.21429964900016785,-1.127308964729309,0.9999500513076782,0.38984090089797974,0.2144484519958496,-1.127455234527588,0.9999496936798096,0.45633259415626526,0.21615710854530334,-0.7676058411598206,0.9998589754104614,0.33703088760375977,0.22439706325531006,-0.9398662447929382,0.9999603033065796,0.4588874578475952,0.2584635615348816,-1.0101170539855957,0.9999871253967285,0.4277012050151825,0.26181474328041077,-1.0585131645202637,0.999993085861206,0.5382458567619324,0.34733787178993225,-0.4946330785751343,0.9999459981918335,0.17834876477718353,0.3713611364364624,-0.7950708866119385,0.9999462366104126,0.5753602981567383,0.51069176197052,-0.29734405875205994,0.9829156398773193,0.17479988932609558,0.5538000464439392,-0.7719189524650574,0.9929648637771606,0.6292124390602112,0.6492307186126709,-0.5127134323120117,0.9851996898651123,0.2331848442554474,0.7053540945053101,-0.9244511127471924,0.9585928916931152,0.651569128036499,0.6903669238090515,-0.6013360619544983,0.9680308699607849,0.23853646218776703,0.7514678239822388,-1.019392728805542,0.9240944981575012,0.6313621997833252,0.6914306879043579,-0.6964871883392334,0.9708949327468872,0.2787443995475769,0.7443898916244507,-1.0964322090148926,0.9285212159156799,0.6155227422714233,0.6826052665710449,-0.5554900765419006,0.9698281288146973,0.28666654229164124,0.7302137613296509,-0.9570109844207764,0.9311995506286621,0.4894503951072693,0.6308919191360474,0.10602369904518127,0.9982752799987793,0.3180782198905945,0.6473707556724548,-0.10583215206861496,0.998993456363678,0.4789140522480011,0.8429103493690491,0.3334265947341919,0.9442634582519531,0.33663415908813477,0.8697313666343689,0.033953707665205,0.9737240076065063,0.47285595536231995,0.9610804915428162,1.0236245393753052,0.8553248047828674,0.34961292147636414,0.988365888595581,0.569570779800415,0.9145867824554443,0.44873368740081787,0.9743298292160034,1.075240969657898,0.7897306084632874,0.3257180154323578,1.027522325515747,0.6068354845046997,0.6437446475028992,0.5458521842956543,1.019613265991211,0.8435992002487183,0.8142595887184143,0.3736219108104706,1.102510929107666,0.24724337458610535,0.8171567320823669
19584.86142255278,0.44987863302230835,0.2400171309709549,-1.1470813751220703,0.9999797344207764,0.45459499955177307,0.21552643179893494,-1.1017082929611206,0.9999390840530396,0.461976557970047,0.21420204639434814,-1.1017887592315674,0.9999239444732666,0.46870607137680054,0.21291705965995789,-1.1018794775009155,0.9999170303344727,0.4235079288482666,0.21682944893836975,-1.1344672441482544,0.999956488609314,0.4076229929924011,0.21648603677749634,-1.1347241401672363,0.9999563694000244,0.38815775513648987,0.21646228432655334,-1.1348748207092285,0.9999563694000244,0.45659467577934265,0.21700304746627808,-0.7700868844985962,0.9998574256896973,0.33641159534454346,0.22516661882400513,-0.9336994290351868,0.9999678134918213,0.45675620436668396,0.26061293482780457,-1.016424536705017,0.9999876022338867,0.4250691533088684,0.26368361711502075,-1.062362790107727,0.999994158744812,0.5377474427223206,0.3471401333808899,-0.47829562425613403,0.9999384880065918,0.1785091757774353,0.3704898953437805,-0.7884097695350647,0.9999593496322632,0.5773299336433411,0.5121581554412842,-0.2695745527744293,0.979620635509491,0.17447517812252045,0.5552014112472534,-0.7626521587371826,0.994545578956604,0.6329020261764526,0.6515533328056335,-0.4960363209247589,0.9809268712997437,0.2336166501045227,0.7081061601638794,-0.9281283020973206,0.9630827903747559,0.655895471572876,0.6922077536582947,-0.5856646299362183,0.9606426358222961,0.24159856140613556,0.7531771659851074,-1.0258783102035522,0.9301435947418213,0.634424090385437,0.6927364468574524,-0.6815080642700195,0.9639614820480347,0.2802180349826813,0.7454162240028381,-1.1033847332000732,0.934292197227478,0.6187864542007446,0.6835888624191284,-0.5395407676696777,0.9632235765457153,0.2873503565788269,0.7314563989639282,-0.9607526063919067,0.9364396929740906,0.49046069383621216,0.6362772583961487,0.1108122393488884,0.9982389211654663,0.3187386989593506,0.652472198009491,-0.1106191948056221,0.9990554451942444,0.48049792647361755,0.8470299243927002,0.37072646617889404,0.9449004530906677,0.3356744050979614,0.8784371614456177,0.04501359537243843,0.9772352576255798,0.47542643547058105,0.9616933465003967,1.0732014179229736,0.8493510484695435,0.34954994916915894,0.9928570985794067,0.5579361319541931,0.9146745204925537,0.4481944143772125,0.9774519205093384,1.1266602277755737,0.7838646769523621,0.3257448673248291,1.0363669395446777,0.5930640697479248,0.6407967209815979,0.5523948073387146,1.0203227996826172,0.899674654006958,0.8103310465812683,0.39240163564682007,1.1120834350585938,0.22707650065422058,0.815553605556488
19601.52808921945,0.44575193524360657,0.23860865831375122,-1.126360297203064,0.9999840259552002,0.4507408142089844,0.2140345573425293,-1.080405831336975,0.9999518394470215,0.45880642533302307,0.21242550015449524,-1.0804872512817383,0.9999401569366455,0.4663487374782562,0.21093738079071045,-1.0805771350860596,0.9999361038208008,0.41802430152893066,0.21614518761634827,-1.1105858087539673,0.9999635219573975,0.4008786380290985,0.21621832251548767,-1.1108187437057495,0.9999626874923706,0.38223040103912354,0.216568261384964,-1.1109603643417358,0.9999620914459229,0.4581301212310791,0.21603906154632568,-0.7528027892112732,0.9998905658721924,0.3327314555644989,0.22570782899856567,-0.904529869556427,0.999970555305481,0.4551675617694855,0.25971394777297974,-0.9982520937919617,0.9999901056289673,0.4217294752597809,0.26257985830307007,-1.0406994819641113,0.9999947547912598,0.539354681968689,0.34750330448150635,-0.4699903428554535,0.9999520778656006,0.17873011529445648,0.3722108006477356,-0.7670866250991821,0.9999566078186035,0.5759187340736389,0.5116209983825684,-0.2651432454586029,0.9821991324424744,0.17534281313419342,0.5544267892837524,-0.7466278076171875,0.9935805797576904,0.6295609474182129,0.6513011455535889,-0.4788219630718231,0.9848024249076843,0.23182182013988495,0.7063117027282715,-0.9130391478538513,0.960211455821991,0.6511424779891968,0.6922019720077515,-0.5666374564170837,0.9680772423744202,0.23838362097740173,0.7522341012954712,-1.009135127067566,0.9262569546699524,0.6309241652488708,0.6934468746185303,-0.6619624495506287,0.9707791209220886,0.2791891098022461,0.7449081540107727,-1.086941123008728,0.9305452704429626,0.6154916882514954,0.684197723865509,-0.5214866399765015,0.9698520302772522,0.28621619939804077,0.7309636473655701,-0.9462530016899109,0.9335831999778748,0.4880968928337097,0.6353678703308105,0.1105102077126503,0.9984943866729736,0.3164868950843811,0.6509206891059875,-0.11031108349561691,0.9991359114646912,0.47898557782173157,0.8461806178092957,0.34515509009361267,0.9471244215965271,0.3369760513305664,0.8726299405097961,0.026413854211568832,0.9791425466537476,0.47421830892562866,0.9620216488838196,1.032720685005188,0.867162823677063,0.3512159585952759,0.9915667772293091,0.5375074744224548,0.9256834983825684,0.4490146040916443,0.9754418134689331,1.0841094255447388,0.8043199777603149,0.32338330149650574,1.0319576263427734,0.5724360942840576,0.6701720952987671,0.5511314868927002,1.0199494361877441,0.8557219505310059,0.825653076171875,0.3861580193042755,1.1075377464294434,0.21172676980495453,0.8336353302001953
19618.194755886117,0.45265528559684753,0.23974454402923584,-1.1012704372406006,0.9999773502349854,0.45652249455451965,0.2157202661037445,-1.0552016496658325,0.9999345541000366,0.4636958837509155,0.21450668573379517,-1.055303692817688,0.9999179840087891,0.4703176021575928,0.21329578757286072,-1.0553855895996094,0.9999110698699951,0.42613762617111206,0.21667629480361938,-1.0892457962036133,0.9999499320983887,0.41042932868003845,0.21627509593963623,-1.0894948244094849,0.9999490976333618,0.39123550057411194,0.2162119448184967,-1.0896446704864502,0.9999481439590454,0.4556937515735626,0.2173832356929779,-0.7281866073608398,0.9998511075973511,0.3394102454185486,0.22501185536384583,-0.8980293273925781,0.9999611377716064,0.4586540162563324,0.260014146566391,-0.9730541706085205,0.9999866485595703,0.42730677127838135,0.26269257068634033,-1.0207349061965942,0.9999932050704956,0.5367884039878845,0.347195565700531,-0.4506911635398865,0.9999486207962036,0.1785987913608551,0.37063196301460266,-0.754016101360321,0.999948263168335,0.5752107501029968,0.5112757682800293,-0.24353350698947906,0.9823101162910461,0.174546018242836,0.5542881488800049,-0.7230327725410461,0.9935884475708008,0.627836287021637,0.6504136919975281,-0.4647422730922699,0.9849938750267029,0.23354703187942505,0.7058737874031067,-0.884467601776123,0.9607855677604675,0.6501424312591553,0.6907495260238647,-0.5520445108413696,0.9678921699523926,0.24182014167308807,0.7518448829650879,-0.9783546328544617,0.9273264408111572,0.629382848739624,0.691437304019928,-0.6474879384040833,0.9708197712898254,0.2799304127693176,0.7456660866737366,-1.0558961629867554,0.9321467876434326,0.6139134764671326,0.6824778318405151,-0.5073695182800293,0.9699535965919495,0.2869792580604553,0.7319458723068237,-0.9167895317077637,0.9348682165145874,0.4888039231300354,0.6347917914390564,0.10657387226819992,0.9985363483428955,0.3165709674358368,0.6494681239128113,-0.1063602939248085,0.9990679621696472,0.4791020452976227,0.8469740152359009,0.32781699299812317,0.9389342069625854,0.33750975131988525,0.8746606111526489,0.026005316525697708,0.9708155989646912,0.47119832038879395,0.963132381439209,1.0283921957015991,0.8383715152740479,0.3505966067314148,0.9876896739006042,0.5572036504745483,0.9030192494392395,0.4465275704860687,0.9755483269691467,1.0815411806106567,0.7836226224899292,0.3268992304801941,1.0262949466705322,0.5947900414466858,0.6375587582588196,0.5449256896972656,1.0231086015701294,0.8549063801765442,0.7955323457717896,0.3818829357624054,1.1013257503509521,0.23894020915031433,0.8014611601829529
19634.861422552785,0.44800934195518494,0.2372397482395172,-1.128858208656311,0.9999773502349854,0.45244890451431274,0.21307024359703064,-1.0835301876068115,0.9999325275421143,0.4602794647216797,0.21159759163856506,-1.0836080312728882,0.9999150037765503,0.46758219599723816,0.2102091908454895,-1.0836706161499023,0.9999082088470459,0.41987326741218567,0.21487018465995789,-1.1154662370681763,0.99994957447052,0.4027521014213562,0.21470269560813904,-1.1157033443450928,0.9999483823776245,0.3838987946510315,0.21481665968894958,-1.1158607006072998,0.9999480247497559,0.45822766423225403,0.21563857793807983,-0.756279706954956,0.9998420476913452,0.33477750420570374,0.22390374541282654,-0.9156238436698914,0.9999586343765259,0.45659345388412476,0.2590081989765167,-1.0005991458892822,0.9999858140945435,0.42348596453666687,0.26182934641838074,-1.0452806949615479,0.9999926090240479,0.538366436958313,0.34777939319610596,-0.4793712794780731,0.9999361038208008,0.1755184382200241,0.37036556005477905,-0.7746392488479614,0.9999442100524902,0.5764731764793396,0.5127853751182556,-0.26814037561416626,0.9804839491844177,0.17580895125865936,0.5528191924095154,-0.7470385432243347,0.9928977489471436,0.6288450360298157,0.6532395482063293,-0.4773220121860504,0.9821845889091492,0.2347394824028015,0.7067972421646118,-0.9072785377502441,0.9588477611541748,0.650002121925354,0.6933242678642273,-0.5632745027542114,0.9627521634101868,0.23959530889987946,0.7529504895210266,-1.0027790069580078,0.9250733852386475,0.6306462287902832,0.6943745613098145,-0.6590479016304016,0.9659914374351501,0.28009432554244995,0.7455501556396484,-1.0815975666046143,0.9298228621482849,0.6154755353927612,0.6847264766693115,-0.5202149152755737,0.9655027985572815,0.28658241033554077,0.7315441966056824,-0.9407677054405212,0.9329538345336914,0.48920565843582153,0.6361246705055237,0.1028798297047615,0.9984971284866333,0.3125118017196655,0.6487200260162354,-0.1026511937379837,0.9990559220314026,0.48192670941352844,0.8452867269515991,0.3374229669570923,0.953461229801178,0.33698293566703796,0.868588387966156,0.056794460862874985,0.9780125021934509,0.4721544086933136,0.9599869251251221,1.0437480211257935,0.8872470855712891,0.35336828231811523,0.9884020686149597,0.6384668350219727,0.9299760460853577,0.44825878739356995,0.9731398820877075,1.0969898700714111,0.8333465456962585,0.3449142277240753,0.990183413028717,0.6810227036476135,0.6982845664024353,0.5428127646446228,1.0239059925079346,0.8584159016609192,0.8509737253189087,0.38037312030792236,1.097102403640747,0.32448333501815796,0.8463778495788574
19651.528089219453,0.4488472044467926,0.2378283143043518,-1.148628830909729,0.9999843835830688,0.4533778131008148,0.2129582166671753,-1.1043541431427002,0.9999533891677856,0.4611976444721222,0.21170273423194885,-1.1044085025787354,0.9999406337738037,0.46838417649269104,0.21063673496246338,-1.1044598817825317,0.9999363422393799,0.42133787274360657,0.21424713730812073,-1.136276364326477,0.9999663829803467,0.4047431945800781,0.2140575349330902,-1.1365268230438232,0.9999650716781616,0.3859211802482605,0.214391827583313,-1.1366833448410034,0.9999651908874512,0.45899316668510437,0.21687662601470947,-0.7820813059806824,0.9998869895935059,0.33535847067832947,0.2247140109539032,-0.9429334402084351,0.9999724626541138,0.45667925477027893,0.2586464285850525,-1.022337794303894,0.9999899864196777,0.4242939054965973,0.2612623870372772,-1.0673812627792358,0.9999951124191284,0.5401608943939209,0.34726983308792114,-0.5087314248085022,0.9999487400054932,0.17612993717193604,0.3715054988861084,-0.7956328988075256,0.9999574422836304,0.5767847299575806,0.5123134851455688,-0.3058834969997406,0.9846938848495483,0.17165891826152802,0.5540850758552551,-0.7704676985740662,0.9943758249282837,0.629973292350769,0.6509432196617126,-0.5201706290245056,0.987159013748169,0.23338870704174042,0.7078208327293396,-0.9269344806671143,0.9652736186981201,0.6523663997650146,0.6906532049179077,-0.6088476777076721,0.971825361251831,0.24018558859825134,0.7529357671737671,-1.0200474262237549,0.933601438999176,0.6310098767280579,0.6910293102264404,-0.7040703892707825,0.9743084907531738,0.27822768688201904,0.7461374998092651,-1.0981006622314453,0.9378179311752319,0.6149405837059021,0.6822404861450195,-0.5627158880233765,0.9735910892486572,0.28528764843940735,0.7324336767196655,-0.9594191312789917,0.941106379032135,0.4882506728172302,0.6313464045524597,0.10202142596244812,0.9984455704689026,0.3134559392929077,0.6469433903694153,-0.1018095389008522,0.9991598129272461,0.48116007447242737,0.843941330909729,0.34120991826057434,0.9500753879547119,0.33758237957954407,0.8706434965133667,0.04147081822156906,0.9761799573898315,0.47178518772125244,0.9603596925735474,1.022420048713684,0.8643063902854919,0.3516424000263214,0.9882277846336365,0.5597460865974426,0.9196053743362427,0.44804322719573975,0.9731257557868958,1.0732922554016113,0.8045917749404907,0.33036667108535767,1.0266714096069336,0.5957555770874023,0.6645434498786926,0.5425236225128174,1.0204766988754272,0.8445941805839539,0.8193158507347107,0.3752121329307556,1.1016132831573486,0.239365354180336,0.8219954967498779
19668.19475588612,0.4497739374637604,0.23636513948440552,-1.1235615015029907,0.9999845027923584,0.45368245244026184,0.21039319038391113,-1.078237533569336,0.9999516010284424,0.4618316888809204,0.20954421162605286,-1.078299880027771,0.9999390840530396,0.46947312355041504,0.20859304070472717,-1.078359603881836,0.9999337196350098,0.42106717824935913,0.21287670731544495,-1.1095517873764038,0.9999649524688721,0.4042247533798218,0.2135852873325348,-1.1097979545593262,0.9999643564224243,0.38549166917800903,0.21448472142219543,-1.1099549531936646,0.9999639987945557,0.4599171280860901,0.21566614508628845,-0.7562129497528076,0.9998836517333984,0.33634963631629944,0.225468248128891,-0.9139276742935181,0.9999716281890869,0.45991384983062744,0.2579450309276581,-0.9978159070014954,0.9999899864196777,0.4264592230319977,0.25959762930870056,-1.0420329570770264,0.999995231628418,0.5414484739303589,0.34943804144859314,-0.4838019907474518,0.9999451637268066,0.17515422403812408,0.37430474162101746,-0.7798941731452942,0.9999619722366333,0.5766627788543701,0.5141396522521973,-0.2836925685405731,0.9825740456581116,0.1772603690624237,0.5563571453094482,-0.7562066316604614,0.9942528605461121,0.6317787766456604,0.653352677822113,-0.5017921328544617,0.9852692484855652,0.23378239572048187,0.7080246210098267,-0.9162556529045105,0.9666691422462463,0.6539520621299744,0.6915088891983032,-0.5903918743133545,0.9686846733093262,0.23621506989002228,0.7538536787033081,-1.0119962692260742,0.9372537136077881,0.6344926357269287,0.6918746829032898,-0.6856276392936707,0.971381425857544,0.27756166458129883,0.7467619776725769,-1.0905505418777466,0.94112229347229,0.6189566850662231,0.6838196516036987,-0.5448637008666992,0.9706358909606934,0.2853095233440399,0.7321102619171143,-0.9496768116950989,0.943748414516449,0.48998796939849854,0.6357507109642029,0.10722138732671738,0.9983953833580017,0.3150946795940399,0.6524819135665894,-0.10704940557479858,0.9991428852081299,0.4851623773574829,0.8447496294975281,0.36491474509239197,0.9507022500038147,0.336504727602005,0.8755314946174622,0.05550383776426315,0.9790467023849487,0.47675344347953796,0.9589173197746277,1.072824478149414,0.8620859384536743,0.3522723317146301,0.9925938248634338,0.593868613243103,0.9235035181045532,0.45122233033180237,0.9736372232437134,1.1268831491470337,0.800136923789978,0.32960057258605957,1.0286228656768799,0.6319683790206909,0.6667984127998352,0.5495204329490662,1.0179469585418701,0.9033172726631165,0.824385404586792,0.3864603042602539,1.104207158088684,0.2759338319301605,0.8324140310287476
19684.86142255279,0.4508375823497772,0.23527902364730835,-1.1312133073806763,0.9999829530715942,0.453281044960022,0.20898494124412537,-1.085357427597046,0.9999473094940186,0.4612461030483246,0.20788666605949402,-1.0854275226593018,0.9999351501464844,0.4688469171524048,0.20671746134757996,-1.085513710975647,0.9999306201934814,0.4215840697288513,0.21244046092033386,-1.1173582077026367,0.9999614953994751,0.40498459339141846,0.2136693298816681,-1.1176091432571411,0.9999610185623169,0.3861343264579773,0.21503087878227234,-1.117755651473999,0.9999603033065796,0.45764410495758057,0.21359732747077942,-0.7666268348693848,0.9998785257339478,0.335585355758667,0.22666087746620178,-0.9268110394477844,0.999968409538269,0.4620412588119507,0.2564305067062378,-1.0072731971740723,0.9999889135360718,0.4285559356212616,0.2589437961578369,-1.0521938800811768,0.9999943971633911,0.5410187840461731,0.3507234752178192,-0.4960786998271942,0.9999366998672485,0.1780526489019394,0.37487390637397766,-0.7939949035644531,0.99994957447052,0.5762618780136108,0.5138573050498962,-0.2968065142631531,0.9828078746795654,0.17838019132614136,0.556846022605896,-0.7728065848350525,0.994087815284729,0.630375325679779,0.6501659154891968,-0.5003244280815125,0.9850172400474548,0.233812615275383,0.7083612680435181,-0.9239404797554016,0.9638943672180176,0.6538213491439819,0.6898382306098938,-0.586164653301239,0.9677514433860779,0.239338681101799,0.753537118434906,-1.0178974866867065,0.9320924282073975,0.6333693861961365,0.6910646557807922,-0.6794198155403137,0.9704950451850891,0.2788095772266388,0.7463490962982178,-1.0956909656524658,0.9360070824623108,0.6175939440727234,0.6827759146690369,-0.5422025918960571,0.9697049260139465,0.2861323058605194,0.7324173450469971,-0.9569852948188782,0.938606321811676,0.4873839020729065,0.6342965960502625,0.1068074181675911,0.9983158111572266,0.31528887152671814,0.6500236988067627,-0.10667067021131516,0.9990540146827698,0.4806399643421173,0.8473908305168152,0.3663265109062195,0.9484207630157471,0.33881938457489014,0.8734905123710632,0.052019376307725906,0.9779932498931885,0.47140878438949585,0.9612082242965698,1.0402013063430786,0.8629712462425232,0.3526880145072937,0.9916360378265381,0.555088996887207,0.9188252687454224,0.44514429569244385,0.9750222563743591,1.0903233289718628,0.7933541536331177,0.33266180753707886,1.0312561988830566,0.5890861749649048,0.6476678252220154,0.5484496355056763,1.0202832221984863,0.8645275235176086,0.8224107623100281,0.3934594690799713,1.1054481267929077,0.23203328251838684,0.8244665861129761
19701.528089219457,0.44842809438705444,0.2354767620563507,-1.131431221961975,0.9999834299087524,0.4525868892669678,0.20904433727264404,-1.0849640369415283,0.99994957447052,0.4609204828739166,0.20820832252502441,-1.0850610733032227,0.9999377727508545,0.46872901916503906,0.20729517936706543,-1.0851335525512695,0.9999319314956665,0.4194818139076233,0.21171879768371582,-1.1169711351394653,0.9999631643295288,0.4021346867084503,0.21264001727104187,-1.1172351837158203,0.9999631643295288,0.383207768201828,0.213740736246109,-1.117390513420105,0.9999619722366333,0.4600785970687866,0.21439319849014282,-0.7571516633033752,0.9998831748962402,0.3341587781906128,0.22476860880851746,-0.9177316427230835,0.9999717473983765,0.45858311653137207,0.25688794255256653,-1.0036875009536743,0.9999895095825195,0.4242788255214691,0.25921279191970825,-1.0487620830535889,0.9999951124191284,0.540008544921875,0.348740816116333,-0.4755321741104126,0.999945878982544,0.1766306608915329,0.37174326181411743,-0.7779387831687927,0.9999585151672363,0.5772827863693237,0.5105361938476562,-0.27446797490119934,0.9826924800872803,0.17558057606220245,0.5530345439910889,-0.7545493841171265,0.9946538209915161,0.6304650902748108,0.6500396132469177,-0.502597451210022,0.9840212464332581,0.23207516968250275,0.7080947160720825,-0.9205033183097839,0.9618237018585205,0.6546729803085327,0.6906753778457642,-0.592777669429779,0.9656383991241455,0.23912371695041656,0.7535466551780701,-1.0160270929336548,0.9275181889533997,0.633613109588623,0.6916237473487854,-0.6887001395225525,0.9686837196350098,0.27799904346466064,0.7466176748275757,-1.0972224473953247,0.9323185682296753,0.6178758144378662,0.6828713417053223,-0.5460799932479858,0.968052327632904,0.2855844795703888,0.7327728271484375,-0.9547213315963745,0.9353124499320984,0.48753979802131653,0.6341069340705872,0.10846712440252304,0.9984622001647949,0.31206953525543213,0.6506190896034241,-0.10827688127756119,0.9991531372070312,0.4794921875,0.8518837094306946,0.37006357312202454,0.9451818466186523,0.3382626175880432,0.8772352933883667,0.03914184123277664,0.9774980545043945,0.47215136885643005,0.9630271792411804,1.0843403339385986,0.838472843170166,0.351444274187088,0.9920905232429504,0.5303434729576111,0.9102521538734436,0.4465644359588623,0.9761183261871338,1.1391382217407227,0.7740850448608398,0.3297806978225708,1.0349640846252441,0.5636892914772034,0.6293398141860962,0.5471833348274231,1.0228677988052368,0.9181252717971802,0.7951899170875549,0.39689016342163086,1.109760046005249,0.20126578211784363,0.8085785508155823
19718.194755886125,0.45053887367248535,0.23553994297981262,-1.1497764587402344,0.9999740123748779,0.45416060090065,0.20937156677246094,-1.104098916053772,0.9999208450317383,0.4622430205345154,0.208368182182312,-1.104175090789795,0.999901294708252,0.4699600040912628,0.20726564526557922,-1.1042693853378296,0.9998908042907715,0.4221721887588501,0.21236270666122437,-1.1366122961044312,0.9999440908432007,0.4053390920162201,0.21328428387641907,-1.1368805170059204,0.9999444484710693,0.38600820302963257,0.21435537934303284,-1.1370295286178589,0.9999438524246216,0.4599827826023102,0.21364137530326843,-0.7785388827323914,0.9998078942298889,0.33486318588256836,0.22484907507896423,-0.9409521818161011,0.9999562501907349,0.4612816870212555,0.25660625100135803,-1.0226256847381592,0.9999822378158569,0.42736148834228516,0.2586941421031952,-1.068166732788086,0.9999911785125732,0.5414712429046631,0.35003939270973206,-0.5032795071601868,0.9999034404754639,0.175681933760643,0.3751358389854431,-0.7872819900512695,0.9999270439147949,0.5781425833702087,0.512554407119751,-0.2914266288280487,0.9788155555725098,0.1791016161441803,0.5568863749504089,-0.7482085227966309,0.9929988384246826,0.6313653588294983,0.6519219875335693,-0.4889000356197357,0.9780327081680298,0.2338702231645584,0.7079984545707703,-0.8952604532241821,0.956322431564331,0.6543534994125366,0.691762387752533,-0.5698416829109192,0.9539849162101746,0.2374042272567749,0.7524301409721375,-0.9849244356155396,0.9187317490577698,0.6344746947288513,0.6925624012947083,-0.664811909198761,0.9579556584358215,0.27646884322166443,0.7452698349952698,-1.063547134399414,0.9241507649421692,0.6193671226501465,0.6838222146034241,-0.5313192009925842,0.9577369093894958,0.28437769412994385,0.7309420108795166,-0.9281594157218933,0.928164005279541,0.4913671314716339,0.6345735192298889,0.09272835403680801,0.9980779886245728,0.3156734108924866,0.6504299640655518,-0.09255043417215347,0.9988276362419128,0.4827204644680023,0.8461373448371887,0.3040759265422821,0.9523504972457886,0.3392041325569153,0.8708139657974243,0.040820635855197906,0.9731326699256897,0.47335126996040344,0.9647203087806702,0.9795635342597961,0.877928614616394,0.3532661199569702,0.9894154667854309,0.5909090042114258,0.9180439114570618,0.4506145417690277,0.9777100682258606,1.0283392667770386,0.8120204210281372,0.3437228798866272,1.0234801769256592,0.6286957859992981,0.6617289781570435,0.5438457727432251,1.0241174697875977,0.7818173766136169,0.8299195766448975,0.3732162117958069,1.0975968837738037,0.26546457409858704,0.8251445293426514
19734.861422552793,0.452352911233902,0.2356593906879425,-1.1100170612335205,0.9999815225601196,0.45535027980804443,0.20943978428840637,-1.064504623413086,0.9999444484710693,0.4631936550140381,0.2083941102027893,-1.0645785331726074,0.9999303817749023,0.47067922353744507,0.2072553038597107,-1.064655065536499,0.999924898147583,0.42388850450515747,0.2125309705734253,-1.0979045629501343,0.99996018409729,0.40721240639686584,0.2134702205657959,-1.0981543064117432,0.9999594688415527,0.3877514600753784,0.21458682417869568,-1.098292589187622,0.9999593496322632,0.4591830372810364,0.2136330008506775,-0.7436698079109192,0.9998687505722046,0.33621495962142944,0.22470000386238098,-0.9103619456291199,0.9999674558639526,0.46291041374206543,0.25662994384765625,-0.9846345782279968,0.9999878406524658,0.42928409576416016,0.2588665187358856,-1.0313963890075684,0.9999939203262329,0.5411783456802368,0.3502064049243927,-0.47719714045524597,0.9999325275421143,0.17647269368171692,0.37462684512138367,-0.7674273252487183,0.9999462366104126,0.5778211355209351,0.5132434368133545,-0.2786846458911896,0.98248690366745,0.17860829830169678,0.5575218200683594,-0.7361122965812683,0.993543267250061,0.63151615858078,0.6533936262130737,-0.4901653528213501,0.9831743836402893,0.2329019457101822,0.7082822322845459,-0.8858325481414795,0.9597780704498291,0.6534868478775024,0.6932389736175537,-0.5756027102470398,0.9636205434799194,0.2384677231311798,0.753229558467865,-0.9765296578407288,0.9249022603034973,0.6336711645126343,0.694068193435669,-0.6691635847091675,0.9667975902557373,0.2768586277961731,0.7459089159965515,-1.0556474924087524,0.9296895265579224,0.6187281608581543,0.6852877140045166,-0.5323276519775391,0.9662091732025146,0.2842370867729187,0.7316662073135376,-0.9189903736114502,0.933301568031311,0.49098753929138184,0.6354637145996094,0.10000103712081909,0.9981447458267212,0.317457914352417,0.6507986783981323,-0.09983985126018524,0.9989449381828308,0.48200562596321106,0.8485479354858398,0.33827102184295654,0.950390636920929,0.3392311632633209,0.8735040426254272,0.039803195744752884,0.9752164483070374,0.4739251434803009,0.9649038910865784,1.0002282857894897,0.8676537871360779,0.3517438769340515,0.9936941862106323,0.5483736991882324,0.9164301156997681,0.4494875967502594,0.9786678552627563,1.0485652685165405,0.800498902797699,0.3343198895454407,1.0318739414215088,0.582175612449646,0.6525313258171082,0.5477872490882874,1.0226117372512817,0.8136579990386963,0.8243237733840942,0.38025975227355957,1.1051700115203857,0.22038622200489044,0.8207590579986572
19751.52808921946,0.4512557089328766,0.2368135154247284,-1.1521812677383423,0.9999794960021973,0.45418429374694824,0.21095693111419678,-1.1047837734222412,0.9999409914016724,0.4617197513580322,0.20969706773757935,-1.1048789024353027,0.9999266862869263,0.46886011958122253,0.20847222208976746,-1.1049741506576538,0.9999223947525024,0.4227043092250824,0.21405744552612305,-1.138685941696167,0.9999545812606812,0.40570685267448425,0.21487241983413696,-1.1389412879943848,0.9999535083770752,0.38627976179122925,0.2159828245639801,-1.1390926837921143,0.999953031539917,0.4579002559185028,0.21476459503173828,-0.7734842896461487,0.9998666048049927,0.3359241783618927,0.22622519731521606,-0.9422712922096252,0.9999643564224243,0.45991918444633484,0.25766363739967346,-1.0230262279510498,0.9999879598617554,0.4270855188369751,0.2609749138355255,-1.070432186126709,0.9999936819076538,0.5397026538848877,0.350183367729187,-0.49435320496559143,0.999947190284729,0.17764122784137726,0.3745887875556946,-0.7955693006515503,0.9999440908432007,0.5768003463745117,0.511623740196228,-0.2910909950733185,0.9832936525344849,0.17472802102565765,0.5591434836387634,-0.7659862637519836,0.9938178658485413,0.6304453015327454,0.6498316526412964,-0.513852596282959,0.9860261678695679,0.23469355702400208,0.7096531987190247,-0.9295077919960022,0.9625213146209717,0.6528276205062866,0.690254807472229,-0.6033719182014465,0.9697441458702087,0.2422398328781128,0.7546436786651611,-1.0264613628387451,0.9298992156982422,0.6322628259658813,0.6908885836601257,-0.6996411085128784,0.9725385308265686,0.28033360838890076,0.7482819557189941,-1.1051971912384033,0.9344717264175415,0.6170727610588074,0.682053804397583,-0.5570799112319946,0.9714750051498413,0.28730300068855286,0.7349250912666321,-0.9629186391830444,0.9367583990097046,0.4879494607448578,0.6342352628707886,0.10759391635656357,0.9985016584396362,0.31548789143562317,0.650863766670227,-0.1074054092168808,0.9990172386169434,0.4770105183124542,0.8509369492530823,0.3439595401287079,0.9433640241622925,0.3361397087574005,0.8797605037689209,0.04206196591258049,0.9738638401031494,0.46951499581336975,0.966417670249939,1.0494658946990967,0.8588626980781555,0.35103923082351685,0.98934406042099,0.5965583324432373,0.9089714884757996,0.4435592591762543,0.9776003360748291,1.1025748252868652,0.797858476638794,0.3304072618484497,1.0269334316253662,0.6363795399665833,0.6354054808616638,0.5439256429672241,1.025350570678711,0.8659539222717285,0.820719301700592,0.3883155584335327,1.1031358242034912,0.27718016505241394,0.8124853372573853
19768.19475588613,0.44775447249412537,0.23521995544433594,-1.1655263900756836,0.999984860420227,0.4517892599105835,0.20869168639183044,-1.1185307502746582,0.999954104423523,0.46021103858947754,0.20770728588104248,-1.11861252784729,0.9999419450759888,0.46823763847351074,0.20670390129089355,-1.1186834573745728,0.9999375343322754,0.41804039478302,0.2118830382823944,-1.148027777671814,0.9999650716781616,0.3997396230697632,0.2130141258239746,-1.1482795476913452,0.9999643564224243,0.3808193802833557,0.21412312984466553,-1.1484370231628418,0.9999643564224243,0.4607602655887604,0.21368303894996643,-0.7876260280609131,0.9998873472213745,0.3319433629512787,0.22471430897712708,-0.9366663098335266,0.9999722242355347,0.4586750268936157,0.2566324770450592,-1.0369839668273926,0.9999903440475464,0.42370444536209106,0.2587895691394806,-1.0786820650100708,0.999995231628418,0.5424638986587524,0.3496799170970917,-0.5025509595870972,0.9999483823776245,0.1770910769701004,0.3717438876628876,-0.7967567443847656,0.9999586343765259,0.5745547413825989,0.5133124589920044,-0.3021995723247528,0.9833192229270935,0.1743106096982956,0.557881772518158,-0.7763576507568359,0.9945406317710876,0.6299099326133728,0.6515562534332275,-0.5293391346931458,0.9866987466812134,0.23563635349273682,0.7085129022598267,-0.952732264995575,0.9681199193000793,0.6528145670890808,0.6913120150566101,-0.620043933391571,0.9717181921005249,0.24183951318264008,0.753761887550354,-1.0531160831451416,0.9386187791824341,0.6324464082717896,0.692014217376709,-0.7178168296813965,0.9742020964622498,0.2806665003299713,0.7465903759002686,-1.1307806968688965,0.9424818754196167,0.6163116097450256,0.6831512451171875,-0.5734884738922119,0.9733114242553711,0.2880318760871887,0.7325490713119507,-0.9860959053039551,0.944846510887146,0.4873998463153839,0.6324180364608765,0.10873139649629593,0.9986329674720764,0.3139260411262512,0.6500943899154663,-0.10854099690914154,0.9991870522499084,0.48017165064811707,0.8433518409729004,0.3546978533267975,0.9491651654243469,0.33616766333580017,0.8749392032623291,0.04589281603693962,0.9792585968971252,0.47114160656929016,0.96163409948349,1.0505313873291016,0.8783339858055115,0.35062187910079956,0.9884329438209534,0.5977334380149841,0.9273900985717773,0.4465441405773163,0.9751523733139038,1.1022083759307861,0.8191611170768738,0.32834500074386597,1.024056315422058,0.6369637250900269,0.678831160068512,0.5461829900741577,1.021791934967041,0.8626647591590881,0.8410642147064209,0.3848278820514679,1.099853277206421,0.275377482175827,0.840788722038269
19784.861422552796,0.45370569825172424,0.2363031804561615,-1.1433686017990112,0.9999815225601196,0.45609143376350403,0.21032947301864624,-1.095826268196106,0.9999470710754395,0.46312618255615234,0.20919394493103027,-1.0959336757659912,0.9999337196350098,0.4696199893951416,0.20813018083572388,-1.0960110425949097,0.9999285936355591,0.4252954423427582,0.21246454119682312,-1.1304047107696533,0.9999597072601318,0.4089067578315735,0.2129325568675995,-1.1306790113449097,0.9999587535858154,0.38947004079818726,0.21384936571121216,-1.1308503150939941,0.9999582767486572,0.4571759104728699,0.2142132818698883,-0.760883092880249,0.9998847246170044,0.3381498456001282,0.22439342737197876,-0.9319742321968079,0.9999686479568481,0.4611397385597229,0.2569139003753662,-1.0125190019607544,0.9999897480010986,0.42948171496391296,0.25934362411499023,-1.0606790781021118,0.9999946355819702,0.5418539047241211,0.3485620617866516,-0.47823870182037354,0.9999483823776245,0.17735961079597473,0.3696357309818268,-0.7872468829154968,0.9999508857727051,0.575802206993103,0.5138655304908752,-0.2660083472728729,0.9836694598197937,0.17540501058101654,0.5565006732940674,-0.7534513473510742,0.9940451383590698,0.629972517490387,0.6532187461853027,-0.4887683391571045,0.984420895576477,0.23689019680023193,0.7097770571708679,-0.9141783714294434,0.9636536836624146,0.6522358059883118,0.6925911903381348,-0.5774540305137634,0.966258704662323,0.2412755936384201,0.7548888325691223,-1.0107258558273315,0.9317124485969543,0.6315252780914307,0.6935260891914368,-0.6751108169555664,0.9693682193756104,0.28196871280670166,0.7475186586380005,-1.0900874137878418,0.9364279508590698,0.6149563193321228,0.6845648884773254,-0.5325936079025269,0.9690552949905396,0.2893678843975067,0.7332001328468323,-0.9473506808280945,0.9385489821434021,0.4866720139980316,0.6353418827056885,0.10616276413202286,0.9985778331756592,0.3107416033744812,0.6512301564216614,-0.10595817118883133,0.999071478843689,0.47769442200660706,0.8514035940170288,0.31763413548469543,0.9476327300071716,0.3346191346645355,0.8781622648239136,0.0473916120827198,0.9735862612724304,0.4743635356426239,0.962725818157196,1.0839496850967407,0.8461871147155762,0.3490520417690277,0.9929444193840027,0.6281287670135498,0.9113209247589111,0.44901812076568604,0.9744325876235962,1.1444225311279297,0.7930150032043457,0.3431037962436676,0.9932823181152344,0.6716738939285278,0.6486101150512695,0.5431501269340515,1.0282933712005615,0.9163306355476379,0.808515727519989,0.38754910230636597,1.1080873012542725,0.31009018421173096,0.8147896528244019
19801.528089219464,0.45348694920539856,0.23740610480308533,-1.1572695970535278,0.9999791383743286,0.45550575852394104,0.21192535758018494,-1.1128160953521729,0.9999371767044067,0.4624617099761963,0.21065765619277954,-1.1128761768341064,0.9999213218688965,0.4689562916755676,0.20948946475982666,-1.1129485368728638,0.9999160766601562,0.4250759780406952,0.21379071474075317,-1.1461392641067505,0.9999539852142334,0.409013569355011,0.2140425443649292,-1.1463868618011475,0.9999526739120483,0.3897685706615448,0.21464672684669495,-1.1465449333190918,0.9999526739120483,0.4562495946884155,0.21481192111968994,-0.7894371747970581,0.9998518228530884,0.3392312824726105,0.2243100106716156,-0.955703854560852,0.999962568283081,0.4608629047870636,0.2577539086341858,-1.030124306678772,0.999987006187439,0.42924022674560547,0.26057496666908264,-1.0768452882766724,0.9999935626983643,0.5440430641174316,0.34814849495887756,-0.5101305246353149,0.9999407529830933,0.17754070460796356,0.36937835812568665,-0.8158509731292725,0.9999536275863647,0.5755274295806885,0.5125385522842407,-0.30892857909202576,0.982421338558197,0.17195147275924683,0.553550124168396,-0.7927127480506897,0.994335949420929,0.628872275352478,0.6504180431365967,-0.5191619992256165,0.9851206541061401,0.23491352796554565,0.7078957557678223,-0.9439736604690552,0.9668571352958679,0.6516726016998291,0.6905783414840698,-0.6067936420440674,0.9682409167289734,0.2404138445854187,0.7535967826843262,-1.0407466888427734,0.9371993541717529,0.6314577460289001,0.6914299726486206,-0.7007079124450684,0.9710028171539307,0.2800588011741638,0.746023416519165,-1.115410327911377,0.9408107995986938,0.6153284907341003,0.6822481751441956,-0.5612715482711792,0.9700639843940735,0.2869648039340973,0.7319403290748596,-0.9755563139915466,0.9425489902496338,0.48829373717308044,0.6318327784538269,0.10955730080604553,0.9983630776405334,0.31292110681533813,0.6482072472572327,-0.10937485098838806,0.9990861415863037,0.4816778004169464,0.841071367263794,0.3804190158843994,0.9497403502464294,0.33604297041893005,0.8673741817474365,0.05743377283215523,0.9791110157966614,0.47260621190071106,0.9595295190811157,1.0660295486450195,0.8834578394889832,0.35277852416038513,0.9904329776763916,0.6008593440055847,0.9294058680534363,0.4473797082901001,0.9731454253196716,1.1175343990325928,0.8251911997795105,0.3315785229206085,1.0238301753997803,0.6396446228027344,0.6833242177963257,0.5459696054458618,1.0198129415512085,0.8870823383331299,0.8509305119514465,0.3898364007472992,1.1001038551330566,0.2842497229576111,0.844999372959137
19818.194755886132,0.4540426731109619,0.23712556064128876,-1.1642961502075195,0.9999786615371704,0.45630720257759094,0.2122281789779663,-1.119390606880188,0.9999386072158813,0.4633930027484894,0.21091577410697937,-1.1194509267807007,0.9999226331710815,0.46992722153663635,0.20975187420845032,-1.119532823562622,0.9999171495437622,0.4256941080093384,0.21367761492729187,-1.1531692743301392,0.9999552965164185,0.4096028804779053,0.2136652171611786,-1.1534091234207153,0.9999537467956543,0.39027515053749084,0.2141018509864807,-1.1535574197769165,0.9999537467956543,0.4570160508155823,0.21549725532531738,-0.7930115461349487,0.9998564720153809,0.3389591872692108,0.22421565651893616,-0.9606675505638123,0.999963641166687,0.4609963297843933,0.2578147351741791,-1.0361944437026978,0.999987006187439,0.4299701750278473,0.2606950104236603,-1.083242654800415,0.9999933242797852,0.5398525595664978,0.34854936599731445,-0.5124989151954651,0.9999361038208008,0.1766398847103119,0.3714157044887543,-0.8165695071220398,0.9999468326568604,0.574127197265625,0.5120701789855957,-0.30231112241744995,0.9813717603683472,0.17395970225334167,0.555509626865387,-0.787688136100769,0.9939770698547363,0.6280455589294434,0.6491918563842773,-0.5096983313560486,0.9831211566925049,0.23587381839752197,0.7101913690567017,-0.9354732036590576,0.9647896885871887,0.6517140865325928,0.6893643736839294,-0.5968520045280457,0.9641647338867188,0.241937518119812,0.7552852034568787,-1.0318684577941895,0.9335131645202637,0.631095290184021,0.6898086667060852,-0.6921924352645874,0.967345118522644,0.28134673833847046,0.7478323578834534,-1.1074556112289429,0.9374514222145081,0.6145803332328796,0.6813370585441589,-0.5525842308998108,0.9667029976844788,0.2875511348247528,0.7337920665740967,-0.9673873782157898,0.9396219849586487,0.48846474289894104,0.6323327422142029,0.10458001494407654,0.9983468055725098,0.3135843873023987,0.6482473015785217,-0.10435286164283752,0.9990361928939819,0.48062655329704285,0.8428452014923096,0.35829365253448486,0.9523045420646667,0.3380475640296936,0.866331934928894,0.060453761368989944,0.97746741771698,0.4763825535774231,0.9613543748855591,1.0584092140197754,0.8849364519119263,0.3502907454967499,0.9882808923721313,0.6352628469467163,0.9282732009887695,0.4513954818248749,0.9746525287628174,1.1110678911209106,0.8279442191123962,0.3435453474521637,0.9897362589836121,0.6773170828819275,0.6881043910980225,0.5421110987663269,1.0277082920074463,0.8729084134101868,0.8468771576881409,0.37529370188713074,1.0977797508239746,0.31912097334861755,0.8404178619384766
19834.8614225528,0.4499486982822418,0.23628050088882446,-1.1673057079315186,0.9999845027923584,0.45375338196754456,0.20992043614387512,-1.1215835809707642,0.9999538660049438,0.4615956246852875,0.20882493257522583,-1.1216493844985962,0.9999418258666992,0.4687936305999756,0.20778244733810425,-1.1217193603515625,0.9999374151229858,0.4216226637363434,0.21267250180244446,-1.153076171875,0.9999654293060303,0.4041212499141693,0.21331918239593506,-1.1533139944076538,0.9999644756317139,0.385114848613739,0.21425703167915344,-1.1534557342529297,0.9999642372131348,0.45932111144065857,0.21457603573799133,-0.7928353548049927,0.9998881816864014,0.3354974389076233,0.22475072741508484,-0.9506542682647705,0.9999717473983765,0.45913562178611755,0.25736773014068604,-1.038859248161316,0.9999901056289673,0.42555326223373413,0.259940505027771,-1.0830433368682861,0.9999949932098389,0.5420057773590088,0.3499775826931,-0.5105857849121094,0.9999479055404663,0.1771235316991806,0.37209033966064453,-0.8088306784629822,0.9999545812606812,0.5772043466567993,0.5135390758514404,-0.30219557881355286,0.9829668998718262,0.17264999449253082,0.5565620064735413,-0.7804587483406067,0.9942392110824585,0.6304364204406738,0.6512541770935059,-0.5144734978675842,0.9855188131332397,0.23575459420681,0.7101783752441406,-0.9378424286842346,0.967033326625824,0.6532280445098877,0.6907742023468018,-0.6022213697433472,0.9690753817558289,0.23894844949245453,0.7554790377616882,-1.0355820655822754,0.9371861815452576,0.6337781548500061,0.6911484003067017,-0.6992131471633911,0.9718743562698364,0.2791711390018463,0.7486834526062012,-1.1120729446411133,0.9410995244979858,0.6175738573074341,0.6825131773948669,-0.558059811592102,0.9712032675743103,0.2871692180633545,0.7346513271331787,-0.9704291820526123,0.9436135292053223,0.4867357909679413,0.633750855922699,0.10664932429790497,0.9985785484313965,0.3120862543582916,0.6503104567527771,-0.1064523383975029,0.9991150498390198,0.4804377257823944,0.8461519479751587,0.3614315390586853,0.9499046802520752,0.3382451832294464,0.8711639046669006,0.06374117732048035,0.9778242111206055,0.47695210576057434,0.9646432399749756,1.0546948909759521,0.8851789236068726,0.3520614504814148,0.9903177618980408,0.6412851810455322,0.9279645085334778,0.45056086778640747,0.9765223860740662,1.1065195798873901,0.8304059505462646,0.34625840187072754,0.9912465214729309,0.6837393045425415,0.6908776760101318,0.5428809523582458,1.030470848083496,0.8672529458999634,0.8493279218673706,0.38393867015838623,1.097908616065979,0.3280002772808075,0.8427829146385193
19851.528089219468,0.4492132365703583,0.23580262064933777,-1.1286653280258179,0.9999860525131226,0.45239976048469543,0.20959970355033875,-1.0820910930633545,0.9999579191207886,0.46037521958351135,0.20851224660873413,-1.0821826457977295,0.999947190284729,0.46799731254577637,0.2074376940727234,-1.082240104675293,0.999942421913147,0.4199208617210388,0.21295282244682312,-1.1125842332839966,0.9999679327011108,0.4021760821342468,0.2140069603919983,-1.1128216981887817,0.9999673366546631,0.38304272294044495,0.21528753638267517,-1.1129786968231201,0.9999668598175049,0.4600895941257477,0.21440652012825012,-0.7542986869812012,0.9999003410339355,0.3346289098262787,0.22570988535881042,-0.9079232215881348,0.9999750852584839,0.46005308628082275,0.25699296593666077,-1.0011194944381714,0.9999914169311523,0.42554959654808044,0.2594066560268402,-1.0441192388534546,0.9999957084655762,0.5414862632751465,0.3492510914802551,-0.47536996006965637,0.9999551773071289,0.17814023792743683,0.3714074194431305,-0.7713355422019958,0.9999600648880005,0.5759261846542358,0.5132638216018677,-0.2684619724750519,0.9834915995597839,0.17221707105636597,0.554371178150177,-0.7451650500297546,0.994296133518219,0.6285257339477539,0.6508249640464783,-0.4902648329734802,0.9861553311347961,0.23479971289634705,0.7092782855033875,-0.9118641018867493,0.965306282043457,0.6516809463500977,0.6901888251304626,-0.5797381401062012,0.9707457423210144,0.23888878524303436,0.7552831172943115,-1.0089399814605713,0.9347673654556274,0.6313334703445435,0.6910621523857117,-0.6758530735969543,0.9733726382255554,0.27994224429130554,0.7478524446487427,-1.0877137184143066,0.9390053153038025,0.6150450110435486,0.6825841665267944,-0.5335399508476257,0.9727687239646912,0.2877325415611267,0.7333892583847046,-0.9452579617500305,0.9421518445014954,0.4871373474597931,0.6349573135375977,0.10835456848144531,0.9987192153930664,0.31230056285858154,0.6513994932174683,-0.10813190788030624,0.9991940855979919,0.47927916049957275,0.8494421243667603,0.35044530034065247,0.9494112730026245,0.33676496148109436,0.8752378225326538,0.04657991975545883,0.9786538481712341,0.47505149245262146,0.9629030823707581,1.0585570335388184,0.8732610940933228,0.3498937785625458,0.9928157329559326,0.6024045348167419,0.9234220385551453,0.44922468066215515,0.9751072525978088,1.1122859716415405,0.8195825815200806,0.34253522753715515,0.9923014044761658,0.6429882645606995,0.681201159954071,0.5457761287689209,1.0253076553344727,0.8798627257347107,0.8321509957313538,0.3885577321052551,1.102627158164978,0.2863665819168091,0.8306178450584412
19868.194755886136,0.4480079710483551,0.23861293494701385,-1.1421579122543335,0.9999837875366211,0.45195257663726807,0.21387144923210144,-1.0973782539367676,0.9999500513076782,0.46001699566841125,0.2122345268726349,-1.097473382949829,0.999937891960144,0.4677537679672241,0.21075406670570374,-1.0975511074066162,0.9999328851699829,0.4195329546928406,0.2165643274784088,-1.126198649406433,0.9999613761901855,0.4027232229709625,0.2169504463672638,-1.1264039278030396,0.9999600648880005,0.3835549056529999,0.21754977107048035,-1.1265692710876465,0.9999591112136841,0.460013747215271,0.21603229641914368,-0.7708215713500977,0.9998891353607178,0.3361753523349762,0.22615429759025574,-0.9151062965393066,0.999968409538269,0.4585389494895935,0.258490651845932,-1.0140941143035889,0.9999898672103882,0.424002081155777,0.26157230138778687,-1.054521918296814,0.9999947547912598,0.5422304272651672,0.34796783328056335,-0.4829700291156769,0.9999538660049438,0.1839926540851593,0.36736708879470825,-0.7800365090370178,0.9999591112136841,0.5758503675460815,0.5144919753074646,-0.2810198664665222,0.9824891090393066,0.17833638191223145,0.5538731217384338,-0.7598105669021606,0.9934707880020142,0.6308863759040833,0.6502285599708557,-0.49546822905540466,0.9849768877029419,0.2333313524723053,0.7097787857055664,-0.9325251579284668,0.9622692465782166,0.65216463804245,0.6914504170417786,-0.5840005874633789,0.9681716561317444,0.24030688405036926,0.7553306818008423,-1.0308188199996948,0.9301160573959351,0.6336283683776855,0.6923550963401794,-0.6794578433036804,0.9709141254425049,0.2804934084415436,0.7474800944328308,-1.1118264198303223,0.9347074031829834,0.6181156039237976,0.6829336881637573,-0.5382177233695984,0.9702587723731995,0.28603750467300415,0.7331174612045288,-0.9672371745109558,0.9378390312194824,0.4845922291278839,0.6355160474777222,0.10828082263469696,0.9986742734909058,0.3120367228984833,0.64980548620224,-0.10800547152757645,0.9992444515228271,0.4812288284301758,0.8430781364440918,0.34858620166778564,0.954616129398346,0.33639439940452576,0.872230052947998,0.04660890996456146,0.9820636510848999,0.47519323229789734,0.9615018367767334,1.0508713722229004,0.8781104683876038,0.349931538105011,0.9892370104789734,0.575050413608551,0.9329082369804382,0.4491364359855652,0.9757528901100159,1.1038453578948975,0.8194965124130249,0.3291701674461365,1.026257038116455,0.6126666069030762,0.6936498880386353,0.5505666732788086,1.0229183435440063,0.8762668967247009,0.8344783782958984,0.3887595236301422,1.1012135744094849,0.258893758058548,0.8460891246795654
19884.861422552804,0.4474480152130127,0.23818619549274445,-1.1639163494110107,0.9999861717224121,0.4517247676849365,0.21316730976104736,-1.1208209991455078,0.999956488609314,0.4598274827003479,0.2117137610912323,-1.1208823919296265,0.9999452829360962,0.4673534631729126,0.21038776636123657,-1.120934009552002,0.999940037727356,0.41896411776542664,0.21559575200080872,-1.1490418910980225,0.9999679327011108,0.40162160992622375,0.21594592928886414,-1.1492657661437988,0.9999672174453735,0.3826231360435486,0.2166440188884735,-1.1494240760803223,0.999967098236084,0.46080392599105835,0.21590042114257812,-0.7978148460388184,0.999895453453064,0.3360024392604828,0.22564607858657837,-0.940292477607727,0.9999744892120361,0.45761990547180176,0.25845062732696533,-1.0367581844329834,0.9999905824661255,0.4230695068836212,0.261108934879303,-1.0765727758407593,0.9999954700469971,0.543583333492279,0.349563866853714,-0.5089045763015747,0.9999480247497559,0.18205642700195312,0.36942216753959656,-0.8013625741004944,0.9999635219573975,0.5765032768249512,0.5138787031173706,-0.2993638813495636,0.9813381433486938,0.175636887550354,0.5547518730163574,-0.7793344259262085,0.9942969679832458,0.6305931210517883,0.64974045753479,-0.5074746608734131,0.9838451147079468,0.23411637544631958,0.7083458304405212,-0.945029079914093,0.9665912985801697,0.653023362159729,0.6908736824989319,-0.5940371751785278,0.9663988947868347,0.2400188148021698,0.754784107208252,-1.0414446592330933,0.9368046522140503,0.6344426870346069,0.6918065547943115,-0.6888003945350647,0.9691768884658813,0.2801331877708435,0.7463662624359131,-1.1191297769546509,0.940609335899353,0.6186976432800293,0.682525098323822,-0.5498744249343872,0.9688679575920105,0.2857794761657715,0.7320258617401123,-0.9778926372528076,0.9433713555335999,0.48820629715919495,0.633124828338623,0.10705806314945221,0.9985361099243164,0.3140623867511749,0.6481898427009583,-0.10684964805841446,0.9992006421089172,0.48222631216049194,0.8404454588890076,0.3684770464897156,0.9533013105392456,0.33828026056289673,0.8688830733299255,0.059127047657966614,0.9819642305374146,0.47445181012153625,0.959759533405304,1.049511432647705,0.8880354166030884,0.3497958183288574,0.9897322058677673,0.5865973234176636,0.9348036050796509,0.4478905200958252,0.9744141697883606,1.1004490852355957,0.8324765563011169,0.3321267366409302,1.0239157676696777,0.6240646839141846,0.7055115699768066,0.5465162992477417,1.0226514339447021,0.8705838918685913,0.8490291237831116,0.3929590582847595,1.0997875928878784,0.2700222134590149,0.8495666980743408
19901.52808921947,0.45292016863822937,0.23295485973358154,-1.1394327878952026,0.9999891519546509,0.45612600445747375,0.20733383297920227,-1.0929251909255981,0.9999666213989258,0.46498820185661316,0.20634299516677856,-1.0929923057556152,0.9999594688415527,0.47306010127067566,0.20518651604652405,-1.0930511951446533,0.9999556541442871,0.4238932132720947,0.21024689078330994,-1.1269267797470093,0.9999748468399048,0.4067186713218689,0.21155187487602234,-1.1271735429763794,0.9999741315841675,0.38684868812561035,0.21298953890800476,-1.12733793258667,0.999972939491272,0.46058881282806396,0.21195697784423828,-0.7727171182632446,0.999927282333374,0.3353579640388489,0.22468313574790955,-0.943180501461029,0.9999796152114868,0.46519264578819275,0.2546990215778351,-1.0151697397232056,0.9999933242797852,0.4296562671661377,0.25724083185195923,-1.063162088394165,0.9999967813491821,0.544006884098053,0.3492642045021057,-0.5040604472160339,0.9999550580978394,0.1796216517686844,0.3701060712337494,-0.8088422417640686,0.9999600648880005,0.5743476152420044,0.5148146152496338,-0.30807554721832275,0.9853929877281189,0.17415271699428558,0.5538297891616821,-0.7952864766120911,0.9946655035018921,0.6287234425544739,0.6522567272186279,-0.5177043080329895,0.9888429641723633,0.23661111295223236,0.7097041606903076,-0.9499449729919434,0.9672740697860718,0.6495007872581482,0.6934649348258972,-0.6066122055053711,0.9749934673309326,0.2440938502550125,0.7543519139289856,-1.044463038444519,0.9379458427429199,0.631101131439209,0.6943041682243347,-0.7014256119728088,0.9772910475730896,0.28289681673049927,0.747611403465271,-1.123560905456543,0.9417920708656311,0.6164624691009521,0.684406578540802,-0.5602546334266663,0.9763780832290649,0.2898882031440735,0.7340962886810303,-0.9831770658493042,0.9432195425033569,0.4854182302951813,0.6303331851959229,0.10648932307958603,0.9985637068748474,0.31095585227012634,0.6453598737716675,-0.10631907731294632,0.9992528557777405,0.4779961109161377,0.8492865562438965,0.3692987859249115,0.9558539986610413,0.33858683705329895,0.8734881281852722,0.02628224343061447,0.9818152785301208,0.46989646553993225,0.9632083177566528,1.0913032293319702,0.8691692352294922,0.35493651032447815,0.9903077483177185,0.5100412964820862,0.926697850227356,0.4437365233898163,0.9752486348152161,1.1466082334518433,0.8047108054161072,0.3337920904159546,1.0345202684402466,0.5424644947052002,0.6592166423797607,0.5444221496582031,1.021152138710022,0.9262165427207947,0.8290308713912964,0.39686182141304016,1.1092350482940674,0.17907078564167023,0.8361805081367493
19918.19475588614,0.4473190903663635,0.23745521903038025,-1.1167893409729004,0.9999841451644897,0.4514855444431305,0.21108326315879822,-1.0718759298324585,0.9999512434005737,0.459860235452652,0.20969432592391968,-1.0719741582870483,0.9999383687973022,0.4678347706794739,0.208375483751297,-1.0720429420471191,0.9999330043792725,0.41830748319625854,0.21427398920059204,-1.0995842218399048,0.9999632835388184,0.400485098361969,0.2149946093559265,-1.099798321723938,0.9999620914459229,0.38168683648109436,0.2159942090511322,-1.099958062171936,0.9999618530273438,0.46170535683631897,0.214692622423172,-0.7511233687400818,0.9998908042907715,0.3351353406906128,0.22547921538352966,-0.8902938961982727,0.9999713897705078,0.45838457345962524,0.2582777142524719,-0.9917476177215576,0.9999898672103882,0.4239080250263214,0.26113638281822205,-1.0305861234664917,0.9999947547912598,0.5416661500930786,0.349944144487381,-0.4709964692592621,0.9999417066574097,0.18260255455970764,0.37146657705307007,-0.762867271900177,0.9999542236328125,0.575258731842041,0.5164275169372559,-0.26356303691864014,0.9805559515953064,0.18023625016212463,0.5559525489807129,-0.7375770211219788,0.9928508996963501,0.6301607489585876,0.6514741778373718,-0.4579561650753021,0.9806933999061584,0.23389562964439392,0.7100953459739685,-0.8971767425537109,0.9574754238128662,0.6500043869018555,0.6926131844520569,-0.5399923920631409,0.960556149482727,0.24072237312793732,0.7557364106178284,-0.9915871620178223,0.9222540259361267,0.6316639184951782,0.6936938762664795,-0.6336514949798584,0.963939905166626,0.28155139088630676,0.7472200989723206,-1.0698782205581665,0.9274255037307739,0.6165469884872437,0.6840718984603882,-0.4995790421962738,0.9643541574478149,0.28652817010879517,0.732930600643158,-0.9307364225387573,0.9323964715003967,0.48571982979774475,0.6359699368476868,0.1056877076625824,0.9984741806983948,0.3125344514846802,0.6508988738059998,-0.10538378357887268,0.9990552067756653,0.4821501672267914,0.8461242914199829,0.32839393615722656,0.9477736353874207,0.33368486166000366,0.8743836879730225,0.043959785252809525,0.9780675768852234,0.4762224853038788,0.962702214717865,0.9953508973121643,0.8699381351470947,0.3480977416038513,0.9904978275299072,0.5871859788894653,0.9221734404563904,0.4518073797225952,0.9745402932167053,1.044236660003662,0.8203023672103882,0.33152931928634644,1.0227034091949463,0.6263848543167114,0.6930289268493652,0.5413101315498352,1.0248327255249023,0.8081859350204468,0.8165110349655151,0.3793339431285858,1.097933053970337,0.27459853887557983,0.8202351331710815
19934.861422552807,0.4498901963233948,0.23399433493614197,-1.1596182584762573,0.9999849796295166,0.45396512746810913,0.20762065052986145,-1.1142010688781738,0.9999531507492065,0.46253907680511475,0.20679408311843872,-1.1142653226852417,0.9999406337738037,0.4707454741001129,0.20586726069450378,-1.1143180131912231,0.9999356269836426,0.42069870233535767,0.21033036708831787,-1.1457648277282715,0.9999657869338989,0.4034114181995392,0.21134257316589355,-1.145997405052185,0.999964714050293,0.3838779926300049,0.21262362599372864,-1.1461490392684937,0.999964714050293,0.46166926622390747,0.21281060576438904,-0.7870782017707825,0.9998855590820312,0.334555983543396,0.22342416644096375,-0.9453785419464111,0.9999721050262451,0.46081140637397766,0.25576910376548767,-1.0317002534866333,0.9999899864196777,0.4262973964214325,0.25732165575027466,-1.0760985612869263,0.999995231628418,0.5408204793930054,0.3490469455718994,-0.5045969486236572,0.9999432563781738,0.17720898985862732,0.3696587085723877,-0.8096102476119995,0.9999589920043945,0.5725045204162598,0.5144644379615784,-0.3050701320171356,0.981320321559906,0.17578543722629547,0.554354190826416,-0.7889681458473206,0.9940107464790344,0.6303646564483643,0.6493648290634155,-0.521155834197998,0.9832400679588318,0.2370903640985489,0.7090907096862793,-0.9481623768806458,0.9639204144477844,0.6526885032653809,0.690716028213501,-0.608296275138855,0.9649091958999634,0.24105116724967957,0.7543102502822876,-1.0461516380310059,0.9324093461036682,0.6339023113250732,0.6914585828781128,-0.7036306262016296,0.967990517616272,0.2812950313091278,0.7462432980537415,-1.121945858001709,0.9367021322250366,0.6185780763626099,0.6823407411575317,-0.5643015503883362,0.9676554799079895,0.2878318428993225,0.7320440411567688,-0.9805121421813965,0.9394278526306152,0.48727235198020935,0.6328734159469604,0.10919064283370972,0.9985052347183228,0.3116547465324402,0.6483535170555115,-0.10898158699274063,0.999154806137085,0.4808093011379242,0.8426544666290283,0.37129104137420654,0.9521713852882385,0.3355919122695923,0.8724230527877808,0.057618167251348495,0.9801223278045654,0.47306838631629944,0.9587646722793579,1.0734307765960693,0.8839295506477356,0.3500511348247528,0.9894797801971436,0.6152589321136475,0.931290864944458,0.44669055938720703,0.9717587828636169,1.1264898777008057,0.8284822106361389,0.33295080065727234,1.0227317810058594,0.6555578112602234,0.6895353198051453,0.543281078338623,1.020383596420288,0.8939632773399353,0.8494681715965271,0.38848310708999634,1.099536657333374,0.29816898703575134,0.8468653559684753
19951.528089219475,0.45128366351127625,0.2352869212627411,-1.111067771911621,0.9999842643737793,0.4551446735858917,0.20879635214805603,-1.0674601793289185,0.9999514818191528,0.4635871648788452,0.20778080821037292,-1.067527413368225,0.9999386072158813,0.4717034697532654,0.2066861093044281,-1.0675803422927856,0.9999333620071411,0.4221193492412567,0.21173691749572754,-1.0997015237808228,0.9999638795852661,0.4048007130622864,0.2126619815826416,-1.0999161005020142,0.9999629259109497,0.38520005345344543,0.21385738253593445,-1.1000471115112305,0.9999624490737915,0.46204206347465515,0.2134931981563568,-0.7502188086509705,0.9998828172683716,0.336465448141098,0.22393888235092163,-0.9112632274627686,0.9999703168869019,0.4624256193637848,0.2567465305328369,-0.9865202903747559,0.99998939037323,0.42782652378082275,0.25868910551071167,-1.0316259860992432,0.9999946355819702,0.5402669906616211,0.34979280829429626,-0.4784410893917084,0.9999450445175171,0.17996852099895477,0.3673555850982666,-0.7840834856033325,0.9999548196792603,0.5725950002670288,0.5148719549179077,-0.27919191122055054,0.9811317920684814,0.18076005578041077,0.5527054071426392,-0.7609179615974426,0.9933941960334778,0.6291849613189697,0.6487017273902893,-0.4796982407569885,0.9831081032752991,0.23510268330574036,0.7083240151405334,-0.9060332775115967,0.9617403149604797,0.6521833539009094,0.6894371509552002,-0.5623944997787476,0.9644906520843506,0.23932258784770966,0.7549341917037964,-0.9996574521064758,0.9301460981369019,0.6341283321380615,0.6903494596481323,-0.655350387096405,0.9676775336265564,0.28011614084243774,0.7476342916488647,-1.0768537521362305,0.934872567653656,0.618523120880127,0.6816307902336121,-0.5215998291969299,0.9677890539169312,0.28659528493881226,0.7332942485809326,-0.9388045072555542,0.938737154006958,0.4866686463356018,0.6327581405639648,0.10743636637926102,0.9985578656196594,0.3118058145046234,0.6474151015281677,-0.10724757611751556,0.9990745782852173,0.4817960560321808,0.8426794409751892,0.35800105333328247,0.9470064640045166,0.3381209373474121,0.8689579963684082,0.06209323927760124,0.9760422706604004,0.4731179177761078,0.9601048231124878,1.0248026847839355,0.877661406993866,0.34893345832824707,0.9859858751296997,0.6227666139602661,0.9217474460601807,0.44813787937164307,0.9720101952552795,1.074545979499817,0.8259119987487793,0.34024083614349365,0.9877368807792664,0.6638184189796448,0.686552107334137,0.5407238006591797,1.0234827995300293,0.844458818435669,0.838545024394989,0.3851459324359894,1.0938315391540527,0.3176887333393097,0.8299704790115356
19968.194755886143,0.4539189636707306,0.23510441184043884,-1.1289178133010864,0.9999797344207764,0.4571228623390198,0.2085365355014801,-1.081036925315857,0.9999419450759888,0.46532922983169556,0.20755401253700256,-1.0811622142791748,0.9999288320541382,0.4730215072631836,0.2064325213432312,-1.0812404155731201,0.9999228715896606,0.42534756660461426,0.21180137991905212,-1.1169898509979248,0.999954342842102,0.4084056615829468,0.21294325590133667,-1.1172282695770264,0.9999527931213379,0.38862577080726624,0.2142467498779297,-1.1174132823944092,0.9999501705169678,0.4604548513889313,0.21311432123184204,-0.7460700273513794,0.9998879432678223,0.3361802399158478,0.2250654697418213,-0.9226617217063904,0.9999638795852661,0.4655274450778961,0.2565211057662964,-0.9977911710739136,0.9999899864196777,0.43167421221733093,0.25893253087997437,-1.047606110572815,0.9999945163726807,0.540848970413208,0.34843629598617554,-0.4700659215450287,0.9999575614929199,0.17742548882961273,0.3721150755882263,-0.7762906551361084,0.9999412298202515,0.5742547512054443,0.5147459506988525,-0.2584782838821411,0.9867559671401978,0.17526020109653473,0.5549569129943848,-0.7441405057907104,0.9936843514442444,0.6302141547203064,0.6517174243927002,-0.4861307144165039,0.9878942370414734,0.23482033610343933,0.7102158069610596,-0.9091139435768127,0.9610272645950317,0.6508392691612244,0.6930554509162903,-0.5770599842071533,0.9731273651123047,0.2396359145641327,0.7550804615020752,-1.0062488317489624,0.9283114075660706,0.6321409344673157,0.6937112212181091,-0.6733512282371521,0.9757452607154846,0.2795642912387848,0.7473410964012146,-1.0891269445419312,0.9336370825767517,0.6168272495269775,0.6850010752677917,-0.5290935635566711,0.9751499891281128,0.2868354916572571,0.733142614364624,-0.9436889290809631,0.9359413385391235,0.48686665296554565,0.6357539892196655,0.10338083654642105,0.9985542893409729,0.31139814853668213,0.6508862376213074,-0.10308368504047394,0.9989323019981384,0.4775976240634918,0.8531065583229065,0.3019926846027374,0.9466969966888428,0.33687928318977356,0.8788706660270691,0.057425618171691895,0.9687902927398682,0.47334709763526917,0.9628514051437378,1.082815170288086,0.8199995756149292,0.34993860125541687,0.9901612401008606,0.6509271264076233,0.892489492893219,0.4488385319709778,0.9735692739486694,1.1450388431549072,0.7711055278778076,0.34214121103286743,0.9911006093025208,0.6959826350212097,0.6252894401550293,0.5372861623764038,1.0280513763427734,0.9196335673332214,0.7758862376213074,0.3902035355567932,1.1063041687011719,0.337414026260376,0.7814993858337402
