time,X_NOSE,Y_NOSE,Z_NOSE,visibility_NOSE,X_LEFT_EYE_INNER,Y_LEFT_EYE_INNER,Z_LEFT_EYE_INNER,visibility_LEFT_EYE_INNER,X_LEFT_EYE,Y_LEFT_EYE,Z_LEFT_EYE,visibility_LEFT_EYE,X_LEFT_EYE_OUTER,Y_LEFT_EYE_OUTER,Z_LEFT_EYE_OUTER,visibility_LEFT_EYE_OUTER,X_RIGHT_EYE_OUTER,Y_RIGHT_EYE_OUTER,Z_RIGHT_EYE_OUTER,visibility_RIGHT_EYE_OUTER,X_RIGHT_EYE,Y_RIGHT_EYE,Z_RIGHT_EYE,visibility_RIGHT_EYE,X_RIGHT_EYE_OUTER,Y_RIGHT_EYE_OUTER,Z_RIGHT_EYE_OUTER,visibility_RIGHT_EYE_OUTER,X_LEFT_EAR,Y_LEFT_EAR,Z_LEFT_EAR,visibility_LEFT_EAR,X_RIGHT_EAR,Y_RIGHT_EAR,Z_RIGHT_EAR,visibility_RIGHT_EAR,X_MOUTH_LEFT,Y_MOUTH_LEFT,Z_MOUTH_LEFT,visibility_MOUTH_LEFT,X_MOUTH_RIGHT,Y_MOUTH_RIGHT,Z_MOUTH_RIGHT,visibility_MOUTH_RIGHT,X_LEFT_SHOULDER,Y_LEFT_SHOULDER,Z_LEFT_SHOULDER,visibility_LEFT_SHOULDER,X_RIGHT_SHOULDER,Y_RIGHT_SHOULDER,Z_RIGHT_SHOULDER,visibility_RIGHT_SHOULDER,X_LEFT_ELBOW,Y_LEFT_ELBOW,Z_LEFT_ELBOW,visibility_LEFT_ELBOW,X_RIGHT_ELBOW,Y_RIGHT_ELBOW,Z_RIGHT_ELBOW,visibility_RIGHT_ELBOW,X_LEFT_WRIST,Y_LEFT_WRIST,Z_LEFT_WRIST,visibility_LEFT_WRIST,X_RIGHT_WRIST,Y_RIGHT_WRIST,Z_RIGHT_WRIST,visibility_RIGHT_WRIST,X_LEFT_PINKY,Y_LEFT_PINKY,Z_LEFT_PINKY,visibility_LEFT_PINKY,X_RIGHT_PINKY,Y_RIGHT_PINKY,Z_RIGHT_PINKY,visibility_RIGHT_PINKY,X_LEFT_INDEX,Y_LEFT_INDEX,Z_LEFT_INDEX,visibility_LEFT_INDEX,X_RIGHT_INDEX,Y_RIGHT_INDEX,Z_RIGHT_INDEX,visibility_RIGHT_INDEX,X_LEFT_THUMB,Y_LEFT_THUMB,Z_LEFT_THUMB,visibility_LEFT_THUMB,X_RIGHT_THUMB,Y_RIGHT_THUMB,Z_RIGHT_THUMB,visibility_RIGHT_THUMB,X_LEFT_HIP,Y_LEFT_HIP,Z_LEFT_HIP,visibility_LEFT_HIP,X_RIGHT_HIP,Y_RIGHT_HIP,Z_RIGHT_HIP,visibility_RIGHT_HIP,X_LEFT_KNEE,Y_LEFT_KNEE,Z_LEFT_KNEE,visibility_LEFT_KNEE,X_RIGHT_KNEE,Y_RIGHT_KNEE,Z_RIGHT_KNEE,visibility_RIGHT_KNEE,X_LEFT_ANKLE,Y_LEFT_ANKLE,Z_LEFT_ANKLE,visibility_LEFT_ANKLE,X_RIGHT_ANKLE,Y_RIGHT_ANKLE,Z_RIGHT_ANKLE,visibility_RIGHT_ANKLE,X_LEFT_HEEL,Y_LEFT_HEEL,Z_LEFT_HEEL,visibility_LEFT_HEEL,X_RIGHT_HEEL,Y_RIGHT_HEEL,Z_RIGHT_HEEL,visibility_RIGHT_HEEL,X_LEFT_FOOT_INDEX,Y_LEFT_FOOT_INDEX,Z_LEFT_FOOT_INDEX,visibility_LEFT_FOOT_INDEX,X_RIGHT_FOOT_INDEX,Y_RIGHT_FOOT_INDEX,Z_RIGHT_FOOT_INDEX,visibility_RIGHT_FOOT_INDEX
14555.703599211822,0.5078653693199158,0.26514554023742676,-0.815277636051178,0.9999538660049438,0.5248681902885437,0.24615591764450073,-0.7775163650512695,0.9999111890792847,0.5337263941764832,0.24719823896884918,-0.7777377367019653,0.9999090433120728,0.5423767566680908,0.2481444776058197,-0.7779799699783325,0.9999017715454102,0.4937126636505127,0.24341651797294617,-0.7946513891220093,0.9998695850372314,0.4801252484321594,0.24246332049369812,-0.7946327328681946,0.9998588562011719,0.46859118342399597,0.24166448414325714,-0.7948503494262695,0.9998348951339722,0.5483012199401855,0.2579587697982788,-0.4837506115436554,0.9999234676361084,0.4415310025215149,0.24907170236110687,-0.5681003928184509,0.9998623132705688,0.5187299847602844,0.28782087564468384,-0.6973486542701721,0.9999780654907227,0.4791226387023926,0.2841399013996124,-0.7213418483734131,0.9999682903289795,0.6113165020942688,0.3728139102458954,-0.2653528153896332,0.9999653100967407,0.3409135937690735,0.37505173683166504,-0.3373509347438812,0.9998400211334229,0.6332297921180725,0.5213212966918945,-0.06698866933584213,0.9761472344398499,0.31768566370010376,0.5288901329040527,-0.2474323958158493,0.9628238677978516,0.6649694442749023,0.6467966437339783,-0.32871702313423157,0.9774142503738403,0.2052592635154724,0.5853275060653687,-0.5602009296417236,0.9727813601493835,0.6812204122543335,0.6870461106300354,-0.40557006001472473,0.9600855112075806,0.15347817540168762,0.6090396642684937,-0.635471522808075,0.9647219777107239,0.6731983423233032,0.6901418566703796,-0.49991875886917114,0.9656144976615906,0.15574806928634644,0.5967210531234741,-0.761614203453064,0.970690131187439,0.6608781814575195,0.6779009103775024,-0.3715897798538208,0.965630292892456,0.17650464177131653,0.5893591642379761,-0.6186412572860718,0.9695306420326233,0.5767201781272888,0.6453503966331482,0.021246960386633873,0.9978765249252319,0.4166560173034668,0.6561675667762756,-0.020858030766248703,0.9963303208351135,0.5641497373580933,0.8602374196052551,-0.10440224409103394,0.8051892518997192,0.42362120747566223,0.8610793352127075,-0.07440096139907837,0.643255352973938,0.5474134087562561,1.053436279296875,0.43392643332481384,0.45841503143310547,0.4358646273612976,1.0535011291503906,0.37332794070243835,0.39922216534614563,0.535013735294342,1.0739641189575195,0.4674454629421234,0.2989375591278076,0.4441000521183014,1.0741198062896729,0.40160396695137024,0.2178342044353485,0.5614451766014099,1.1265226602554321,0.1646060049533844,0.33291327953338623,0.4331479072570801,1.12677001953125,0.056778017431497574,0.30860769748687744
14572.370265878488,0.5078420042991638,0.2649976313114166,-0.8099794387817383,0.9999525547027588,0.5249713063240051,0.24609696865081787,-0.7718848586082458,0.9999101161956787,0.5338391065597534,0.24717429280281067,-0.7721080183982849,0.9999072551727295,0.5424660444259644,0.24814458191394806,-0.7723464369773865,0.9999005794525146,0.4937991797924042,0.24325858056545258,-0.789319634437561,0.9998679161071777,0.4802056550979614,0.2422802448272705,-0.7893050312995911,0.9998559951782227,0.46862444281578064,0.2414664924144745,-0.7895260453224182,0.9998323917388916,0.5482645034790039,0.25808802247047424,-0.47691935300827026,0.9999212026596069,0.4415748715400696,0.2489556223154068,-0.5628252625465393,0.9998605251312256,0.5186043977737427,0.28773266077041626,-0.6917595267295837,0.9999778270721436,0.4787648022174835,0.2839566469192505,-0.716162383556366,0.9999679327011108,0.6112374663352966,0.37312912940979004,-0.2578130066394806,0.9999644756317139,0.34090548753738403,0.37502723932266235,-0.3337942957878113,0.9998408555984497,0.6330723166465759,0.5216687917709351,-0.06198081001639366,0.9749426245689392,0.31790927052497864,0.5284706950187683,-0.24594959616661072,0.9625398516654968,0.664736270904541,0.6467045545578003,-0.32883575558662415,0.9768581390380859,0.20542773604393005,0.5852735042572021,-0.5620561838150024,0.9718211889266968,0.6811082363128662,0.6871234178543091,-0.40679115056991577,0.9591705203056335,0.15369823575019836,0.609065592288971,-0.638001561164856,0.9636036157608032,0.6728916168212891,0.6902191042900085,-0.5015353560447693,0.9648960828781128,0.15596523880958557,0.5967056751251221,-0.7642793655395508,0.9697866439819336,0.6605119705200195,0.6779165267944336,-0.372050940990448,0.9647836685180664,0.17667344212532043,0.5893266797065735,-0.6205876469612122,0.9685946702957153,0.5772896409034729,0.6455847024917603,0.02344684861600399,0.9978652596473694,0.41741228103637695,0.6562662720680237,-0.023058874532580376,0.9964075684547424,0.5635240077972412,0.8625633120536804,-0.10253481566905975,0.7926668524742126,0.4236869513988495,0.8626244068145752,-0.07827290147542953,0.6326776146888733,0.5470963716506958,1.0548986196517944,0.43225446343421936,0.4478100836277008,0.4354172646999359,1.055416464805603,0.3673994839191437,0.3911632001399994,0.5343307256698608,1.075587272644043,0.46540042757987976,0.29837965965270996,0.4433240294456482,1.0760451555252075,0.3952990770339966,0.21180234849452972,0.562743067741394,1.1273466348648071,0.16098719835281372,0.327311247587204,0.4339391887187958,1.1287416219711304,0.04814336448907852,0.3034927248954773
14589.036932545154,0.50562584400177,0.26465848088264465,-0.7635931372642517,0.9999493360519409,0.52309650182724,0.24590906500816345,-0.723284125328064,0.9999054670333862,0.532156229019165,0.24703960120677948,-0.7235342264175415,0.9999040365219116,0.5406431555747986,0.2481231987476349,-0.723779559135437,0.9998979568481445,0.49177086353302,0.24265269935131073,-0.739776074886322,0.9998598098754883,0.478362113237381,0.24151435494422913,-0.7397422194480896,0.9998472929000854,0.46705928444862366,0.2406938374042511,-0.7399787902832031,0.9998220801353455,0.5467799305915833,0.25798845291137695,-0.42744800448417664,0.9999172687530518,0.4416705369949341,0.2486855685710907,-0.5083503723144531,0.9998477697372437,0.5168672204017639,0.2872965931892395,-0.6462078094482422,0.9999759197235107,0.4761175811290741,0.28313761949539185,-0.6691814661026001,0.9999645948410034,0.6118459105491638,0.3738303482532501,-0.21566246449947357,0.999958872795105,0.34234851598739624,0.37463122606277466,-0.29148560762405396,0.9998055100440979,0.6325618624687195,0.5228082537651062,-0.03230655565857887,0.9734772443771362,0.3163674473762512,0.5280473828315735,-0.2257496565580368,0.9560199975967407,0.6648181080818176,0.6478154063224792,-0.3074392080307007,0.9769480228424072,0.20470836758613586,0.58868408203125,-0.567244291305542,0.9689184427261353,0.6811859607696533,0.6878563165664673,-0.38725754618644714,0.9600887298583984,0.15243107080459595,0.6106019616127014,-0.6469624638557434,0.960864245891571,0.6724843978881836,0.6907208561897278,-0.48098817467689514,0.9658535122871399,0.15489616990089417,0.596748948097229,-0.7716624140739441,0.9675227403640747,0.6600779294967651,0.6789237856864929,-0.3504093289375305,0.9650928378105164,0.17556169629096985,0.5897279381752014,-0.6256663203239441,0.9659031629562378,0.5765940546989441,0.6466889381408691,0.02482900582253933,0.9976791739463806,0.41682836413383484,0.6579996943473816,-0.024442367255687714,0.9961040019989014,0.5627641081809998,0.8676480650901794,-0.10122429579496384,0.779742419719696,0.4231637418270111,0.8678858876228333,-0.0851026177406311,0.6050369739532471,0.5495541095733643,1.0619057416915894,0.4254577159881592,0.4411865472793579,0.4366036355495453,1.0617256164550781,0.3550398647785187,0.36738869547843933,0.5381267070770264,1.0830882787704468,0.4573543667793274,0.2819482386112213,0.44372937083244324,1.0828919410705566,0.38222795724868774,0.19816121459007263,0.5633540749549866,1.1330459117889404,0.14716434478759766,0.3140227198600769,0.4371771812438965,1.1338847875595093,0.031108686700463295,0.28531527519226074
14605.70359921182,0.5089372396469116,0.2646576166152954,-0.747475266456604,0.999956488609314,0.5251039266586304,0.2456931173801422,-0.7069085240364075,0.9999210834503174,0.5337697863578796,0.24671399593353271,-0.7071599364280701,0.9999221563339233,0.5422214865684509,0.24776995182037354,-0.7074272632598877,0.999916672706604,0.49412810802459717,0.24312631785869598,-0.7269155979156494,0.9998888969421387,0.4806726276874542,0.24225525557994843,-0.7269150614738464,0.9998838901519775,0.4689020812511444,0.2415413111448288,-0.7271544337272644,0.9998633861541748,0.5471616387367249,0.2575985789299011,-0.4053771495819092,0.9999305009841919,0.4416220784187317,0.24993444979190826,-0.5004839897155762,0.9998894929885864,0.5197716951370239,0.28713172674179077,-0.6269769072532654,0.9999802112579346,0.4803487956523895,0.28341570496559143,-0.6540511250495911,0.9999712705612183,0.6116740703582764,0.37181907892227173,-0.17803256213665009,0.9999592304229736,0.3441784977912903,0.3746508061885834,-0.29251229763031006,0.9998207688331604,0.6327338218688965,0.5219082832336426,0.002759290626272559,0.9719926714897156,0.31655964255332947,0.5288886427879333,-0.25144776701927185,0.9629126191139221,0.6671881675720215,0.6466654539108276,-0.2830517590045929,0.9758352637290955,0.20358410477638245,0.5902793407440186,-0.617348849773407,0.9737042188644409,0.6839381456375122,0.6857960224151611,-0.3616315722465515,0.9578498005867004,0.15204492211341858,0.6123384237289429,-0.7014436721801758,0.9656148552894592,0.6752609014511108,0.6894484758377075,-0.45777571201324463,0.9644488096237183,0.1546841561794281,0.5964959263801575,-0.8215622901916504,0.9715995788574219,0.6625580787658691,0.677097737789154,-0.32740557193756104,0.9630701541900635,0.1748700737953186,0.5896598100662231,-0.6739705801010132,0.9695325493812561,0.5756176114082336,0.6466967463493347,0.03393775224685669,0.9976091384887695,0.41920143365859985,0.6577925682067871,-0.03358312323689461,0.995896577835083,0.5614462494850159,0.8870245814323425,-0.13371965289115906,0.8359343409538269,0.42524877190589905,0.8717691898345947,-0.10153469443321228,0.6019014716148376,0.559421718120575,1.0716149806976318,0.3623277544975281,0.5134642124176025,0.44310566782951355,1.069227695465088,0.35483217239379883,0.3506024479866028,0.5501841306686401,1.092775821685791,0.3910071551799774,0.2989199459552765,0.449302077293396,1.0901975631713867,0.3832833170890808,0.1769648939371109,0.567977249622345,1.144452691078186,0.07151180505752563,0.36733898520469666,0.44832247495651245,1.1413315534591675,0.034095969051122665,0.2822813391685486
14622.370265878486,0.507262647151947,0.2642700672149658,-0.7109403610229492,0.9999510049819946,0.5236995816230774,0.24564994871616364,-0.6697004437446594,0.9999079704284668,0.5325911641120911,0.2467266470193863,-0.6699544191360474,0.9999099969863892,0.540957510471344,0.2477881759405136,-0.6702125072479248,0.9999034404754639,0.4925035238265991,0.2427983283996582,-0.6867123246192932,0.9998656511306763,0.47891965508461,0.2418423742055893,-0.6866496801376343,0.9998557567596436,0.4674472510814667,0.2411584109067917,-0.6868672966957092,0.9998294115066528,0.546850323677063,0.2578456997871399,-0.38243070244789124,0.9999256134033203,0.44208037853240967,0.2500031590461731,-0.4639512896537781,0.9998571872711182,0.5187574028968811,0.28682833909988403,-0.5975000858306885,0.999977707862854,0.47837013006210327,0.2829539477825165,-0.6206715703010559,0.9999656677246094,0.6116974353790283,0.37366560101509094,-0.18651428818702698,0.9999575614929199,0.3440276086330414,0.37755903601646423,-0.25823765993118286,0.9997904896736145,0.6342169642448425,0.5217567682266235,-0.006526187993586063,0.9724668264389038,0.3190803527832031,0.528338611125946,-0.1958777904510498,0.9534668326377869,0.6660361289978027,0.6465891599655151,-0.27296558022499084,0.974105715751648,0.20485758781433105,0.5872554779052734,-0.5320941805839539,0.9689351320266724,0.682499349117279,0.6876731514930725,-0.3498460650444031,0.9570685029029846,0.15441849827766418,0.6104211807250977,-0.6103537678718567,0.961025595664978,0.6735880970954895,0.69080650806427,-0.44248226284980774,0.9629581570625305,0.1558908224105835,0.5956712961196899,-0.732250988483429,0.9673988819122314,0.6613678336143494,0.6785549521446228,-0.3154924213886261,0.9625068306922913,0.1762283742427826,0.588160514831543,-0.5896918177604675,0.9660207033157349,0.5785026550292969,0.6441646218299866,0.02016422711312771,0.9975766539573669,0.41951411962509155,0.656758725643158,-0.019710108637809753,0.9958751797676086,0.5672563910484314,0.8642712831497192,-0.12110120058059692,0.8440432548522949,0.4262518584728241,0.8677318692207336,-0.07428103685379028,0.6467164754867554,0.5517980456352234,1.0564720630645752,0.4039292335510254,0.4933023154735565,0.4421873390674591,1.0538831949234009,0.38156014680862427,0.3819507956504822,0.5410129427909851,1.0768218040466309,0.43532228469848633,0.2774668037891388,0.4506467282772064,1.0750128030776978,0.4104406535625458,0.20690113306045532,0.5595271587371826,1.1299970149993896,0.1295180320739746,0.3326714038848877,0.4370960593223572,1.125223159790039,0.07152702659368515,0.29348117113113403
14639.036932545152,0.5068911910057068,0.264631450176239,-0.7125380039215088,0.9999496936798096,0.5235069394111633,0.24604299664497375,-0.6715522408485413,0.9999047517776489,0.5323960185050964,0.24714045226573944,-0.6718022227287292,0.9999065399169922,0.540754497051239,0.24823817610740662,-0.6720595955848694,0.9998998641967773,0.4923563301563263,0.24296881258487701,-0.6883453130722046,0.999861478805542,0.4789123237133026,0.24190054833889008,-0.6882838606834412,0.9998512268066406,0.4675009548664093,0.2411198914051056,-0.6885027885437012,0.9998249411582947,0.5466421842575073,0.25806450843811035,-0.3853117525577545,0.9999226331710815,0.4427225887775421,0.2496098279953003,-0.4659641981124878,0.999852180480957,0.5183417201042175,0.28720158338546753,-0.5994356870651245,0.9999769926071167,0.47805503010749817,0.2831075191497803,-0.6223657727241516,0.999964714050293,0.6115611791610718,0.3739411234855652,-0.18993687629699707,0.9999572038650513,0.3439655900001526,0.3776082396507263,-0.25963523983955383,0.9997933506965637,0.6338057518005371,0.5219033360481262,-0.008544491603970528,0.97255939245224,0.31890714168548584,0.5287251472473145,-0.1947903037071228,0.9535269141197205,0.6657543778419495,0.6466033458709717,-0.2722800374031067,0.9740813970565796,0.20474985241889954,0.5876244902610779,-0.5280013084411621,0.9695430994033813,0.6823978424072266,0.6878334283828735,-0.34862861037254333,0.9570550918579102,0.15410229563713074,0.6105568408966064,-0.6056279540061951,0.961806058883667,0.6736142039299011,0.6910006403923035,-0.4410535991191864,0.9629086852073669,0.15560713410377502,0.595817506313324,-0.7275228500366211,0.9680330157279968,0.6613192558288574,0.6787469983100891,-0.31461620330810547,0.9625935554504395,0.17604324221611023,0.5883628726005554,-0.5855165123939514,0.9666677117347717,0.5780755281448364,0.6444329023361206,0.01963784731924534,0.9976218342781067,0.4192813038825989,0.657037615776062,-0.019185205921530724,0.995959460735321,0.5668427348136902,0.864425778388977,-0.12316937744617462,0.8392167091369629,0.426228404045105,0.8676292300224304,-0.07435864955186844,0.642732560634613,0.5511984825134277,1.0560799837112427,0.4038444459438324,0.4844821095466614,0.44191882014274597,1.053471326828003,0.38191795349121094,0.38084733486175537,0.5402289628982544,1.076369285583496,0.43552452325820923,0.2744552195072174,0.45054948329925537,1.0745835304260254,0.4109385311603546,0.2071407288312912,0.5595033168792725,1.1296353340148926,0.1311633288860321,0.3273577094078064,0.43641534447669983,1.1249445676803589,0.07293969392776489,0.29301324486732483
14655.703599211818,0.5140991806983948,0.2662639021873474,-0.7365290522575378,0.9999474287033081,0.5292338132858276,0.2463277131319046,-0.6962713003158569,0.9999064207077026,0.5379387140274048,0.24717910587787628,-0.696503758430481,0.9999079704284668,0.5464643239974976,0.24786238372325897,-0.6967668533325195,0.9998989105224609,0.4988611340522766,0.2442179024219513,-0.7163991928100586,0.9998719692230225,0.48599591851234436,0.24352334439754486,-0.7163755893707275,0.9998657703399658,0.47319379448890686,0.24288952350616455,-0.7166019678115845,0.9998390674591064,0.5499038696289062,0.2575967609882355,-0.3992854952812195,0.9999215602874756,0.4431505799293518,0.25067952275276184,-0.49443960189819336,0.9998738765716553,0.5242453813552856,0.28879374265670776,-0.6175811886787415,0.9999761581420898,0.4870346188545227,0.28523463010787964,-0.6447736620903015,0.9999654293060303,0.612270176410675,0.37226396799087524,-0.17743919789791107,0.99994957447052,0.34254157543182373,0.37585774064064026,-0.2854415476322174,0.9997820258140564,0.6331862211227417,0.5223316550254822,0.02018619515001774,0.9703764915466309,0.31699511408805847,0.5281298160552979,-0.25013265013694763,0.9591924548149109,0.6664080619812012,0.648583710193634,-0.2365591824054718,0.9743379950523376,0.2057744711637497,0.5864912867546082,-0.6149519085884094,0.9730364084243774,0.6833404898643494,0.6884124875068665,-0.3078745901584625,0.9573017358779907,0.15378645062446594,0.6104494333267212,-0.6955482959747314,0.9652729630470276,0.6736670136451721,0.6913439035415649,-0.4030316174030304,0.9633191227912903,0.15574732422828674,0.5956928730010986,-0.8161504864692688,0.9709513783454895,0.6613056659698486,0.6791446805000305,-0.2795110046863556,0.9620446562767029,0.17627829313278198,0.5880146622657776,-0.6719264984130859,0.9690941572189331,0.5765357613563538,0.6458749771118164,0.027482135221362114,0.9978093504905701,0.4189768433570862,0.656833291053772,-0.027094244956970215,0.9962300658226013,0.5660605430603027,0.8689607977867126,-0.1347341686487198,0.905688464641571,0.4218845069408417,0.8727596402168274,-0.0746629536151886,0.696701169013977,0.5589516162872314,1.065579891204834,0.3687663674354553,0.6140081882476807,0.43690934777259827,1.0599586963653564,0.43046799302101135,0.4017190933227539,0.548102855682373,1.0862289667129517,0.3976704180240631,0.3243493437767029,0.4450145363807678,1.0805697441101074,0.4644189476966858,0.20425330102443695,0.5664752125740051,1.1418423652648926,0.0824461355805397,0.42651090025901794,0.4318713843822479,1.13138747215271,0.12677206099033356,0.3168206512928009
14672.370265878484,0.5092374086380005,0.26364126801490784,-0.7743807435035706,0.9999483823776245,0.5252020359039307,0.24493250250816345,-0.7345461249351501,0.9999046325683594,0.5343042016029358,0.2459014654159546,-0.73478764295578,0.9999065399169922,0.5432788133621216,0.24680577218532562,-0.7350422143936157,0.9998970031738281,0.49306976795196533,0.24263927340507507,-0.7501068115234375,0.9998668432235718,0.47924259305000305,0.2418842762708664,-0.7500734329223633,0.9998595714569092,0.4679335355758667,0.2413441389799118,-0.7503084540367126,0.9998310804367065,0.5495752096176147,0.2568809688091278,-0.43596190214157104,0.9999223947525024,0.4416259229183197,0.2502307593822479,-0.5102012753486633,0.9998624324798584,0.520993173122406,0.2862508296966553,-0.6552815437316895,0.9999773502349854,0.4806014895439148,0.28286534547805786,-0.676450788974762,0.9999657869338989,0.6137906312942505,0.3733430802822113,-0.21201719343662262,0.9999452829360962,0.34490278363227844,0.37500593066215515,-0.28471219539642334,0.9997803568840027,0.6342478394508362,0.5216152667999268,-0.006630680523812771,0.971204936504364,0.3178771734237671,0.5268609523773193,-0.22362549602985382,0.9539906978607178,0.6657150983810425,0.646279513835907,-0.2642098665237427,0.9703680872917175,0.20551776885986328,0.583541750907898,-0.5838028192520142,0.9669823050498962,0.6810929179191589,0.6866369247436523,-0.3381374478340149,0.9513891935348511,0.15463519096374512,0.6071450114250183,-0.6635774970054626,0.9581966400146484,0.6726506948471069,0.6897096633911133,-0.43384283781051636,0.9581631422042847,0.15511295199394226,0.5931687355041504,-0.7890537977218628,0.9650940299034119,0.6607464551925659,0.6771712899208069,-0.3072417080402374,0.9563493728637695,0.17508694529533386,0.585819661617279,-0.6428841948509216,0.9630295038223267,0.5805264711380005,0.6436210870742798,0.019499769434332848,0.9974167346954346,0.4191240668296814,0.6556932330131531,-0.019137432798743248,0.9954918026924133,0.5666150450706482,0.8677781224250793,-0.13092227280139923,0.9041030406951904,0.42388543486595154,0.8751970529556274,-0.0453076995909214,0.7146008014678955,0.5600444078445435,1.0638612508773804,0.3875155448913574,0.6290115118026733,0.43621668219566345,1.0592843294143677,0.4540834128856659,0.4377700686454773,0.5500585436820984,1.0850896835327148,0.4172769784927368,0.350049763917923,0.4445042908191681,1.080824613571167,0.48690375685691833,0.2338603138923645,0.5662899613380432,1.1380139589309692,0.09103385359048843,0.4401106834411621,0.43112075328826904,1.1296603679656982,0.13720151782035828,0.34064197540283203
14689.03693254515,0.5137373208999634,0.26426780223846436,-0.8221076726913452,0.9999579191207886,0.5286601185798645,0.24515202641487122,-0.7829552292823792,0.9999253749847412,0.5375247001647949,0.24602110683918,-0.7831795811653137,0.9999271631240845,0.5462738871574402,0.24671901762485504,-0.7834446430206299,0.9999208450317383,0.4974105954170227,0.24305595457553864,-0.8011960387229919,0.9998928308486938,0.48390257358551025,0.2423682063817978,-0.801177978515625,0.9998866319656372,0.471569687128067,0.2417796403169632,-0.801395058631897,0.9998635053634644,0.5504717826843262,0.25679323077201843,-0.4789283871650696,0.9999390840530396,0.44263526797294617,0.2502976953983307,-0.5648893117904663,0.9998902082443237,0.5247434973716736,0.28699102997779846,-0.6997517347335815,0.9999818801879883,0.4864450991153717,0.2836824357509613,-0.7243142127990723,0.9999722242355347,0.6137588620185852,0.37222355604171753,-0.24114537239074707,0.9999604225158691,0.3433244526386261,0.3753916919231415,-0.3308667838573456,0.9997953772544861,0.6336151957511902,0.521265983581543,-0.0327201783657074,0.9753707647323608,0.3169749975204468,0.5278508067131042,-0.25378429889678955,0.963712215423584,0.6687501668930054,0.6466458439826965,-0.2991838753223419,0.9757784008979797,0.20454470813274384,0.5868265628814697,-0.5953569412231445,0.9733772277832031,0.6842960119247437,0.6869590282440186,-0.3748793601989746,0.9581486582756042,0.1531488299369812,0.6107552647590637,-0.6741733551025391,0.9645520448684692,0.674923837184906,0.6899512410163879,-0.4722766578197479,0.9641294479370117,0.15345102548599243,0.5962082147598267,-0.8014559149742126,0.9705003499984741,0.6630212068557739,0.677426278591156,-0.3431853950023651,0.9626554250717163,0.17431679368019104,0.5885459184646606,-0.6544100642204285,0.9685691595077515,0.5786616206169128,0.6432375907897949,0.023299122229218483,0.9979293346405029,0.41903895139694214,0.6545949578285217,-0.022935742512345314,0.9959922432899475,0.5639484524726868,0.8688985109329224,-0.14618128538131714,0.9110813140869141,0.4207199215888977,0.8734081983566284,-0.059122227132320404,0.719987154006958,0.559211015701294,1.0665693283081055,0.3631836771965027,0.6402727961540222,0.4335772693157196,1.0594978332519531,0.4612301290035248,0.4151837229728699,0.5486528277397156,1.0873287916183472,0.3922063112258911,0.344677597284317,0.4413791596889496,1.0798051357269287,0.4964584410190582,0.2065451592206955,0.5644554495811462,1.143093466758728,0.06351011246442795,0.45699742436408997,0.4319908916950226,1.1317052841186523,0.15183492004871368,0.3299347460269928
14705.703599211816,0.5185782313346863,0.26324406266212463,-0.7285839319229126,0.9999369382858276,0.5314037799835205,0.24418815970420837,-0.6877256035804749,0.9998902082443237,0.5398390889167786,0.24498657882213593,-0.6879662871360779,0.9998942613601685,0.5483831763267517,0.24569961428642273,-0.6882408261299133,0.9998855590820312,0.501542329788208,0.2422909140586853,-0.7084451913833618,0.9998522996902466,0.4892064929008484,0.24167709052562714,-0.708441436290741,0.9998481273651123,0.4757651090621948,0.24120810627937317,-0.7086891531944275,0.9998188614845276,0.5502082109451294,0.25613677501678467,-0.38947537541389465,0.999909520149231,0.44390806555747986,0.2505914866924286,-0.48614153265953064,0.9998563528060913,0.5277857184410095,0.28553852438926697,-0.6092231273651123,0.9999721050262451,0.4920586347579956,0.2823162078857422,-0.636869490146637,0.9999589920043945,0.61497962474823,0.3707302510738373,-0.16541600227355957,0.9999431371688843,0.34488508105278015,0.374075710773468,-0.2835552990436554,0.9997642636299133,0.6353117227554321,0.5190525054931641,0.020511891692876816,0.9684310555458069,0.31913095712661743,0.5271718502044678,-0.2601083815097809,0.9609893560409546,0.6678946614265442,0.6457895040512085,-0.24827831983566284,0.9718889594078064,0.2062496840953827,0.585646390914917,-0.6407483220100403,0.9742220640182495,0.6829771399497986,0.6870412230491638,-0.32291358709335327,0.9531046152114868,0.1555444598197937,0.6077119708061218,-0.725290834903717,0.9667260646820068,0.6744786500930786,0.6900880336761475,-0.4177635908126831,0.9601216912269592,0.15717944502830505,0.5934243202209473,-0.8451929688453674,0.9723189473152161,0.662497878074646,0.6771227717399597,-0.2916502356529236,0.9585060477256775,0.17762738466262817,0.585901141166687,-0.6977970600128174,0.9701129198074341,0.5814605951309204,0.6424427628517151,0.03206195682287216,0.9975712895393372,0.42048224806785583,0.6544697880744934,-0.03166954964399338,0.9960958361625671,0.5660633444786072,0.867637038230896,-0.13245603442192078,0.8997754454612732,0.42360740900039673,0.8735040426254272,-0.08636200428009033,0.6795217990875244,0.5630066394805908,1.0666872262954712,0.36414068937301636,0.5978594422340393,0.43603846430778503,1.061951994895935,0.41445162892341614,0.37524911761283875,0.552578866481781,1.0874649286270142,0.39238446950912476,0.32027295231819153,0.44263431429862976,1.082528829574585,0.4476848542690277,0.1822739839553833,0.5689371228218079,1.14235258102417,0.07100371271371841,0.41369354724884033,0.43536514043807983,1.1331892013549805,0.10530854016542435,0.29345834255218506
14722.370265878482,0.5196343064308167,0.26295381784439087,-0.7591091394424438,0.9999408721923828,0.532139241695404,0.2439384162425995,-0.7178927659988403,0.9998925924301147,0.5405639410018921,0.24471110105514526,-0.7181453108787537,0.9998918771743774,0.5492782592773438,0.24544355273246765,-0.7183952927589417,0.9998847246170044,0.5024715065956116,0.24191702902317047,-0.738133430480957,0.9998526573181152,0.49028369784355164,0.2412029355764389,-0.7381063103675842,0.9998432397842407,0.47686997056007385,0.24063517153263092,-0.7383438348770142,0.9998195767402649,0.5507718920707703,0.2557651698589325,-0.41906243562698364,0.9999076128005981,0.444656640291214,0.2496066689491272,-0.5149834156036377,0.9998525381088257,0.5286725759506226,0.2850660979747772,-0.6398278474807739,0.9999731779098511,0.49318698048591614,0.2818010449409485,-0.6672961711883545,0.9999620914459229,0.6141980886459351,0.37093663215637207,-0.20390908420085907,0.9999527931213379,0.34367305040359497,0.3745364248752594,-0.2940662205219269,0.9997990727424622,0.63762366771698,0.5194939970970154,-0.010653598234057426,0.970262348651886,0.31658369302749634,0.5290287137031555,-0.21817803382873535,0.9629592895507812,0.669438362121582,0.6459144949913025,-0.2863365411758423,0.9698857665061951,0.20649397373199463,0.5859547257423401,-0.5445904731750488,0.9724048376083374,0.6833310723304749,0.6846685409545898,-0.3646775484085083,0.9494267702102661,0.1548423171043396,0.6082674860954285,-0.6214880347251892,0.9634922742843628,0.6746302247047424,0.688283383846283,-0.45809200406074524,0.9566074013710022,0.15670201182365417,0.5944179892539978,-0.7473341822624207,0.9697485566139221,0.6632466912269592,0.6760786175727844,-0.32964006066322327,0.9554345011711121,0.1766742765903473,0.5876985788345337,-0.6028395295143127,0.9676299095153809,0.5830947160720825,0.6422722339630127,0.022497383877635002,0.9972309470176697,0.42089760303497314,0.6556678414344788,-0.022080684080719948,0.9951081871986389,0.5678640007972717,0.8649426698684692,-0.1265835165977478,0.8745606541633606,0.42185690999031067,0.8723351955413818,-0.06378119438886642,0.6819236278533936,0.5620699524879456,1.063438892364502,0.39661675691604614,0.5642262101173401,0.4306076467037201,1.0582690238952637,0.3937588036060333,0.43352875113487244,0.5507805347442627,1.0848300457000732,0.42718178033828735,0.3168381452560425,0.4381153881549835,1.0799915790557861,0.42214280366897583,0.22431674599647522,0.5711746215820312,1.1369479894638062,0.10506153851747513,0.39938077330589294,0.4288899004459381,1.129127860069275,0.06886628270149231,0.34216850996017456
14739.036932545148,0.5174610018730164,0.2635398209095001,-0.7222566604614258,0.9998983144760132,0.5309554934501648,0.244586780667305,-0.6798220276832581,0.9998131394386292,0.5393217206001282,0.24542750418186188,-0.680090069770813,0.9998206496238708,0.5479674339294434,0.24634873867034912,-0.6803628206253052,0.9998080134391785,0.5013768672943115,0.24212397634983063,-0.6999042630195618,0.9997473359107971,0.48926272988319397,0.24119417369365692,-0.6999114751815796,0.9997381567955017,0.4762357175350189,0.24044206738471985,-0.7001824975013733,0.9996892213821411,0.5506274700164795,0.2564048767089844,-0.3761975169181824,0.9998501539230347,0.44538089632987976,0.24922902882099152,-0.46945920586586,0.9997500777244568,0.5270817875862122,0.2857915461063385,-0.6011919379234314,0.9999563694000244,0.49105304479599,0.281859427690506,-0.6279191374778748,0.9999333620071411,0.615085244178772,0.37172436714172363,-0.15127824246883392,0.9999299049377441,0.344843327999115,0.37514999508857727,-0.2638217508792877,0.9997170567512512,0.6363710761070251,0.5200538635253906,0.04073081538081169,0.9651778936386108,0.3194178640842438,0.5264319181442261,-0.22253108024597168,0.9555337429046631,0.6696348190307617,0.6455724835395813,-0.23388361930847168,0.9671502709388733,0.20536673069000244,0.5835245251655579,-0.5956968665122986,0.9690672755241394,0.6840788722038269,0.6855851411819458,-0.30906710028648376,0.9471735954284668,0.15450626611709595,0.6062117218971252,-0.6800862550735474,0.9604899287223816,0.6755123138427734,0.6889939904212952,-0.40539291501045227,0.9547996520996094,0.15657362341880798,0.5928096771240234,-0.8031642436981201,0.9672120809555054,0.6638491153717041,0.6762028932571411,-0.2778491973876953,0.9524055123329163,0.1765601933002472,0.5856344103813171,-0.6541191935539246,0.9646866321563721,0.5827214121818542,0.6455528736114502,0.02939249388873577,0.9970732927322388,0.41832655668258667,0.6585353016853333,-0.028994640335440636,0.9954492449760437,0.5661576986312866,0.8829344511032104,-0.11388133466243744,0.8906717896461487,0.42212262749671936,0.8813689947128296,-0.07196218520402908,0.6644866466522217,0.557752251625061,1.0681260824203491,0.4088262915611267,0.5859721899032593,0.43257302045822144,1.0666813850402832,0.43338021636009216,0.388182133436203,0.5478416681289673,1.0888524055480957,0.4394266903400421,0.2990208864212036,0.43987756967544556,1.0879414081573486,0.46635547280311584,0.19440032541751862,0.5619512796401978,1.1428489685058594,0.11244257539510727,0.4100838601589203,0.42986294627189636,1.1373684406280518,0.11232178658246994,0.3134148120880127
14755.703599211814,0.5138596892356873,0.2632555663585663,-0.7729579210281372,0.9999573230743408,0.5276585817337036,0.24397549033164978,-0.7326932549476624,0.9999215602874756,0.5366532802581787,0.24486960470676422,-0.7329254150390625,0.9999245405197144,0.5452255606651306,0.2456474006175995,-0.7331764101982117,0.9999169111251831,0.49696069955825806,0.24217063188552856,-0.7501928806304932,0.9998884201049805,0.4834144115447998,0.2417096495628357,-0.750154435634613,0.9998840093612671,0.4712051451206207,0.2413453906774521,-0.7503702640533447,0.9998611211776733,0.550045907497406,0.2562982439994812,-0.43510815501213074,0.9999371767044067,0.4416661858558655,0.25106775760650635,-0.5177531838417053,0.9998878240585327,0.5249797701835632,0.2856714427471161,-0.6543306708335876,0.999980092048645,0.4866771399974823,0.2825759947299957,-0.6778497695922852,0.999970555305481,0.6152474880218506,0.37206149101257324,-0.21226558089256287,0.9999560117721558,0.3440656065940857,0.3740326464176178,-0.2993576228618622,0.9998003840446472,0.6362550258636475,0.5213078260421753,-0.01582680642604828,0.9749575853347778,0.31869348883628845,0.526434063911438,-0.2374894618988037,0.9618785381317139,0.6707468032836914,0.646447479724884,-0.283435583114624,0.9748746156692505,0.20537331700325012,0.5840526223182678,-0.5829417109489441,0.9719440340995789,0.6850209832191467,0.6860089302062988,-0.36004146933555603,0.9566343426704407,0.15474537014961243,0.606979250907898,-0.6626002192497253,0.9629328846931458,0.6759634613990784,0.6895463466644287,-0.4547434151172638,0.9628515243530273,0.15587100386619568,0.5929174423217773,-0.7873038649559021,0.9691344499588013,0.6644501686096191,0.677049994468689,-0.3269604742527008,0.9618173241615295,0.17678526043891907,0.5853888988494873,-0.6415543556213379,0.9674138426780701,0.5812125205993652,0.6410671472549438,0.024932093918323517,0.9974172115325928,0.4194943606853485,0.65392005443573,-0.024538038298487663,0.9956931471824646,0.5658456683158875,0.8626458644866943,-0.11219819635152817,0.904007077217102,0.4222327470779419,0.8696439266204834,-0.06495251506567001,0.7340537905693054,0.5605520606040955,1.0578304529190063,0.4098004698753357,0.6360962986946106,0.4343215227127075,1.0565463304519653,0.4044366478919983,0.4656903147697449,0.5503025650978088,1.0782933235168457,0.4402036964893341,0.3445429503917694,0.4416026175022125,1.0774953365325928,0.4340195953845978,0.22774890065193176,0.5652315020561218,1.1330732107162476,0.11715329438447952,0.44977685809135437,0.43325093388557434,1.1284481287002563,0.08042136579751968,0.3579849898815155
14772.37026587848,0.5141341090202332,0.26328983902931213,-0.7126092910766602,0.9999527931213379,0.5279512405395508,0.24414172768592834,-0.6702606081962585,0.9999158382415771,0.5367915034294128,0.24508938193321228,-0.6705198287963867,0.9999154806137085,0.5451593995094299,0.24583394825458527,-0.6707459688186646,0.9999078512191772,0.49753352999687195,0.2421293407678604,-0.6894546747207642,0.9998838901519775,0.48418760299682617,0.2416238635778427,-0.6894312500953674,0.9998763799667358,0.4717910885810852,0.24118709564208984,-0.6896499991416931,0.9998513460159302,0.549342930316925,0.25661998987197876,-0.3751477003097534,0.9999278783798218,0.4420692026615143,0.2505309581756592,-0.4681762158870697,0.9998840093612671,0.5252177715301514,0.28597259521484375,-0.5962925553321838,0.9999775886535645,0.48684459924697876,0.2827223539352417,-0.6227200627326965,0.999968409538269,0.612983763217926,0.373355895280838,-0.17273080348968506,0.9999550580978394,0.3431822657585144,0.37542200088500977,-0.26804548501968384,0.999823272228241,0.6359410285949707,0.5239248275756836,0.004019767511636019,0.9722260236740112,0.31796759366989136,0.528732180595398,-0.2348884791135788,0.954103946685791,0.6695926785469055,0.6481175422668457,-0.27582234144210815,0.9743621349334717,0.20452889800071716,0.5840303301811218,-0.6029264330863953,0.9664190411567688,0.6832066774368286,0.6869077682495117,-0.3550141453742981,0.9566730856895447,0.15479141473770142,0.6070893406867981,-0.6860418319702148,0.9579472541809082,0.6720401048660278,0.689622163772583,-0.4470738172531128,0.9629518985748291,0.15685921907424927,0.5927265286445618,-0.8072026371955872,0.964887797832489,0.6610933542251587,0.677588164806366,-0.31879138946533203,0.9619463682174683,0.17659378051757812,0.5852117538452148,-0.6609938144683838,0.9632260799407959,0.5810114741325378,0.6427790522575378,0.02757236361503601,0.9975922107696533,0.418693870306015,0.6560311317443848,-0.02717190608382225,0.9964261651039124,0.5656201839447021,0.8626382946968079,-0.052730921655893326,0.8403607606887817,0.4291679859161377,0.8646313548088074,-0.05595189332962036,0.6602444648742676,0.5501562356948853,1.061428427696228,0.4518292248249054,0.538450300693512,0.43093523383140564,1.0192981958389282,0.3741583228111267,0.4344007670879364,0.5379782915115356,1.0832486152648926,0.4810681939125061,0.323577880859375,0.44871941208839417,1.0807716846466064,0.39978381991386414,0.2355109006166458,0.562615692615509,1.133351445198059,0.17308227717876434,0.38362640142440796,0.4345702826976776,1.1292099952697754,0.05160399526357651,0.3406674563884735
14789.036932545147,0.5124932527542114,0.2638034522533417,-0.7007516622543335,0.9999517202377319,0.5273633003234863,0.24479524791240692,-0.6589419841766357,0.9999096393585205,0.5362887382507324,0.24578450620174408,-0.6591984629631042,0.9999098777770996,0.5447973012924194,0.2466110736131668,-0.6594309210777283,0.9999010562896729,0.4967510998249054,0.24267376959323883,-0.6775174140930176,0.999876856803894,0.4833417534828186,0.24207347631454468,-0.6774904727935791,0.9998695850372314,0.4712061882019043,0.2415521740913391,-0.677716076374054,0.999843955039978,0.5501397252082825,0.2572774589061737,-0.3660193681716919,0.9999226331710815,0.4425339698791504,0.25057265162467957,-0.4550841152667999,0.999879002571106,0.5240258574485779,0.2864595353603363,-0.5849521160125732,0.9999774694442749,0.48513063788414,0.28305137157440186,-0.6102491617202759,0.9999681711196899,0.6125918626785278,0.37374573945999146,-0.15955422818660736,0.999951958656311,0.34306174516677856,0.37577372789382935,-0.2597093880176544,0.9998331069946289,0.6354020833969116,0.5252935886383057,0.018328186124563217,0.9710499048233032,0.3190394341945648,0.5291125774383545,-0.22160062193870544,0.9576559066772461,0.6691417694091797,0.6471620798110962,-0.2644990086555481,0.9733437299728394,0.2056121826171875,0.5838103294372559,-0.5866812467575073,0.9704707860946655,0.6837393641471863,0.6872178316116333,-0.34358853101730347,0.9555656313896179,0.15567079186439514,0.607396125793457,-0.6699970364570618,0.9627484083175659,0.6716887950897217,0.6898412704467773,-0.4360588490962982,0.9619291424751282,0.15780943632125854,0.5935536026954651,-0.7911900281906128,0.9688928127288818,0.6601886749267578,0.6774258017539978,-0.3077247142791748,0.9609813690185547,0.1777537763118744,0.5859694480895996,-0.6445562243461609,0.9671782851219177,0.5786024332046509,0.6449798941612244,0.029833534732460976,0.9976327419281006,0.4178226590156555,0.6585428714752197,-0.029415316879749298,0.9965376853942871,0.5653372406959534,0.8641430139541626,-0.07426680624485016,0.8600115776062012,0.42795541882514954,0.866662323474884,-0.05833011120557785,0.6782445907592773,0.5488796234130859,1.0616005659103394,0.43753671646118164,0.5547803044319153,0.43014687299728394,1.0175129175186157,0.3882855772972107,0.43914392590522766,0.536394476890564,1.0829756259918213,0.46751466393470764,0.3311764597892761,0.44882938265800476,1.0817947387695312,0.41539886593818665,0.23133237659931183,0.5612363815307617,1.1338187456130981,0.15756483376026154,0.39579451084136963,0.43626755475997925,1.1307461261749268,0.06611698865890503,0.3449336588382721
14805.703599211813,0.5082236528396606,0.263041615486145,-0.7760365605354309,0.9999673366546631,0.5248793363571167,0.24445128440856934,-0.7366647720336914,0.9999387264251709,0.5342534184455872,0.24538645148277283,-0.7369095087051392,0.9999376535415649,0.5433087348937988,0.24621304869651794,-0.737147331237793,0.9999330043792725,0.493020623922348,0.24237722158432007,-0.7515478134155273,0.9999110698699951,0.4788880944252014,0.24173569679260254,-0.7515193223953247,0.9999029636383057,0.46787986159324646,0.2413925975561142,-0.751731812953949,0.9998862743377686,0.5509027242660522,0.2562583386898041,-0.44392454624176025,0.9999454021453857,0.4427374601364136,0.25005894899368286,-0.518330454826355,0.9999034404754639,0.5210490822792053,0.2859444320201874,-0.6598625183105469,0.9999825954437256,0.4806761145591736,0.2827955186367035,-0.680986225605011,0.9999758005142212,0.6139298677444458,0.37349066138267517,-0.23468811810016632,0.9999630451202393,0.3439846634864807,0.3757524788379669,-0.29631659388542175,0.9998431205749512,0.6357020139694214,0.5255966186523438,-0.046595074236392975,0.9790604114532471,0.3181043863296509,0.5301189422607422,-0.2259179800748825,0.9555429220199585,0.6712298393249512,0.649655282497406,-0.31274962425231934,0.9796459078788757,0.20640264451503754,0.5845797657966614,-0.5629207491874695,0.9679176211357117,0.684684157371521,0.6884853839874268,-0.391603946685791,0.9637320637702942,0.1559866964817047,0.6057371497154236,-0.6396905183792114,0.9590557217597961,0.6747792959213257,0.6906522512435913,-0.4839029908180237,0.9689906239509583,0.15580129623413086,0.5912902355194092,-0.7658697962760925,0.9660354852676392,0.6638814210891724,0.6788374781608582,-0.35503941774368286,0.9682903289794922,0.17707976698875427,0.5841005444526672,-0.621986985206604,0.964681088924408,0.5774959325790405,0.642634928226471,0.023063188418745995,0.9976702332496643,0.4170241355895996,0.6556858420372009,-0.022714050486683846,0.9962335228919983,0.5653327107429504,0.8631179332733154,-0.07974576950073242,0.8275611400604248,0.4254041314125061,0.867285966873169,-0.0659710019826889,0.6766727566719055,0.5519393086433411,1.0593599081039429,0.4276335537433624,0.5237262845039368,0.42808660864830017,1.0194926261901855,0.361836314201355,0.4382396340370178,0.5398874878883362,1.0814173221588135,0.45736023783683777,0.3237786293029785,0.44522443413734436,1.0793328285217285,0.38775476813316345,0.23258838057518005,0.566448986530304,1.1302145719528198,0.15078260004520416,0.37100690603256226,0.4334946870803833,1.1286062002182007,0.040130000561475754,0.33247360587120056
14822.370265878479,0.5092273950576782,0.26307275891304016,-0.7925633192062378,0.9999682903289795,0.5255271792411804,0.2444601058959961,-0.7534786462783813,0.9999395608901978,0.5348423719406128,0.245435893535614,-0.7537124752998352,0.99993896484375,0.5438605546951294,0.24627722799777985,-0.7539510726928711,0.9999344348907471,0.49353286623954773,0.24241101741790771,-0.7680886387825012,0.999909520149231,0.47934260964393616,0.2418413758277893,-0.768058717250824,0.999901294708252,0.4681321978569031,0.2415514588356018,-0.7682586908340454,0.9998840093612671,0.5509030222892761,0.2562668025493622,-0.4618571698665619,0.9999463558197021,0.4421461224555969,0.25026488304138184,-0.5349071025848389,0.9998987913131714,0.5217351913452148,0.285975843667984,-0.6768487691879272,0.9999833106994629,0.4808744788169861,0.28276535868644714,-0.6975892782211304,0.9999759197235107,0.6141941547393799,0.37285923957824707,-0.2528468072414398,0.9999663829803467,0.343902587890625,0.3745599389076233,-0.3114640414714813,0.9998424053192139,0.635705828666687,0.525678277015686,-0.06328098475933075,0.9797490239143372,0.31725776195526123,0.529560923576355,-0.23116253316402435,0.957443118095398,0.6713991165161133,0.6489546298980713,-0.32467618584632874,0.9805783033370972,0.2058211863040924,0.5855164527893066,-0.5549159049987793,0.9685288071632385,0.6849200129508972,0.6874309182167053,-0.40324872732162476,0.9649945497512817,0.15511900186538696,0.606730580329895,-0.6309497356414795,0.9593642354011536,0.6751464009284973,0.6897050142288208,-0.49614742398262024,0.9699034690856934,0.1547650694847107,0.5921422243118286,-0.7571587562561035,0.9661048054695129,0.6641146540641785,0.677852988243103,-0.36717256903648376,0.9693421125411987,0.1763136088848114,0.5849605202674866,-0.6139746308326721,0.9650456309318542,0.5773760080337524,0.6410005688667297,0.02176416851580143,0.9978469610214233,0.4174340069293976,0.6537403464317322,-0.021390732377767563,0.9963504076004028,0.5646625757217407,0.8626883029937744,-0.08480478078126907,0.8424614071846008,0.42420628666877747,0.8677263259887695,-0.06661297380924225,0.7038599848747253,0.5528447031974792,1.0540578365325928,0.42575347423553467,0.5454223155975342,0.4361160695552826,1.0524046421051025,0.36635255813598633,0.45968177914619446,0.5405202507972717,1.0755784511566162,0.45581144094467163,0.329578697681427,0.44418662786483765,1.0730891227722168,0.392726868391037,0.2388153225183487,0.5668636560440063,1.1263331174850464,0.1483445018529892,0.3907873034477234,0.4323791563510895,1.124414086341858,0.04496707767248154,0.34846606850624084
14839.036932545145,0.5088219046592712,0.26328161358833313,-0.7928040623664856,0.9999666213989258,0.5252216458320618,0.24470531940460205,-0.7539499998092651,0.9999371767044067,0.5346346497535706,0.24571001529693604,-0.7541815042495728,0.9999359846115112,0.5436294078826904,0.24656690657138824,-0.7544179558753967,0.9999310970306396,0.4934678077697754,0.24259337782859802,-0.7693372368812561,0.9999065399169922,0.4793112874031067,0.24201945960521698,-0.7693118453025818,0.9998975992202759,0.4680922329425812,0.24170942604541779,-0.7695213556289673,0.9998795986175537,0.5508018732070923,0.2566756010055542,-0.46223577857017517,0.9999438524246216,0.44157156348228455,0.25051698088645935,-0.5393084287643433,0.999896764755249,0.5213353633880615,0.28627511858940125,-0.6769412159919739,0.9999825954437256,0.480570912361145,0.2830941677093506,-0.6987848877906799,0.9999754428863525,0.6135576963424683,0.37336817383766174,-0.25143691897392273,0.9999651908874512,0.343083918094635,0.37570855021476746,-0.3184886574745178,0.9998378753662109,0.635083794593811,0.5259652733802795,-0.06106167286634445,0.9787322282791138,0.3172091245651245,0.5301500558853149,-0.2459704726934433,0.956290602684021,0.6717648506164551,0.6495217084884644,-0.3209875226020813,0.980430543422699,0.20603834092617035,0.5862590074539185,-0.572930634021759,0.9680513143539429,0.6857204437255859,0.688365638256073,-0.39891496300697327,0.9648228883743286,0.15456131100654602,0.6073877215385437,-0.6490575671195984,0.9592372179031372,0.6761429309844971,0.690643310546875,-0.49153053760528564,0.9697564840316772,0.15460538864135742,0.5926843881607056,-0.7749738693237305,0.9660024642944336,0.6649542450904846,0.6787875294685364,-0.36335766315460205,0.9694073796272278,0.1765669286251068,0.5854679942131042,-0.6319400668144226,0.9651301503181458,0.576478123664856,0.6435051560401917,0.024918971583247185,0.997878909111023,0.4172208905220032,0.6558929085731506,-0.02453741990029812,0.9965111613273621,0.5647972822189331,0.8632432222366333,-0.07290288060903549,0.8376768827438354,0.4245731830596924,0.8684122562408447,-0.0651964545249939,0.6999301314353943,0.5502490997314453,1.0532602071762085,0.44444021582603455,0.5359870791435242,0.436199814081192,1.0533056259155273,0.37331652641296387,0.4578585624694824,0.5372430086135864,1.0745244026184082,0.4754619598388672,0.3414206802845001,0.44399043917655945,1.073699951171875,0.4004465341567993,0.23748847842216492,0.5659599304199219,1.1256150007247925,0.1725538671016693,0.38554662466049194,0.4330664873123169,1.1258041858673096,0.054032400250434875,0.3451392352581024
14855.70359921181,0.5147174000740051,0.2616257071495056,-0.7657673358917236,0.9999679327011108,0.5287018418312073,0.2427477240562439,-0.7247083783149719,0.9999393224716187,0.5376778841018677,0.24384869635105133,-0.7249486446380615,0.9999393224716187,0.5465365052223206,0.24478228390216827,-0.725184440612793,0.9999336004257202,0.4986235797405243,0.2404356747865677,-0.7416934370994568,0.9999125003814697,0.4856771230697632,0.2399103194475174,-0.7416665554046631,0.9999066591262817,0.47331616282463074,0.2394634336233139,-0.7418801188468933,0.9998899698257446,0.5521703958511353,0.25565069913864136,-0.4342474937438965,0.999947190284729,0.4438699185848236,0.24930137395858765,-0.5164216756820679,0.9999080896377563,0.5259945392608643,0.2844460606575012,-0.6510512232780457,0.9999841451644897,0.4880252480506897,0.2807110846042633,-0.6744286417961121,0.9999767541885376,0.6164973378181458,0.37257182598114014,-0.23124495148658752,0.9999642372131348,0.34460729360580444,0.375069797039032,-0.3059619665145874,0.9998536109924316,0.6364394426345825,0.5237424969673157,-0.0518517903983593,0.9758175611495972,0.31705784797668457,0.530326783657074,-0.23364707827568054,0.9656605124473572,0.6720176935195923,0.6479476094245911,-0.32716381549835205,0.9780458211898804,0.20835912227630615,0.5868212580680847,-0.5650445222854614,0.9773780703544617,0.685752272605896,0.6873435378074646,-0.40745189785957336,0.9618884325027466,0.1573648452758789,0.6082425117492676,-0.6442931294441223,0.970180332660675,0.6747263073921204,0.6892748475074768,-0.500241219997406,0.9673410058021545,0.15931731462478638,0.5936179161071777,-0.7685673236846924,0.9751821160316467,0.6636963486671448,0.6773666143417358,-0.37039655447006226,0.9669855237007141,0.1798914223909378,0.587030827999115,-0.6234767436981201,0.9738518595695496,0.5811242461204529,0.6407570838928223,0.020126676186919212,0.9977861642837524,0.42091748118400574,0.6538805365562439,-0.019707240164279938,0.9963577389717102,0.5677429437637329,0.8584918975830078,-0.10368069261312485,0.8440766930580139,0.42515265941619873,0.8667535185813904,-0.06909483671188354,0.6889833211898804,0.5569673180580139,1.0571399927139282,0.41353484988212585,0.5268921852111816,0.4385945498943329,1.0547518730163574,0.3713946044445038,0.439471036195755,0.5449820756912231,1.0787909030914307,0.4440017342567444,0.31534814834594727,0.44718635082244873,1.0758681297302246,0.398362934589386,0.23263351619243622,0.5705773234367371,1.1294910907745361,0.13505877554416656,0.3771655261516571,0.43422752618789673,1.1267939805984497,0.05151082202792168,0.339695006608963
14872.370265878477,0.517361581325531,0.2619650065898895,-0.7278030514717102,0.999969482421875,0.5302339792251587,0.24363692104816437,-0.6846734285354614,0.9999451637268066,0.5387789607048035,0.24479170143604279,-0.6849337816238403,0.9999423027038574,0.5473445057868958,0.24583697319030762,-0.6851779818534851,0.9999387264251709,0.5007995367050171,0.241103395819664,-0.7037306427955627,0.9999213218688965,0.488106369972229,0.24050694704055786,-0.7036988735198975,0.9999133348464966,0.475534051656723,0.24000489711761475,-0.703909158706665,0.9999011754989624,0.5518797636032104,0.25622475147247314,-0.3914259672164917,0.9999493360519409,0.445180207490921,0.24924039840698242,-0.4830620288848877,0.9999178647994995,0.5286105871200562,0.28470805287361145,-0.6129480600357056,0.999985933303833,0.4911305010318756,0.2809847295284271,-0.6389657855033875,0.9999798536300659,0.6161825060844421,0.37345612049102783,-0.19314654171466827,0.9999661445617676,0.34366628527641296,0.37512052059173584,-0.28620103001594543,0.9998656511306763,0.6366982460021973,0.5259308218955994,-0.03350743651390076,0.9718264937400818,0.3146568834781647,0.531075656414032,-0.24462509155273438,0.9669086933135986,0.672918438911438,0.647491455078125,-0.32973945140838623,0.976783275604248,0.2106042206287384,0.5880851745605469,-0.6065108776092529,0.9775876402854919,0.6871289014816284,0.6874464750289917,-0.4152732789516449,0.9600513577461243,0.15950408577919006,0.6099017262458801,-0.6912499070167542,0.970820426940918,0.6760483384132385,0.6887995004653931,-0.5079609751701355,0.96587735414505,0.1602746844291687,0.595176637172699,-0.8131496906280518,0.975730836391449,0.6649096012115479,0.67677903175354,-0.37387406826019287,0.9652379751205444,0.18048787117004395,0.5882556438446045,-0.664500892162323,0.9743202328681946,0.5822678804397583,0.6406334638595581,0.025719054043293,0.9977273344993591,0.42389437556266785,0.6535158157348633,-0.025253642350435257,0.9964239001274109,0.5673646926879883,0.863118052482605,-0.1232108622789383,0.8186267018318176,0.4242958128452301,0.8673890233039856,-0.09694015979766846,0.6475241780281067,0.5568277835845947,1.0580787658691406,0.3774297833442688,0.47887715697288513,0.43603819608688354,1.0568546056747437,0.3281942903995514,0.3962402045726776,0.5433799028396606,1.0799793004989624,0.4059810936450958,0.290585458278656,0.4441468119621277,1.0784364938735962,0.35297706723213196,0.20544283092021942,0.5752260088920593,1.1290452480316162,0.09614419937133789,0.3426337242126465,0.4325636029243469,1.1287894248962402,0.003827265463769436,0.3088609576225281
14889.036932545143,0.5173137187957764,0.26080000400543213,-0.7415183782577515,0.9999555349349976,0.5298534035682678,0.24316290020942688,-0.6979823112487793,0.9999213218688965,0.5381794571876526,0.24414195120334625,-0.6982439756393433,0.9999184608459473,0.5467770099639893,0.2452157437801361,-0.6984821557998657,0.9999152421951294,0.5007210373878479,0.2410331666469574,-0.7187777757644653,0.999885082244873,0.48832398653030396,0.2404637634754181,-0.7187588214874268,0.9998705387115479,0.4757634997367859,0.24001094698905945,-0.7189833521842957,0.9998490810394287,0.5505142211914062,0.2557046711444855,-0.3994159400463104,0.9999281167984009,0.4449021518230438,0.24900944530963898,-0.49873679876327515,0.9998749494552612,0.5279160141944885,0.2831428349018097,-0.6243128776550293,0.9999808073043823,0.4912315905094147,0.2798272371292114,-0.6525176763534546,0.9999710321426392,0.6154571175575256,0.3740746080875397,-0.19166603684425354,0.9999659061431885,0.3457527160644531,0.3740953207015991,-0.29905712604522705,0.9998399019241333,0.6360427141189575,0.5270084738731384,-0.02609137073159218,0.9715489149093628,0.3175753355026245,0.5296940803527832,-0.23691844940185547,0.9626184701919556,0.6708879470825195,0.6476498246192932,-0.32838502526283264,0.9767925143241882,0.21361801028251648,0.5874393582344055,-0.5702787041664124,0.9706947207450867,0.684941291809082,0.6876665949821472,-0.4149072766304016,0.9591231346130371,0.1604607105255127,0.6083404421806335,-0.6518270969390869,0.9618003368377686,0.6737547516822815,0.6894015073776245,-0.5085530281066895,0.9652005434036255,0.16171196103096008,0.5952622890472412,-0.7764052748680115,0.9682210087776184,0.6628862619400024,0.6775642037391663,-0.37297412753105164,0.9639604091644287,0.1828574538230896,0.5885495543479919,-0.6284875869750977,0.9663757085800171,0.5808025598526001,0.6406369209289551,0.03285159543156624,0.9977313876152039,0.4216342568397522,0.6517003178596497,-0.03239883854985237,0.9963653087615967,0.5661283135414124,0.8601430058479309,-0.10417499393224716,0.7896052002906799,0.42393094301223755,0.8621586561203003,-0.08543240278959274,0.6117135882377625,0.5542750358581543,1.0584602355957031,0.399872362613678,0.44596368074417114,0.43037503957748413,1.0150262117385864,0.3594304919242859,0.35795557498931885,0.5407401919364929,1.0804874897003174,0.42889532446861267,0.2807547450065613,0.44543665647506714,1.078172206878662,0.3860834240913391,0.1846354901790619,0.5734421014785767,1.1282864809036255,0.11131949722766876,0.3231249153614044,0.43842098116874695,1.1283321380615234,0.03135742247104645,0.28751349449157715
14905.703599211809,0.5159041285514832,0.2608569860458374,-0.7591313719749451,0.999969482421875,0.5292490124702454,0.2425011843442917,-0.7179787755012512,0.9999440908432007,0.5378652811050415,0.24361567199230194,-0.7182341814041138,0.9999430179595947,0.5466187596321106,0.24455267190933228,-0.7184804081916809,0.9999394416809082,0.4996568560600281,0.24022898077964783,-0.7349663376808167,0.9999202489852905,0.48692432045936584,0.23971229791641235,-0.734932541847229,0.9999122619628906,0.4743952453136444,0.23925213515758514,-0.7351481318473816,0.9998992681503296,0.5514044165611267,0.2553606331348419,-0.43027904629707336,0.9999518394470215,0.4443308413028717,0.24891239404678345,-0.512892484664917,0.9999130964279175,0.5270242094993591,0.2835009694099426,-0.6457829475402832,0.999984860420227,0.489094078540802,0.2800433337688446,-0.6692786812782288,0.9999779462814331,0.6166045665740967,0.37372902035713196,-0.2369193434715271,0.9999644756317139,0.34460392594337463,0.3750947415828705,-0.3011881709098816,0.9998489618301392,0.637499213218689,0.527062714099884,-0.0688573494553566,0.9767929315567017,0.3166757822036743,0.5307338237762451,-0.2274273931980133,0.9636009931564331,0.6726492047309875,0.6494259834289551,-0.3506317734718323,0.9782248735427856,0.2080615758895874,0.587670624256134,-0.5520741939544678,0.9749575853347778,0.6867311596870422,0.689751148223877,-0.43291372060775757,0.9621971845626831,0.15603619813919067,0.6094359159469604,-0.6298344135284424,0.9672756195068359,0.6744697093963623,0.6912135481834412,-0.5247186422348022,0.9676719903945923,0.15776607394218445,0.5952844023704529,-0.7536613345146179,0.9728969931602478,0.663336992263794,0.6792664527893066,-0.39342421293258667,0.9671743512153625,0.17888259887695312,0.5885228514671326,-0.61004638671875,0.9715321660041809,0.5810860991477966,0.6417240500450134,0.015454227104783058,0.997431218624115,0.42090579867362976,0.6539735794067383,-0.015022079460322857,0.9959281086921692,0.5676331520080566,0.8604444265365601,-0.1035270020365715,0.7955869436264038,0.42380791902542114,0.8653615713119507,-0.07085056602954865,0.6393225193023682,0.5553260445594788,1.0584111213684082,0.3980047106742859,0.4508233368396759,0.4363020062446594,1.0576324462890625,0.34640777111053467,0.3902614712715149,0.544252872467041,1.0806466341018677,0.4271436333656311,0.27553823590278625,0.44506919384002686,1.0796610116958618,0.37142500281333923,0.2190052717924118,0.5697348117828369,1.1284106969833374,0.1259126216173172,0.3164581060409546,0.42837953567504883,1.1281126737594604,0.03183942288160324,0.2968871295452118
14922.370265878475,0.5096839666366577,0.26284047961235046,-0.7356129884719849,0.9999593496322632,0.5252873301506042,0.24508005380630493,-0.6927510499954224,0.9999265670776367,0.5342586040496826,0.24584393203258514,-0.6930257081985474,0.9999246597290039,0.543258786201477,0.24689146876335144,-0.693289041519165,0.9999196529388428,0.49416741728782654,0.24295766651630402,-0.7104911208152771,0.9998927116394043,0.4808957278728485,0.24213533103466034,-0.7104603052139282,0.9998835325241089,0.46979665756225586,0.24153509736061096,-0.7106872200965881,0.9998645782470703,0.550551176071167,0.2566174268722534,-0.3927520215511322,0.9999353885650635,0.4429742693901062,0.250227153301239,-0.47798147797584534,0.9998871088027954,0.5230315327644348,0.2849894165992737,-0.6174308657646179,0.9999816417694092,0.48283499479293823,0.28106191754341125,-0.6416424512863159,0.9999725818634033,0.6172797679901123,0.375771164894104,-0.1820913553237915,0.9999611377716064,0.3455541729927063,0.37449994683265686,-0.27465716004371643,0.9998471736907959,0.636115312576294,0.5283305048942566,-0.017519308254122734,0.9698814153671265,0.317965567111969,0.5301432013511658,-0.2282426804304123,0.9595611095428467,0.672467827796936,0.6500052809715271,-0.32476043701171875,0.9735056757926941,0.2116030752658844,0.5883702635765076,-0.6017583012580872,0.971701979637146,0.6869112253189087,0.6904515027999878,-0.41162481904029846,0.9551033973693848,0.15989050269126892,0.6105091571807861,-0.6892602443695068,0.9642050266265869,0.6745722889900208,0.6914771199226379,-0.5069305896759033,0.9618736505508423,0.16063565015792847,0.5960977673530579,-0.8120558261871338,0.9703379273414612,0.6630735397338867,0.6797600388526917,-0.369885116815567,0.9606149196624756,0.1816181242465973,0.5890457034111023,-0.6602823734283447,0.9684590101242065,0.5818383693695068,0.6426392793655396,0.025652773678302765,0.9974443912506104,0.4210783541202545,0.6547975540161133,-0.02518576569855213,0.9961463212966919,0.5656496286392212,0.8681437969207764,-0.11073868721723557,0.7810446619987488,0.4234139323234558,0.8663873672485352,-0.09378784894943237,0.5929394364356995,0.5597033500671387,1.0612266063690186,0.42173394560813904,0.41830974817276,0.4324406385421753,1.0625979900360107,0.35113978385925293,0.35005274415016174,0.5485174059867859,1.0827261209487915,0.45392608642578125,0.2498830258846283,0.4393136203289032,1.0846385955810547,0.37814152240753174,0.18590141832828522,0.5745373368263245,1.1313600540161133,0.14151564240455627,0.2934150695800781,0.4304785430431366,1.1335115432739258,0.02217833884060383,0.2724505066871643
14939.036932545141,0.5155622959136963,0.2611578404903412,-0.736845076084137,0.9999561309814453,0.5286391973495483,0.24351659417152405,-0.6947000622749329,0.9999223947525024,0.537090003490448,0.24458064138889313,-0.694968581199646,0.9999204874038696,0.5458506941795349,0.24577517807483673,-0.6952270865440369,0.999916672706604,0.4994737505912781,0.24110347032546997,-0.7136415243148804,0.9998887777328491,0.4870017468929291,0.24045875668525696,-0.7136139869689941,0.9998770952224731,0.4746904671192169,0.2399294525384903,-0.7138482928276062,0.9998583793640137,0.5506934523582458,0.2562069892883301,-0.401597261428833,0.9999324083328247,0.44437387585639954,0.2492477148771286,-0.49263232946395874,0.9998791217803955,0.5266121625900269,0.2836909592151642,-0.6212770938873291,0.9999802112579346,0.4893054962158203,0.28008556365966797,-0.6472219824790955,0.9999701976776123,0.6164634823799133,0.3747462332248688,-0.201395645737648,0.9999597072601318,0.34588491916656494,0.3747866749763489,-0.2889006733894348,0.9998272061347961,0.637067973613739,0.5276501178741455,-0.03757123649120331,0.9714557528495789,0.31728628277778625,0.5305756330490112,-0.2306593507528305,0.9615592360496521,0.6734234094619751,0.6495705246925354,-0.3305850923061371,0.9750124216079712,0.2119618058204651,0.5889930129051208,-0.5682647824287415,0.972079873085022,0.6862195134162903,0.6903463006019592,-0.41409730911254883,0.9570366144180298,0.15871810913085938,0.6111555695533752,-0.6489483118057251,0.9636884331703186,0.6741617321968079,0.691559374332428,-0.5065891146659851,0.9634625315666199,0.16052839159965515,0.5973564386367798,-0.7699143886566162,0.9698819518089294,0.6633069515228271,0.6796908378601074,-0.3740580379962921,0.9624002575874329,0.18206550180912018,0.5905232429504395,-0.625141441822052,0.9680703282356262,0.580996036529541,0.6432516574859619,0.022134071215987206,0.9972219467163086,0.4221603274345398,0.6557359099388123,-0.021688269451260567,0.9956628680229187,0.5663141012191772,0.8672370314598083,-0.10950477421283722,0.7668041586875916,0.4211491346359253,0.8767393827438354,-0.08616244792938232,0.5842944383621216,0.5597214698791504,1.0627094507217407,0.41055330634117126,0.4013361632823944,0.43223652243614197,1.0618977546691895,0.3479461073875427,0.3397189974784851,0.5487220883369446,1.0846707820892334,0.4416923522949219,0.24324394762516022,0.43971776962280273,1.0838797092437744,0.37446802854537964,0.1862110197544098,0.575160026550293,1.1325106620788574,0.13501903414726257,0.2783110439777374,0.4287424683570862,1.1322236061096191,0.02719484083354473,0.26382431387901306
14955.703599211807,0.5124018788337708,0.2625197768211365,-0.7016241550445557,0.9999566078186035,0.5267161130905151,0.24470025300979614,-0.6586524248123169,0.9999227523803711,0.535419225692749,0.24555562436580658,-0.6589292287826538,0.9999210834503174,0.5441976189613342,0.24670478701591492,-0.6591992378234863,0.9999171495437622,0.496630996465683,0.24244780838489532,-0.6770147681236267,0.9998869895935059,0.4835771322250366,0.2416468858718872,-0.676979124546051,0.9998766183853149,0.47184664011001587,0.24108652770519257,-0.6771973967552185,0.9998586177825928,0.5506848096847534,0.2568150758743286,-0.36443111300468445,0.9999324083328247,0.4433310925960541,0.2502933740615845,-0.4520426392555237,0.9998792409896851,0.5243026614189148,0.2848212420940399,-0.5858718752861023,0.9999803304672241,0.4854438304901123,0.2810783386230469,-0.6107880473136902,0.9999704360961914,0.6166228652000427,0.37608012557029724,-0.16374103724956512,0.9999585151672363,0.34557420015335083,0.3749881982803345,-0.25773558020591736,0.9998294115066528,0.6354488134384155,0.5282266139984131,-0.004003643523901701,0.9671794176101685,0.3178267478942871,0.5304807424545288,-0.20771311223506927,0.9586965441703796,0.6720260381698608,0.6489934325218201,-0.3033798038959503,0.9716668725013733,0.21515846252441406,0.5900430083274841,-0.5609129071235657,0.9701750874519348,0.6856099367141724,0.6897144913673401,-0.38797637820243835,0.9526143074035645,0.16274207830429077,0.6122963428497314,-0.645748496055603,0.9621008038520813,0.6734830141067505,0.6909286379814148,-0.4822632372379303,0.9595200419425964,0.16352912783622742,0.5980778932571411,-0.7650378942489624,0.9683970808982849,0.6619669198989868,0.6791768670082092,-0.34804609417915344,0.9585961699485779,0.18437817692756653,0.591180682182312,-0.6177548766136169,0.9665539860725403,0.5812193751335144,0.6426392793655396,0.02512483112514019,0.9974756836891174,0.42258164286613464,0.6547437906265259,-0.02462119050323963,0.9960858821868896,0.5651723146438599,0.8646405935287476,-0.1188686341047287,0.7833480834960938,0.424284964799881,0.8636167049407959,-0.09444178640842438,0.6019686460494995,0.5559389591217041,1.0581598281860352,0.4154178500175476,0.4081980884075165,0.4354144334793091,1.0583456754684448,0.349383682012558,0.35098567605018616,0.5437847375869751,1.0789411067962646,0.4483335316181183,0.2394925057888031,0.4426957070827484,1.0797017812728882,0.37672141194343567,0.18062099814414978,0.5700585246086121,1.130173921585083,0.14187975227832794,0.2871384620666504,0.4345100522041321,1.1303625106811523,0.02771914005279541,0.27304720878601074
14972.370265878473,0.5129157304763794,0.26212215423583984,-0.7404191493988037,0.999956488609314,0.5267439484596252,0.24420759081840515,-0.6981279253959656,0.9999241828918457,0.5353173017501831,0.24500946700572968,-0.6984002590179443,0.999923825263977,0.5440115332603455,0.24604743719100952,-0.698671817779541,0.9999204874038696,0.49680134654045105,0.24225710332393646,-0.7168537378311157,0.999883770942688,0.4839423596858978,0.24155709147453308,-0.7168213129043579,0.9998723268508911,0.4721776843070984,0.2410488873720169,-0.717052698135376,0.9998511075973511,0.5503044724464417,0.2560635805130005,-0.4003506004810333,0.9999359846115112,0.44353172183036804,0.2503069341182709,-0.48982366919517517,0.9998733997344971,0.5249276757240295,0.28433361649513245,-0.6227344870567322,0.999981164932251,0.4866570234298706,0.28087562322616577,-0.6481975317001343,0.999970555305481,0.6167649626731873,0.3749927580356598,-0.1916760951280594,0.9999648332595825,0.3460426330566406,0.3753011226654053,-0.28236061334609985,0.9998154044151306,0.6345804929733276,0.5288271307945251,-0.02807297371327877,0.9715442061424255,0.31826943159103394,0.5316425561904907,-0.22465157508850098,0.9562327265739441,0.6709990501403809,0.6493891477584839,-0.3348361551761627,0.97764652967453,0.21601185202598572,0.5887090563774109,-0.5802969336509705,0.9709681868553162,0.6857641935348511,0.6898046135902405,-0.4219486117362976,0.9615396857261658,0.16200587153434753,0.6103333830833435,-0.6644656658172607,0.9634714722633362,0.6734882593154907,0.6912142038345337,-0.517693281173706,0.9673762321472168,0.16345390677452087,0.5963467955589294,-0.7875412702560425,0.9697209596633911,0.661765456199646,0.6800998449325562,-0.37995830178260803,0.9660149216651917,0.1847599595785141,0.5894231200218201,-0.6383118629455566,0.9677846431732178,0.580594539642334,0.6421753764152527,0.026963677257299423,0.9975035786628723,0.42239463329315186,0.6539766788482666,-0.026498842984437943,0.9958236217498779,0.5655969977378845,0.865432858467102,-0.1296677589416504,0.7937840223312378,0.4223807156085968,0.8655312061309814,-0.09948133677244186,0.5974356532096863,0.5567502379417419,1.0607317686080933,0.39704957604408264,0.4363583028316498,0.4333033263683319,1.0596320629119873,0.3432053327560425,0.3534201979637146,0.5448395609855652,1.081850290298462,0.4285546541213989,0.260257363319397,0.4404827058315277,1.0811413526535034,0.3699630796909332,0.1783287674188614,0.5702931880950928,1.1322063207626343,0.11431797593832016,0.30974143743515015,0.43414318561553955,1.131373405456543,0.017574414610862732,0.27670058608055115
14989.03693254514,0.5128287076950073,0.26417455077171326,-0.7798112034797668,0.9999551773071289,0.5266764163970947,0.2466941624879837,-0.7394121885299683,0.9999184608459473,0.5352036356925964,0.24733954668045044,-0.7396692037582397,0.9999176263809204,0.5440857410430908,0.24828143417835236,-0.7399226427078247,0.9999111890792847,0.4964900612831116,0.24418139457702637,-0.7567481994628906,0.9998745918273926,0.4837270975112915,0.24300943315029144,-0.7567377090454102,0.9998641014099121,0.4721595346927643,0.24225322902202606,-0.756961464881897,0.9998384714126587,0.5495024919509888,0.25701314210891724,-0.44201987981796265,0.9999300241470337,0.4441733956336975,0.2512313425540924,-0.5268147587776184,0.9998655319213867,0.5243895649909973,0.2866905629634857,-0.6617075800895691,0.9999804496765137,0.4868089556694031,0.2827497124671936,-0.6857794523239136,0.999969482421875,0.6158980131149292,0.3760248124599457,-0.229454904794693,0.9999679327011108,0.3473321795463562,0.37632715702056885,-0.30688196420669556,0.9998472929000854,0.6340014338493347,0.5296863317489624,-0.05061904713511467,0.9743055701255798,0.3191583752632141,0.5324835181236267,-0.23055744171142578,0.9631372094154358,0.6700684428215027,0.6511864066123962,-0.3488505780696869,0.9778634905815125,0.21406307816505432,0.5832971930503845,-0.5708677768707275,0.9733871817588806,0.6835163235664368,0.6930242776870728,-0.4335179626941681,0.9612655639648438,0.1614004671573639,0.6071934700012207,-0.6515281200408936,0.9658212065696716,0.6733180284500122,0.6948087215423584,-0.5294435024261475,0.9670770168304443,0.16338598728179932,0.5948717594146729,-0.7752039432525635,0.9716296195983887,0.6624872088432312,0.6835344433784485,-0.3934449851512909,0.966315507888794,0.18354091048240662,0.5872349143028259,-0.628753125667572,0.9698003530502319,0.5812117457389832,0.6426442265510559,0.021454984322190285,0.9976909160614014,0.4230448007583618,0.6535137891769409,-0.021026678383350372,0.9960208535194397,0.5645439624786377,0.8650500774383545,-0.11768538504838943,0.7478963136672974,0.42192837595939636,0.8618478178977966,-0.08389720320701599,0.565794050693512,0.5587152242660522,1.056309700012207,0.43075332045555115,0.380231648683548,0.43229174613952637,1.0543025732040405,0.37686946988105774,0.31729355454444885,0.5478443503379822,1.0776300430297852,0.46552565693855286,0.2541729807853699,0.4395410716533661,1.075103521347046,0.4064364433288574,0.176772341132164,0.5750372409820557,1.1255731582641602,0.16088083386421204,0.27616772055625916,0.43243536353111267,1.1256468296051025,0.05785205215215683,0.24910077452659607
15005.703599211805,0.5182848572731018,0.2628048360347748,-0.7427673935890198,0.9999595880508423,0.5298057794570923,0.24442937970161438,-0.6999326348304749,0.9999281167984009,0.5381788015365601,0.24509146809577942,-0.7002017498016357,0.9999260902404785,0.5468813180923462,0.245900958776474,-0.7004353404045105,0.999922513961792,0.5001108646392822,0.24273094534873962,-0.7202218174934387,0.9998900890350342,0.4880410134792328,0.2421388477087021,-0.7202228903770447,0.9998774528503418,0.47516724467277527,0.2416800558567047,-0.7204521298408508,0.9998574256896973,0.549148678779602,0.2557479441165924,-0.39922353625297546,0.9999362230300903,0.44474542140960693,0.250980019569397,-0.4973495602607727,0.9998773336410522,0.528749406337738,0.28499776124954224,-0.624026894569397,0.9999816417694092,0.4926193356513977,0.2818642258644104,-0.6519988775253296,0.9999715089797974,0.6150040030479431,0.3755847215652466,-0.19172342121601105,0.9999706745147705,0.34644758701324463,0.3774695098400116,-0.28478479385375977,0.9998481273651123,0.6337826251983643,0.5298789739608765,-0.02526225708425045,0.9717004299163818,0.3191276788711548,0.5335125923156738,-0.2228931039571762,0.959253191947937,0.6707748174667358,0.6516193747520447,-0.3345728814601898,0.978553056716919,0.21625564992427826,0.5838464498519897,-0.5796656608581543,0.9732932448387146,0.6842410564422607,0.6945893168449402,-0.4208988547325134,0.9629955291748047,0.16355282068252563,0.6075555086135864,-0.6635517477989197,0.9663700461387634,0.6732016801834106,0.6962961554527283,-0.5179793834686279,0.9685359597206116,0.16541355848312378,0.5949720144271851,-0.787258505821228,0.9720665812492371,0.6622496843338013,0.6856882572174072,-0.38002774119377136,0.9673066735267639,0.1851227581501007,0.5873528718948364,-0.6377061605453491,0.9699435234069824,0.5817439556121826,0.6413745284080505,0.023618096485733986,0.9980884194374084,0.4248597323894501,0.6541746258735657,-0.023189902305603027,0.9968401193618774,0.5648958683013916,0.866282045841217,-0.09931759536266327,0.7447637915611267,0.42411530017852783,0.8686617612838745,-0.08557774871587753,0.5636112093925476,0.5569556951522827,1.0612081289291382,0.40792885422706604,0.41783010959625244,0.43198615312576294,1.0607270002365112,0.3509252667427063,0.3576136529445648,0.5453619956970215,1.0830475091934204,0.43767818808555603,0.268799364566803,0.4399234652519226,1.0822445154190063,0.37696677446365356,0.19283539056777954,0.574540376663208,1.1306921243667603,0.1254827231168747,0.3255029320716858,0.4294685423374176,1.1321642398834229,0.02583662047982216,0.29679784178733826
15022.370265878471,0.5185527205467224,0.2640835642814636,-0.7487520575523376,0.9999523162841797,0.5296351909637451,0.24550829827785492,-0.7049075365066528,0.9999172687530518,0.537865400314331,0.2459726631641388,-0.7051900029182434,0.9999151229858398,0.5465302467346191,0.2467757910490036,-0.70542973279953,0.9999094009399414,0.5002495050430298,0.24372157454490662,-0.7263703942298889,0.9998761415481567,0.4883664846420288,0.24281850457191467,-0.7263878583908081,0.9998646974563599,0.47549837827682495,0.24213460087776184,-0.7266358137130737,0.999840497970581,0.5486592650413513,0.2559075653553009,-0.39823463559150696,0.999927282333374,0.44515880942344666,0.25105977058410645,-0.5014510750770569,0.9998699426651001,0.5285228490829468,0.286094605922699,-0.6277154684066772,0.9999804496765137,0.49336251616477966,0.2829909920692444,-0.6571387648582458,0.9999704360961914,0.6138994097709656,0.37584805488586426,-0.18305402994155884,0.9999656677246094,0.345090389251709,0.3773938715457916,-0.288673460483551,0.9998358488082886,0.6357348561286926,0.5303057432174683,-0.014527506195008755,0.9722752571105957,0.319095253944397,0.5325334072113037,-0.2387077957391739,0.9636503458023071,0.671861469745636,0.6521285772323608,-0.33542683720588684,0.9786120653152466,0.21774807572364807,0.5859494209289551,-0.6176456212997437,0.9769889712333679,0.6854080557823181,0.6963412165641785,-0.424856960773468,0.9626021385192871,0.1686021089553833,0.6072670817375183,-0.7055737376213074,0.9705416560173035,0.6736130714416504,0.6986513733863831,-0.5217425227165222,0.9683979749679565,0.1703813076019287,0.5944051146507263,-0.8279346823692322,0.9756683111190796,0.6631320118904114,0.6883392930030823,-0.38111984729766846,0.9669978618621826,0.1897202879190445,0.5868106484413147,-0.6752595901489258,0.973394513130188,0.580525815486908,0.6424424052238464,0.028481993824243546,0.9977338314056396,0.42473822832107544,0.6546795964241028,-0.028082817792892456,0.996354341506958,0.5663774609565735,0.8672757744789124,-0.10407547652721405,0.7492091059684753,0.4239598512649536,0.8719905614852905,-0.08663531392812729,0.5357583165168762,0.5603091716766357,1.0635344982147217,0.4483506977558136,0.39046457409858704,0.43548667430877686,1.0628658533096313,0.3812742531299591,0.32184192538261414,0.5489107966423035,1.0849392414093018,0.4828290641307831,0.2618732750415802,0.44218161702156067,1.0844218730926514,0.41085055470466614,0.18098799884319305,0.5772889852523804,1.133646845817566,0.16869087517261505,0.2928502559661865,0.43719398975372314,1.1335575580596924,0.053706809878349304,0.2675906717777252
15039.036932545137,0.5166013240814209,0.2638615369796753,-0.77217036485672,0.9999591112136841,0.5293446779251099,0.24510283768177032,-0.7284682989120483,0.9999289512634277,0.5380558371543884,0.24570730328559875,-0.7287505865097046,0.9999281167984009,0.547078549861908,0.24647784233093262,-0.7289979457855225,0.9999231100082397,0.4988440275192261,0.24361324310302734,-0.7480397820472717,0.9998900890350342,0.48611021041870117,0.24305611848831177,-0.7480484247207642,0.9998791217803955,0.4735542833805084,0.24277323484420776,-0.7482823729515076,0.999854326248169,0.5521156787872314,0.25639358162879944,-0.4211338460445404,0.9999381303787231,0.44376420974731445,0.2528519332408905,-0.5159149765968323,0.999881386756897,0.5287294387817383,0.2863958477973938,-0.6510387063026428,0.9999828338623047,0.4920119047164917,0.2832913100719452,-0.6780239939689636,0.999972939491272,0.614434003829956,0.37665632367134094,-0.20342212915420532,0.9999679327011108,0.3467974066734314,0.3784447908401489,-0.2986418902873993,0.999824583530426,0.6367904543876648,0.5326473116874695,-0.033157192170619965,0.974364161491394,0.3193000555038452,0.533547580242157,-0.24733604490756989,0.9608345031738281,0.6719651818275452,0.6527302861213684,-0.3451501429080963,0.9797089695930481,0.21694932878017426,0.5856983065605164,-0.6252050399780273,0.9744142889976501,0.6855790615081787,0.6966581344604492,-0.43267127871513367,0.9642437100410461,0.16624772548675537,0.6073591113090515,-0.7116089463233948,0.9674512147903442,0.6731852293014526,0.698657214641571,-0.5282636880874634,0.9697458744049072,0.16840362548828125,0.5952500104904175,-0.8341987729072571,0.9731321930885315,0.6624147891998291,0.688532292842865,-0.38991454243659973,0.9682940244674683,0.18823501467704773,0.5876728892326355,-0.6830772757530212,0.9709775447845459,0.5798758864402771,0.6425009369850159,0.026594111695885658,0.9977450370788574,0.4241972267627716,0.6551663875579834,-0.02619253285229206,0.9960617423057556,0.5662084817886353,0.8645796775817871,-0.10907486081123352,0.7465561628341675,0.42654693126678467,0.8703821301460266,-0.07872412353754044,0.5226617455482483,0.5651218295097351,1.0615588426589966,0.4294827878475189,0.3904518485069275,0.4344673156738281,1.0606937408447266,0.3920334279537201,0.29838675260543823,0.555286169052124,1.0834013223648071,0.4623700976371765,0.2522846758365631,0.44081544876098633,1.0818430185317993,0.4219169616699219,0.16614416241645813,0.5813908576965332,1.1293952465057373,0.14618299901485443,0.28332436084747314,0.4370206296443939,1.1309149265289307,0.06440351158380508,0.24355655908584595
15055.703599211804,0.51255202293396,0.26527050137519836,-0.7474156022071838,0.9999639987945557,0.5254684686660767,0.24723239243030548,-0.7054314017295837,0.9999350309371948,0.5339065194129944,0.24783170223236084,-0.7056963443756104,0.9999346733093262,0.5425102114677429,0.2486649453639984,-0.705946147441864,0.9999282360076904,0.4956088662147522,0.24508383870124817,-0.7248618006706238,0.999904990196228,0.4821033775806427,0.24405667185783386,-0.7248461246490479,0.9998983144760132,0.4709117114543915,0.24363210797309875,-0.7250503301620483,0.9998785257339478,0.5478148460388184,0.25695109367370605,-0.40491774678230286,0.9999444484710693,0.4432312846183777,0.2526189386844635,-0.4982720613479614,0.9999028444290161,0.5243216156959534,0.28764137625694275,-0.6282100677490234,0.9999830722808838,0.4869851768016815,0.2842584252357483,-0.6547732949256897,0.9999752044677734,0.6133244037628174,0.3751069903373718,-0.19151799380779266,0.9999661445617676,0.3463836908340454,0.37679821252822876,-0.28434911370277405,0.9998608827590942,0.6337965130805969,0.527498185634613,-0.015125933103263378,0.9732065200805664,0.32045426964759827,0.5327588319778442,-0.2307722568511963,0.9653218388557434,0.6686090230941772,0.6496211886405945,-0.31934690475463867,0.9771893620491028,0.22182759642601013,0.586614727973938,-0.6019013524055481,0.9779435396194458,0.6836963295936584,0.6913208961486816,-0.4042585492134094,0.9606356620788574,0.17274677753448486,0.6064808964729309,-0.6885128617286682,0.971375584602356,0.6740604639053345,0.6937028765678406,-0.5025069713592529,0.9666234850883484,0.17457693815231323,0.5942687392234802,-0.8066896796226501,0.9761430025100708,0.6624323725700378,0.6821423768997192,-0.3652743995189667,0.9659282565116882,0.1940792351961136,0.5868675708770752,-0.6578710079193115,0.9738149046897888,0.5785936117172241,0.6407331824302673,0.022351354360580444,0.9976500868797302,0.4220315217971802,0.6522951126098633,-0.021896300837397575,0.9962779879570007,0.5640076398849487,0.8588522672653198,-0.1257931888103485,0.7810673713684082,0.42433175444602966,0.8722840547561646,-0.08446843177080154,0.5964169502258301,0.5566816329956055,1.0588480234146118,0.4036669433116913,0.41075417399406433,0.44093722105026245,1.0569117069244385,0.357734352350235,0.35842761397361755,0.5446224808692932,1.0803329944610596,0.43607252836227417,0.2603820264339447,0.44910478591918945,1.078974723815918,0.385032057762146,0.2008950263261795,0.5720757842063904,1.1301237344741821,0.12797708809375763,0.29858192801475525,0.4382956922054291,1.1276462078094482,0.03589620068669319,0.28598710894584656
15072.37026587847,0.5144554376602173,0.2654978930950165,-0.7829750776290894,0.9999641180038452,0.5264703035354614,0.24670444428920746,-0.7407881617546082,0.9999352693557739,0.5352952480316162,0.24689851701259613,-0.7410510778427124,0.9999351501464844,0.5441691279411316,0.24744129180908203,-0.7412992119789124,0.9999279975891113,0.4958423972129822,0.245524063706398,-0.7595711350440979,0.9999029636383057,0.4819963276386261,0.24475829303264618,-0.7595623731613159,0.999896764755249,0.4707285165786743,0.2445334792137146,-0.7597721815109253,0.9998757839202881,0.5496162176132202,0.25597211718559265,-0.43610259890556335,0.9999442100524902,0.4421176016330719,0.2535262107849121,-0.5264424085617065,0.9999040365219116,0.5274644494056702,0.2874695062637329,-0.6622304916381836,0.9999840259552002,0.49072784185409546,0.2844444811344147,-0.6878305077552795,0.9999765157699585,0.6154149174690247,0.3764263689517975,-0.2122209370136261,0.9999674558639526,0.34772253036499023,0.37843286991119385,-0.3061937391757965,0.9998629093170166,0.6332716941833496,0.5303207635879517,-0.029627829790115356,0.9740750789642334,0.32046687602996826,0.5362571477890015,-0.23924840986728668,0.9683433175086975,0.6724650859832764,0.6519110202789307,-0.33841943740844727,0.9774768948554993,0.22115802764892578,0.5883070230484009,-0.6054425239562988,0.978539228439331,0.6862456798553467,0.6953994631767273,-0.4254632592201233,0.9605486989021301,0.17185276746749878,0.6086670756340027,-0.6919692754745483,0.9716116189956665,0.6771782636642456,0.6969543695449829,-0.5240069627761841,0.9666469693183899,0.1727297604084015,0.5959340929985046,-0.8136996030807495,0.9764570593833923,0.6666343212127686,0.6857202053070068,-0.3847595751285553,0.9660589694976807,0.19206655025482178,0.588617205619812,-0.6627196073532104,0.9744333028793335,0.5798405408859253,0.6414473056793213,0.02457153983414173,0.997674286365509,0.4239383339881897,0.652367889881134,-0.02411094307899475,0.9962623715400696,0.5647931694984436,0.8568727374076843,-0.11488161981105804,0.779208779335022,0.4245941638946533,0.8722518086433411,-0.08212944865226746,0.5958743095397949,0.5537605881690979,1.0573670864105225,0.42730721831321716,0.42127126455307007,0.43928009271621704,1.055382490158081,0.37512126564979553,0.35308876633644104,0.5415220260620117,1.0787166357040405,0.46064314246177673,0.2707676887512207,0.44695723056793213,1.07683527469635,0.403576523065567,0.19743412733078003,0.5693554878234863,1.1279449462890625,0.14783214032649994,0.30253157019615173,0.43837496638298035,1.1265126466751099,0.04714900255203247,0.2797739803791046
15089.036932545136,0.5156844258308411,0.265317440032959,-0.7343846559524536,0.9999561309814453,0.5276035666465759,0.24652546644210815,-0.6923198103904724,0.9999221563339233,0.5363709330558777,0.24668118357658386,-0.6925992369651794,0.9999210834503174,0.5452138185501099,0.24724651873111725,-0.6928614377975464,0.9999127388000488,0.49719351530075073,0.24543340504169464,-0.7122776508331299,0.9998883008956909,0.4837090075016022,0.24468468129634857,-0.7122527956962585,0.999881386756897,0.4720635414123535,0.2444429248571396,-0.7124764919281006,0.9998610019683838,0.549950122833252,0.2559362053871155,-0.3911380469799042,0.9999308586120605,0.44275203347206116,0.25344064831733704,-0.4862329363822937,0.9998962879180908,0.5283476114273071,0.28722336888313293,-0.6147063374519348,0.999980092048645,0.4919400215148926,0.28427496552467346,-0.641697347164154,0.9999725818634033,0.6152274012565613,0.3767576515674591,-0.17105640470981598,0.9999576807022095,0.3468548059463501,0.37901610136032104,-0.2766805589199066,0.9998562335968018,0.6329911947250366,0.5303126573562622,0.0087197907269001,0.9665574431419373,0.3197338283061981,0.5372412800788879,-0.21716322004795074,0.9652886986732483,0.6726782321929932,0.6515344977378845,-0.3016014099121094,0.9711308479309082,0.21881866455078125,0.5892268419265747,-0.5842075347900391,0.9772940278053284,0.6867064833641052,0.6954836845397949,-0.3875958025455475,0.9521316289901733,0.17064765095710754,0.6098930835723877,-0.6702402234077454,0.9706733822822571,0.6761816740036011,0.6972566246986389,-0.48487329483032227,0.9594942927360535,0.17217206954956055,0.5970211029052734,-0.7912636399269104,0.9757142663002014,0.6651610732078552,0.6861532330513,-0.3477102220058441,0.9589568376541138,0.19130979478359222,0.5896579027175903,-0.6410742402076721,0.9735304117202759,0.5792497396469116,0.6440781950950623,0.02837885543704033,0.9973185658454895,0.42225518822669983,0.6561721563339233,-0.027922842651605606,0.9959114789962769,0.565078854560852,0.8693535327911377,-0.10719531029462814,0.7869049310684204,0.422728955745697,0.8779426217079163,-0.08658713102340698,0.5925191044807434,0.5557432174682617,1.0662351846694946,0.42929941415786743,0.4218323230743408,0.43726617097854614,1.0631012916564941,0.36549103260040283,0.34731584787368774,0.5434184670448303,1.0880379676818848,0.46201446652412415,0.2641947865486145,0.4446287453174591,1.0850553512573242,0.39352259039878845,0.19129091501235962,0.5719790458679199,1.1368017196655273,0.1520085334777832,0.29279816150665283,0.43621355295181274,1.1337722539901733,0.03941377252340317,0.2726616859436035
15105.703599211802,0.5165103673934937,0.2638888955116272,-0.7483562231063843,0.9999637603759766,0.5294327735900879,0.245277538895607,-0.7076511383056641,0.9999345541000366,0.5383144617080688,0.24606812000274658,-0.7079077363014221,0.9999322891235352,0.5474203824996948,0.24679525196552277,-0.7081534266471863,0.9999266862869263,0.49926644563674927,0.24327462911605835,-0.727185070514679,0.9999030828475952,0.48652321100234985,0.24266064167022705,-0.7271581292152405,0.9998955726623535,0.4737369418144226,0.24215924739837646,-0.7273812890052795,0.9998797178268433,0.5526379942893982,0.25641822814941406,-0.4127676784992218,0.9999406337738037,0.4431711733341217,0.25124692916870117,-0.5074137449264526,0.9999048709869385,0.5280844569206238,0.2863047420978546,-0.6311807632446289,0.9999836683273315,0.49066591262817383,0.28302478790283203,-0.6580793857574463,0.9999769926071167,0.6143800020217896,0.37573978304862976,-0.20248667895793915,0.9999645948410034,0.3436811566352844,0.3771636486053467,-0.2950795888900757,0.9998648166656494,0.6331549286842346,0.529470682144165,-0.0250734593719244,0.9692339301109314,0.319713830947876,0.534798264503479,-0.22861126065254211,0.9628533124923706,0.673327624797821,0.6523147225379944,-0.3230205178260803,0.9747324585914612,0.2165350615978241,0.5893211960792542,-0.5787672996520996,0.9764576554298401,0.6877355575561523,0.6968593597412109,-0.4074253439903259,0.9577909708023071,0.1661725640296936,0.6121699213981628,-0.6607902646064758,0.9703333973884583,0.6764131784439087,0.6983435153961182,-0.5031130313873291,0.9641308188438416,0.16766703128814697,0.5984172821044922,-0.7858760356903076,0.975491464138031,0.6657472848892212,0.6877173781394958,-0.36820870637893677,0.9638305902481079,0.18717066943645477,0.591054379940033,-0.6372717022895813,0.9739590287208557,0.580121636390686,0.6421096920967102,0.024747207760810852,0.9976646900177002,0.4247055947780609,0.6545204520225525,-0.024305690079927444,0.9961884617805481,0.5635293126106262,0.8667014837265015,-0.10727852582931519,0.793933093547821,0.4239676594734192,0.8647652864456177,-0.09029164910316467,0.6142730712890625,0.5540375113487244,1.0604711771011353,0.4185565412044525,0.44773226976394653,0.4351767301559448,1.0562137365341187,0.35176005959510803,0.37190887331962585,0.5420844554901123,1.0818086862564087,0.44992536306381226,0.28135380148887634,0.44266989827156067,1.0771567821502686,0.37879616022109985,0.20057985186576843,0.5694078207015991,1.1315304040908813,0.14401787519454956,0.318600594997406,0.4340863823890686,1.1282821893692017,0.03155282512307167,0.2922542691230774
15122.370265878468,0.5162924528121948,0.2638736069202423,-0.749717652797699,0.9999631643295288,0.5292244553565979,0.2453250139951706,-0.7089796662330627,0.9999333620071411,0.5381147265434265,0.24614636600017548,-0.7092390656471252,0.9999312162399292,0.5471771955490112,0.24690230190753937,-0.7094883322715759,0.9999257326126099,0.49897944927215576,0.24324269592761993,-0.7285727858543396,0.9999006986618042,0.48610326647758484,0.24260935187339783,-0.7285453677177429,0.9998929500579834,0.4733707308769226,0.2420930713415146,-0.7287687659263611,0.999876856803894,0.5525025129318237,0.25651857256889343,-0.41329145431518555,0.9999396800994873,0.44296106696128845,0.25120434165000916,-0.508019208908081,0.9999027252197266,0.5278977751731873,0.2863021790981293,-0.6321297883987427,0.999983549118042,0.4903413951396942,0.2830202281475067,-0.6590664982795715,0.9999767541885376,0.6141868829727173,0.37549975514411926,-0.20159976184368134,0.9999648332595825,0.34352317452430725,0.377117782831192,-0.2946370244026184,0.9998610019683838,0.6333440542221069,0.529197096824646,-0.024094965308904648,0.9692420959472656,0.31953704357147217,0.5349938869476318,-0.22699585556983948,0.9625336527824402,0.6732385158538818,0.6523308157920837,-0.3240097761154175,0.9747036695480347,0.2162514626979828,0.5894807577133179,-0.5777794718742371,0.9762134552001953,0.6877102255821228,0.6970414519309998,-0.408883661031723,0.9576928615570068,0.16573238372802734,0.6123480796813965,-0.6599520444869995,0.9700410962104797,0.6763143539428711,0.6985450983047485,-0.5047338604927063,0.9640739560127258,0.16713038086891174,0.5985764265060425,-0.7855082750320435,0.9752761721611023,0.6656060814857483,0.687960147857666,-0.36928313970565796,0.9636817574501038,0.1866888403892517,0.5912248492240906,-0.6364269852638245,0.9736970067024231,0.5798121094703674,0.6423852443695068,0.025248000398278236,0.9976828098297119,0.4242445230484009,0.6547030806541443,-0.02481674961745739,0.9961147308349609,0.5633988380432129,0.8675872087478638,-0.1107553094625473,0.7967693209648132,0.42380937933921814,0.8657305836677551,-0.09027072042226791,0.6112658381462097,0.5537979006767273,1.0620532035827637,0.41497939825057983,0.45267122983932495,0.43491747975349426,1.0568974018096924,0.3543270230293274,0.37011978030204773,0.5419068336486816,1.0834240913391113,0.4462258219718933,0.2817164361476898,0.4422928988933563,1.0778532028198242,0.3815467953681946,0.19809646904468536,0.5685564875602722,1.1332664489746094,0.13800173997879028,0.32175981998443604,0.4347151815891266,1.1290254592895508,0.03324918821454048,0.29223087430000305
15139.036932545134,0.5145597457885742,0.26376834511756897,-0.725795328617096,0.99996018409729,0.5276817083358765,0.2450592815876007,-0.6840866208076477,0.9999276399612427,0.5366591811180115,0.24592307209968567,-0.6843499541282654,0.9999276399612427,0.545555055141449,0.24665620923042297,-0.684594452381134,0.9999204874038696,0.4972471594810486,0.24317242205142975,-0.7031131982803345,0.999889612197876,0.4838036298751831,0.24263621866703033,-0.703071653842926,0.9998832941055298,0.47144821286201477,0.24218769371509552,-0.7032901048660278,0.9998618364334106,0.5520310401916504,0.256634384393692,-0.3887188732624054,0.9999357461929321,0.44197091460227966,0.2516888678073883,-0.4807029366493225,0.9998914003372192,0.5270064473152161,0.286310076713562,-0.6089907288551331,0.9999822378158569,0.48874273896217346,0.283144474029541,-0.6350581049919128,0.999974250793457,0.6140505075454712,0.3761768341064453,-0.17913395166397095,0.9999632835388184,0.3445078730583191,0.37769991159439087,-0.27248626947402954,0.9998413324356079,0.6320792436599731,0.5288417935371399,-0.007835499942302704,0.9698002338409424,0.32095596194267273,0.534416675567627,-0.21707689762115479,0.9620000720024109,0.6746428608894348,0.6525682806968689,-0.31377699971199036,0.9767017364501953,0.2163335531949997,0.5888026356697083,-0.5839427709579468,0.9766497611999512,0.6895051598548889,0.6984493136405945,-0.3988494873046875,0.9608049988746643,0.1654149889945984,0.6112763285636902,-0.667772650718689,0.9707174301147461,0.6779059767723083,0.7000249028205872,-0.49498993158340454,0.9668285846710205,0.16740968823432922,0.5982263088226318,-0.7914339900016785,0.9758257269859314,0.6669235825538635,0.6896859407424927,-0.35934439301490784,0.9663249850273132,0.18695423007011414,0.5908712148666382,-0.6422395706176758,0.9742304086685181,0.5792805552482605,0.6430487036705017,0.027806628495454788,0.9976208806037903,0.42480024695396423,0.6555752158164978,-0.027364581823349,0.9960058331489563,0.5634180307388306,0.8678522706031799,-0.11734819412231445,0.8002517223358154,0.4253864288330078,0.8655291199684143,-0.10326078534126282,0.606650710105896,0.5507573485374451,1.0638501644134521,0.4004569947719574,0.4610583484172821,0.4368482232093811,1.0579167604446411,0.33570194244384766,0.35921990871429443,0.5385368466377258,1.085195779800415,0.4306008517742157,0.2808200418949127,0.4435610771179199,1.0789538621902466,0.3618595004081726,0.18722625076770782,0.565316915512085,1.1349977254867554,0.11812055110931396,0.3229435980319977,0.4390985369682312,1.1297963857650757,0.009242167696356773,0.2826053202152252
15155.7035992118,0.5145005583763123,0.26384538412094116,-0.788142740726471,0.9999730587005615,0.5277142524719238,0.245216965675354,-0.7460802793502808,0.9999508857727051,0.536636233329773,0.24619422852993011,-0.7463309168815613,0.99994957447052,0.5454980134963989,0.2470535784959793,-0.7465561628341675,0.9999449253082275,0.4976436495780945,0.24303925037384033,-0.765044629573822,0.999924898147583,0.4842444062232971,0.2424541860818863,-0.7650197148323059,0.9999165534973145,0.47177955508232117,0.24199651181697845,-0.7652190327644348,0.9998987913131714,0.5516549944877625,0.2568865120410919,-0.4433918297290802,0.9999569654464722,0.4419380724430084,0.2514474391937256,-0.5364137887954712,0.9999202489852905,0.5262981653213501,0.2864145040512085,-0.6684591174125671,0.9999884366989136,0.48789724707603455,0.2830980718135834,-0.6948820352554321,0.9999823570251465,0.6124323606491089,0.37597358226776123,-0.22699576616287231,0.9999740123748779,0.34431028366088867,0.3765546977519989,-0.3129074275493622,0.9998781681060791,0.6319780349731445,0.5297757387161255,-0.046918634325265884,0.9776995182037354,0.32060515880584717,0.5330103635787964,-0.23644639551639557,0.9646199345588684,0.676342248916626,0.6545564532279968,-0.35644784569740295,0.9823395609855652,0.2231387197971344,0.5874574184417725,-0.5894843339920044,0.9755643010139465,0.6902170181274414,0.7005218267440796,-0.44460710883140564,0.9684697389602661,0.17583012580871582,0.6097518801689148,-0.6734086871147156,0.9684305191040039,0.6780354976654053,0.7016687393188477,-0.5436276793479919,0.973360538482666,0.1779366135597229,0.5980249047279358,-0.7980957627296448,0.973821759223938,0.667848527431488,0.6915008425712585,-0.40293219685554504,0.9723932147026062,0.19669240713119507,0.5903264284133911,-0.6476542353630066,0.9719346761703491,0.5791755318641663,0.6400913000106812,0.0227704755961895,0.9980237483978271,0.42430025339126587,0.6516660451889038,-0.022326963022351265,0.9967154264450073,0.564742386341095,0.8793492317199707,-0.10310860723257065,0.7890340685844421,0.4224421977996826,0.8612196445465088,-0.08232400566339493,0.6419323086738586,0.5529923439025879,1.0611319541931152,0.42525434494018555,0.45158857107162476,0.4348199963569641,1.0572919845581055,0.3643856942653656,0.3953884243965149,0.5397184491157532,1.0835247039794922,0.4564220905303955,0.29443174600601196,0.44337502121925354,1.0790921449661255,0.391218900680542,0.22358989715576172,0.573666512966156,1.1308096647262573,0.14177626371383667,0.33373647928237915,0.4304242730140686,1.12820565700531,0.03538750857114792,0.3169298768043518
15172.370265878466,0.5177592039108276,0.2650977671146393,-0.7712157964706421,0.999945878982544,0.529023289680481,0.24622757732868195,-0.7294708490371704,0.9999090433120728,0.537464439868927,0.24647843837738037,-0.7297513484954834,0.9999032020568848,0.5459444522857666,0.247011199593544,-0.730010986328125,0.9998985528945923,0.49951693415641785,0.2452860176563263,-0.75152188539505,0.9998602867126465,0.4866885840892792,0.24469904601573944,-0.7515531182289124,0.9998451471328735,0.4737676978111267,0.24448558688163757,-0.7517894506454468,0.999818742275238,0.5492830276489258,0.256247878074646,-0.4277445077896118,0.9999141693115234,0.44177648425102234,0.2537039518356323,-0.5344015955924988,0.999855637550354,0.5292258262634277,0.28691983222961426,-0.6517252326011658,0.9999775886535645,0.4932616353034973,0.2841981053352356,-0.6820010542869568,0.9999657869338989,0.6107487678527832,0.3782081604003906,-0.2031213790178299,0.9999579191207886,0.3472129702568054,0.37973448634147644,-0.3298462927341461,0.9998059868812561,0.6303339004516602,0.5328887104988098,-0.030811857432127,0.9574353098869324,0.32232019305229187,0.5390749573707581,-0.292920857667923,0.942626416683197,0.6794673204421997,0.654167115688324,-0.3309897184371948,0.9645287990570068,0.2190815657377243,0.5912728309631348,-0.6667351126670837,0.9620921015739441,0.6942646503448486,0.6991438865661621,-0.4133870303630829,0.9418688416481018,0.16713747382164001,0.6140902042388916,-0.751770555973053,0.9556947946548462,0.6860505938529968,0.701960563659668,-0.5092602968215942,0.9509506821632385,0.1674949824810028,0.5991662740707397,-0.8731294274330139,0.9633073806762695,0.6760361790657043,0.6902143359184265,-0.3765183389186859,0.9516909718513489,0.18726959824562073,0.5917094945907593,-0.7243314385414124,0.9614669680595398,0.5782606601715088,0.6436434984207153,0.0367048941552639,0.9977541565895081,0.4255259931087494,0.6572126150131226,-0.03634624183177948,0.9960149526596069,0.5608176589012146,0.8851006627082825,-0.08127792179584503,0.7019001245498657,0.42519527673721313,0.873957633972168,-0.08689422905445099,0.5021019577980042,0.5577816963195801,1.0633405447006226,0.44597554206848145,0.3831791281700134,0.4364050626754761,1.0598845481872559,0.3779405951499939,0.311014860868454,0.5463980436325073,1.0849056243896484,0.4775131344795227,0.26259535551071167,0.44324877858161926,1.0797171592712402,0.4071525037288666,0.17212286591529846,0.5799643993377686,1.1325156688690186,0.1680888682603836,0.2812744379043579,0.4378757178783417,1.133204698562622,0.053781311959028244,0.2599307894706726
15189.036932545132,0.5165457725524902,0.2657462954521179,-0.761967658996582,0.9999619722366333,0.5285991430282593,0.2464185655117035,-0.7221316695213318,0.999936580657959,0.5373532176017761,0.24671071767807007,-0.7224041223526001,0.9999346733093262,0.5459753274917603,0.24711450934410095,-0.7226759791374207,0.999929666519165,0.49826982617378235,0.24573346972465515,-0.7423264980316162,0.9999003410339355,0.4846334755420685,0.24534565210342407,-0.7423203587532043,0.9998911619186401,0.4720075726509094,0.24518515169620514,-0.7425474524497986,0.9998688697814941,0.5507889986038208,0.25644609332084656,-0.4241122305393219,0.9999455213546753,0.44087842106819153,0.2547309994697571,-0.5224375128746033,0.999901533126831,0.5292106866836548,0.28768473863601685,-0.6432144045829773,0.9999840259552002,0.49141815304756165,0.285189688205719,-0.6710658669471741,0.9999758005142212,0.6108050346374512,0.3778807520866394,-0.1997094303369522,0.9999620914459229,0.34691154956817627,0.3781968951225281,-0.3183392286300659,0.9998352527618408,0.6300506591796875,0.5331613421440125,-0.02319866232573986,0.9619274735450745,0.3218808174133301,0.5355216264724731,-0.29212048649787903,0.9463062286376953,0.6822187900543213,0.6564051508903503,-0.31894394755363464,0.9710084199905396,0.21916082501411438,0.5889825820922852,-0.6815940737724304,0.9673636555671692,0.6979365348815918,0.7025438547134399,-0.4008283019065857,0.9524803757667542,0.16763165593147278,0.6115067601203918,-0.7678176760673523,0.9618500471115112,0.6878042817115784,0.704545259475708,-0.4980686604976654,0.9602063894271851,0.16832908987998962,0.597769558429718,-0.8880783915519714,0.9685856103897095,0.6776120662689209,0.69302898645401,-0.3647528290748596,0.9604663848876953,0.18872152268886566,0.5901643633842468,-0.7392034530639648,0.9670730233192444,0.5748870968818665,0.6429636478424072,0.0356985479593277,0.9976578950881958,0.423617422580719,0.6562175750732422,-0.035296447575092316,0.9961114525794983,0.5625653266906738,0.8840605616569519,-0.08363994210958481,0.7516392469406128,0.420833557844162,0.8774863481521606,-0.08790885657072067,0.5501701235771179,0.5569236278533936,1.0614651441574097,0.4557110369205475,0.4151618778705597,0.43284547328948975,1.0587284564971924,0.37033745646476746,0.33285582065582275,0.5453985929489136,1.0826549530029297,0.4888351559638977,0.27621060609817505,0.4392397701740265,1.0789365768432617,0.39932724833488464,0.1814599484205246,0.5769491791725159,1.1312930583953857,0.18623501062393188,0.2898469567298889,0.43311578035354614,1.131199836730957,0.05007988214492798,0.2618383467197418
15205.703599211798,0.5151399374008179,0.2653987407684326,-0.7574576735496521,0.9999722242355347,0.5272393822669983,0.24565023183822632,-0.7148329615592957,0.9999518394470215,0.5358551740646362,0.24628061056137085,-0.715121865272522,0.9999517202377319,0.5444977879524231,0.24680615961551666,-0.7153825759887695,0.9999475479125977,0.4969319999217987,0.24468064308166504,-0.7333208918571472,0.9999231100082397,0.482695996761322,0.24434788525104523,-0.7332983016967773,0.9999147653579712,0.47032085061073303,0.24408560991287231,-0.7335020899772644,0.9998949766159058,0.5505776405334473,0.2569633424282074,-0.4153808653354645,0.999958872795105,0.44035768508911133,0.253985732793808,-0.5047957301139832,0.9999188184738159,0.5275061726570129,0.2878359854221344,-0.6397088766098022,0.999988317489624,0.4897052049636841,0.28540611267089844,-0.6649734377861023,0.9999814033508301,0.6105997562408447,0.3795287013053894,-0.2007245123386383,0.9999707937240601,0.34735989570617676,0.3792564570903778,-0.2969556152820587,0.9998499155044556,0.631144106388092,0.5327693223953247,-0.02877584844827652,0.9732481837272644,0.3209673762321472,0.5340836644172668,-0.23875124752521515,0.9596821069717407,0.6835057139396667,0.6535580158233643,-0.3413068652153015,0.9789825677871704,0.2218795120716095,0.5894474387168884,-0.6051236987113953,0.9733230471611023,0.6981654167175293,0.697382390499115,-0.42856353521347046,0.9637681245803833,0.17311492562294006,0.6101810336112976,-0.6897749900817871,0.9662639498710632,0.6890454292297363,0.6995363235473633,-0.5259729623794556,0.9695435166358948,0.17484349012374878,0.5974130630493164,-0.8116808533668518,0.9720733165740967,0.6802287101745605,0.687191903591156,-0.3875201344490051,0.9689203500747681,0.1935076117515564,0.5901938676834106,-0.6627770662307739,0.9704179167747498,0.5716930627822876,0.6431043148040771,0.02831074595451355,0.9978926777839661,0.42080360651016235,0.6553346514701843,-0.027847930788993835,0.9963533878326416,0.5637470483779907,0.8801043629646301,-0.11432838439941406,0.7800548076629639,0.42357543110847473,0.8754467964172363,-0.08397459983825684,0.5942537188529968,0.5543677806854248,1.0575659275054932,0.4251886010169983,0.42754194140434265,0.43653035163879395,1.0543110370635986,0.3927361071109772,0.32975471019744873,0.5419016480445862,1.0789850950241089,0.45826995372772217,0.2775616943836212,0.44298112392425537,1.0748002529144287,0.423597514629364,0.18219511210918427,0.5745184421539307,1.1267163753509521,0.15173101425170898,0.29708027839660645,0.43749165534973145,1.125016450881958,0.07555520534515381,0.26116931438446045
15222.370265878464,0.5150792002677917,0.2653520703315735,-0.7653244137763977,0.9999719858169556,0.5270808935165405,0.24549874663352966,-0.7221981287002563,0.9999514818191528,0.5357115268707275,0.24609066545963287,-0.7224926352500916,0.9999513626098633,0.5444327592849731,0.24660678207874298,-0.7227573990821838,0.999947190284729,0.4964170753955841,0.2446475327014923,-0.7405235171318054,0.9999220371246338,0.4820408225059509,0.24435696005821228,-0.740500807762146,0.9999133348464966,0.46982571482658386,0.24413847923278809,-0.7407057285308838,0.999893307685852,0.550593912601471,0.25677207112312317,-0.42075952887535095,0.9999583959579468,0.4400905966758728,0.2541774809360504,-0.5093211531639099,0.9999172687530518,0.5277891755104065,0.287843257188797,-0.6469525694847107,0.9999885559082031,0.4895439147949219,0.28549444675445557,-0.6719810962677002,0.9999815225601196,0.6106584072113037,0.3798879086971283,-0.205271378159523,0.9999704360961914,0.34725338220596313,0.37975820899009705,-0.29882434010505676,0.9998446702957153,0.6311008930206299,0.5330104827880859,-0.03367236256599426,0.9734564423561096,0.32084184885025024,0.5350772142410278,-0.23634828627109528,0.9586921334266663,0.6840007305145264,0.6542338132858276,-0.34987127780914307,0.9784830808639526,0.22149263322353363,0.5897685885429382,-0.6032523512840271,0.9723197817802429,0.6985362768173218,0.6983596086502075,-0.43833431601524353,0.9629467725753784,0.17269837856292725,0.6102633476257324,-0.6883497834205627,0.9650465250015259,0.6894637942314148,0.7004793882369995,-0.5360159873962402,0.9688845276832581,0.17443320155143738,0.597639799118042,-0.8113911151885986,0.9711198210716248,0.6806290149688721,0.6880648732185364,-0.3963100016117096,0.9682509899139404,0.19311824440956116,0.5905133485794067,-0.6613754034042358,0.9694837927818298,0.5720874071121216,0.6432884931564331,0.027448367327451706,0.9978531002998352,0.4208686947822571,0.6557543277740479,-0.026991277933120728,0.9961918592453003,0.5631580948829651,0.8811558485031128,-0.11791332811117172,0.7852425575256348,0.4240131080150604,0.8774657249450684,-0.08557172119617462,0.5973684787750244,0.5546966791152954,1.0583512783050537,0.42851459980010986,0.4315435290336609,0.4372962415218353,1.0550105571746826,0.4034744203090668,0.323249876499176,0.542809784412384,1.0797661542892456,0.46221068501472473,0.2791462242603302,0.44382795691490173,1.0752224922180176,0.4356319308280945,0.18071860074996948,0.5737459063529968,1.1273951530456543,0.15439178049564362,0.29888322949409485,0.4387924075126648,1.1256886720657349,0.08824653178453445,0.25646281242370605
15239.03693254513,0.5153762698173523,0.26536768674850464,-0.7670593857765198,0.9999653100967407,0.527792751789093,0.24551154673099518,-0.7255837917327881,0.9999407529830933,0.5363616347312927,0.24608595669269562,-0.7258660793304443,0.9999401569366455,0.5451064705848694,0.24649637937545776,-0.7261237502098083,0.9999362230300903,0.49720460176467896,0.24471542239189148,-0.7437373399734497,0.9999040365219116,0.48295947909355164,0.244436115026474,-0.7437342405319214,0.9998942613601685,0.47041669487953186,0.24415571987628937,-0.7439512610435486,0.999871015548706,0.5506536364555359,0.2566823363304138,-0.42942020297050476,0.9999479055404663,0.4404711127281189,0.25379908084869385,-0.5185185074806213,0.9998968839645386,0.5276638269424438,0.2878578305244446,-0.6503916382789612,0.9999850988388062,0.4896637797355652,0.28548774123191833,-0.675551176071167,0.9999769926071167,0.6093832850456238,0.37912094593048096,-0.2154691070318222,0.9999669790267944,0.3476489186286926,0.3796493411064148,-0.30787232518196106,0.9998140931129456,0.6327400207519531,0.5343113541603088,-0.04036833718419075,0.9743372201919556,0.3199254274368286,0.5358980298042297,-0.24125035107135773,0.9540272355079651,0.6849582195281982,0.6564949154853821,-0.34123748540878296,0.9803493022918701,0.21885888278484344,0.5908123254776001,-0.58796226978302,0.9687920808792114,0.6979812383651733,0.7038175463676453,-0.42657122015953064,0.9652125239372253,0.1660381555557251,0.611952543258667,-0.667949914932251,0.9611632227897644,0.6881812810897827,0.7055842876434326,-0.522362232208252,0.9708017706871033,0.16918694972991943,0.5976215600967407,-0.7916437983512878,0.9680302143096924,0.6798051595687866,0.6947892904281616,-0.3863682150840759,0.9703161120414734,0.1892099231481552,0.5902687311172485,-0.6458966732025146,0.9666168093681335,0.5728532671928406,0.6442843675613403,0.03100326657295227,0.9976770281791687,0.4221658408641815,0.6567018628120422,-0.030610648915171623,0.9959140419960022,0.5621941089630127,0.8810235261917114,-0.09135841578245163,0.7517715096473694,0.4219268262386322,0.8749276995658875,-0.08350609987974167,0.5753576755523682,0.5512586236000061,1.0576858520507812,0.45657455921173096,0.4091499447822571,0.43439018726348877,1.0540982484817505,0.3779965341091156,0.33092793822288513,0.5387851595878601,1.0789620876312256,0.49073630571365356,0.2764432430267334,0.43990767002105713,1.0740182399749756,0.40765371918678284,0.17832620441913605,0.5712355375289917,1.1265356540679932,0.189100980758667,0.2824954688549042,0.43797340989112854,1.1253856420516968,0.0587000735104084,0.2596288323402405
15255.703599211796,0.5142316222190857,0.2666887640953064,-0.7952666282653809,0.9999791383743286,0.5264515280723572,0.24732790887355804,-0.7527869939804077,0.9999610185623169,0.5355188846588135,0.24745672941207886,-0.7530466914176941,0.9999605417251587,0.5441470146179199,0.24773618578910828,-0.7532824873924255,0.9999567270278931,0.4953453540802002,0.2468654215335846,-0.7710561156272888,0.9999350309371948,0.48088106513023376,0.24654154479503632,-0.7710604071617126,0.9999279975891113,0.4689089059829712,0.24632878601551056,-0.7712454795837402,0.9999107122421265,0.5509101748466492,0.25691401958465576,-0.4476933479309082,0.9999641180038452,0.43915796279907227,0.2561344802379608,-0.5382173657417297,0.9999294281005859,0.5278568267822266,0.2882820963859558,-0.6751143336296082,0.999990701675415,0.48964619636535645,0.28612905740737915,-0.7007027864456177,0.9999852180480957,0.6114268898963928,0.38158318400382996,-0.2230478972196579,0.9999794960021973,0.34839168190956116,0.3778902590274811,-0.3211610019207001,0.9998944997787476,0.6308153867721558,0.5356332063674927,-0.04316233843564987,0.9772541522979736,0.3207470178604126,0.5331685543060303,-0.24568912386894226,0.964884340763092,0.6855180263519287,0.6563764214515686,-0.3575246036052704,0.982628583908081,0.22079426050186157,0.5881572961807251,-0.6001566052436829,0.9750856161117554,0.7009322047233582,0.7048372030258179,-0.44578519463539124,0.9684829711914062,0.17275941371917725,0.6097050905227661,-0.6846609115600586,0.9676797986030579,0.6918759942054749,0.7061673402786255,-0.5473482012748718,0.9734978675842285,0.17433437705039978,0.5989223718643188,-0.8080340027809143,0.973112940788269,0.6826614141464233,0.6951586008071899,-0.40549951791763306,0.9731605648994446,0.19313213229179382,0.5918631553649902,-0.6580103635787964,0.9716252088546753,0.5748833417892456,0.6426475644111633,0.029978621751070023,0.9983646273612976,0.4233453571796417,0.6543894410133362,-0.02953478693962097,0.9970762729644775,0.5626227259635925,0.8783063888549805,-0.10264881700277328,0.742573082447052,0.4265521168708801,0.8631435632705688,-0.09092425554990768,0.5804587006568909,0.5525892376899719,1.0565531253814697,0.42405837774276733,0.4155663251876831,0.4404708445072174,1.053977131843567,0.371622771024704,0.34586772322654724,0.5396026372909546,1.0781232118606567,0.45566967129707336,0.28783151507377625,0.4478023648262024,1.0740057229995728,0.4000914990901947,0.18766029179096222,0.5743404626846313,1.1260355710983276,0.14393216371536255,0.31604987382888794,0.44219791889190674,1.1269100904464722,0.04262349009513855,0.2844872772693634
15272.370265878462,0.5139093995094299,0.2652810513973236,-0.7697315812110901,0.9999691247940063,0.5263736248016357,0.2456984966993332,-0.726806104183197,0.999945878982544,0.5352388620376587,0.24608685076236725,-0.7270846962928772,0.9999449253082275,0.5439502596855164,0.2464924305677414,-0.7273463010787964,0.9999395608901978,0.49466195702552795,0.24517624080181122,-0.7453731894493103,0.9999129772186279,0.4798710346221924,0.24497663974761963,-0.7453637719154358,0.9999047517776489,0.46769121289253235,0.24470378458499908,-0.7455689907073975,0.9998807907104492,0.5506757497787476,0.2565421760082245,-0.4229579567909241,0.9999525547027588,0.43874984979629517,0.2541588246822357,-0.5144166946411133,0.9999099969863892,0.5274010896682739,0.28758957982063293,-0.6502528786659241,0.9999873638153076,0.4872550964355469,0.2854670584201813,-0.6760727763175964,0.9999799728393555,0.6116538047790527,0.38155752420425415,-0.20210497081279755,0.9999701976776123,0.3452785015106201,0.37859705090522766,-0.30795207619667053,0.9998501539230347,0.6308398246765137,0.5360881090164185,-0.027399037033319473,0.9716507792472839,0.32046830654144287,0.5339289903640747,-0.2673129439353943,0.9560898542404175,0.6854328513145447,0.6555910706520081,-0.33764493465423584,0.9792349338531494,0.218466117978096,0.587049126625061,-0.6569857597351074,0.9715343117713928,0.6995013952255249,0.7034188508987427,-0.4238710105419159,0.96431964635849,0.16861718893051147,0.6094894409179688,-0.7449488043785095,0.9653571248054504,0.6906929612159729,0.7052151560783386,-0.5226754546165466,0.9700300097465515,0.17049074172973633,0.5977945923805237,-0.8651822209358215,0.9712333083152771,0.6814509034156799,0.6931673884391785,-0.3842233121395111,0.9696373343467712,0.18944580852985382,0.5906665325164795,-0.7145640254020691,0.9696981906890869,0.5758561491966248,0.6470105051994324,0.031306639313697815,0.9979150891304016,0.42387962341308594,0.6590418219566345,-0.030819615349173546,0.9962999224662781,0.5652828216552734,0.8837241530418396,-0.10426588356494904,0.7367077469825745,0.42343318462371826,0.8708165884017944,-0.0844898447394371,0.537532389163971,0.5544794797897339,1.061499834060669,0.44001707434654236,0.3726094961166382,0.4372965395450592,1.0577564239501953,0.39551490545272827,0.29619601368904114,0.5412819981575012,1.083106517791748,0.47353777289390564,0.2555784583091736,0.44398146867752075,1.0779588222503662,0.4262976050376892,0.1661357432603836,0.5771662592887878,1.1308979988098145,0.16764295101165771,0.2617079019546509,0.4385509788990021,1.1301991939544678,0.0720619410276413,0.235565185546875
15289.036932545128,0.5133398771286011,0.2649117112159729,-0.746216356754303,0.9999630451202393,0.5267752408981323,0.24520640075206757,-0.7043231725692749,0.9999372959136963,0.5352489948272705,0.24561764299869537,-0.7046114206314087,0.9999364614486694,0.5442363023757935,0.2459154725074768,-0.7048872113227844,0.9999316930770874,0.4952273368835449,0.24494269490242004,-0.7220415472984314,0.999902606010437,0.4806283414363861,0.24487937986850739,-0.7220176458358765,0.9998939037322998,0.4686017334461212,0.24473458528518677,-0.7222338914871216,0.9998724460601807,0.5500795841217041,0.2560398578643799,-0.4093855619430542,0.9999457597732544,0.43998780846595764,0.2540036737918854,-0.4952578544616699,0.9999011754989624,0.5267908573150635,0.2876662313938141,-0.6302115321159363,0.9999842643737793,0.4872443377971649,0.28535160422325134,-0.6544020175933838,0.9999759197235107,0.6107664108276367,0.3799528479576111,-0.19573552906513214,0.9999606609344482,0.34570175409317017,0.3785003423690796,-0.29552552103996277,0.9998277425765991,0.6310099959373474,0.5339282155036926,-0.024437623098492622,0.9670513868331909,0.3199526369571686,0.5340330600738525,-0.24006448686122894,0.9548341035842896,0.6850320100784302,0.6535485982894897,-0.3273654878139496,0.9729236364364624,0.21413365006446838,0.588118314743042,-0.5963823795318604,0.969157338142395,0.6988427639007568,0.6997027397155762,-0.4112440347671509,0.9548366069793701,0.16219162940979004,0.6097759008407593,-0.678754985332489,0.961905300617218,0.6914225220680237,0.7028003334999084,-0.5072250962257385,0.9620001912117004,0.1644211709499359,0.5969848036766052,-0.8007270097732544,0.9685786962509155,0.6830230951309204,0.6895723938941956,-0.3730281889438629,0.9619913697242737,0.18379059433937073,0.5900349617004395,-0.65428626537323,0.9672082662582397,0.5732652544975281,0.6468907594680786,0.030708612874150276,0.9974615573883057,0.4216073751449585,0.6594408750534058,-0.030241508036851883,0.9957291483879089,0.5652574300765991,0.8849282264709473,-0.10014789551496506,0.7407864332199097,0.42219436168670654,0.8780791759490967,-0.08463025093078613,0.5576378107070923,0.5561891198158264,1.063948154449463,0.4347294569015503,0.38168928027153015,0.43495672941207886,1.059889316558838,0.373171865940094,0.30487439036369324,0.5436283946037292,1.0854766368865967,0.46753862500190735,0.2483612596988678,0.44104865193367004,1.080486536026001,0.40230342745780945,0.16582271456718445,0.5768901109695435,1.1334739923477173,0.16480299830436707,0.2570977210998535,0.43646126985549927,1.1316156387329102,0.053778208792209625,0.2356685847043991
