time,X_NOSE,Y_NOSE,Z_NOSE,visibility_NOSE,X_LEFT_EYE_INNER,Y_LEFT_EYE_INNER,Z_LEFT_EYE_INNER,visibility_LEFT_EYE_INNER,X_LEFT_EYE,Y_LEFT_EYE,Z_LEFT_EYE,visibility_LEFT_EYE,X_LEFT_EYE_OUTER,Y_LEFT_EYE_OUTER,Z_LEFT_EYE_OUTER,visibility_LEFT_EYE_OUTER,X_RIGHT_EYE_OUTER,Y_RIGHT_EYE_OUTER,Z_RIGHT_EYE_OUTER,visibility_RIGHT_EYE_OUTER,X_RIGHT_EYE,Y_RIGHT_EYE,Z_RIGHT_EYE,visibility_RIGHT_EYE,X_RIGHT_EYE_OUTER,Y_RIGHT_EYE_OUTER,Z_RIGHT_EYE_OUTER,visibility_RIGHT_EYE_OUTER,X_LEFT_EAR,Y_LEFT_EAR,Z_LEFT_EAR,visibility_LEFT_EAR,X_RIGHT_EAR,Y_RIGHT_EAR,Z_RIGHT_EAR,visibility_RIGHT_EAR,X_MOUTH_LEFT,Y_MOUTH_LEFT,Z_MOUTH_LEFT,visibility_MOUTH_LEFT,X_MOUTH_RIGHT,Y_MOUTH_RIGHT,Z_MOUTH_RIGHT,visibility_MOUTH_RIGHT,X_LEFT_SHOULDER,Y_LEFT_SHOULDER,Z_LEFT_SHOULDER,visibility_LEFT_SHOULDER,X_RIGHT_SHOULDER,Y_RIGHT_SHOULDER,Z_RIGHT_SHOULDER,visibility_RIGHT_SHOULDER,X_LEFT_ELBOW,Y_LEFT_ELBOW,Z_LEFT_ELBOW,visibility_LEFT_ELBOW,X_RIGHT_ELBOW,Y_RIGHT_ELBOW,Z_RIGHT_ELBOW,visibility_RIGHT_ELBOW,X_LEFT_WRIST,Y_LEFT_WRIST,Z_LEFT_WRIST,visibility_LEFT_WRIST,X_RIGHT_WRIST,Y_RIGHT_WRIST,Z_RIGHT_WRIST,visibility_RIGHT_WRIST,X_LEFT_PINKY,Y_LEFT_PINKY,Z_LEFT_PINKY,visibility_LEFT_PINKY,X_RIGHT_PINKY,Y_RIGHT_PINKY,Z_RIGHT_PINKY,visibility_RIGHT_PINKY,X_LEFT_INDEX,Y_LEFT_INDEX,Z_LEFT_INDEX,visibility_LEFT_INDEX,X_RIGHT_INDEX,Y_RIGHT_INDEX,Z_RIGHT_INDEX,visibility_RIGHT_INDEX,X_LEFT_THUMB,Y_LEFT_THUMB,Z_LEFT_THUMB,visibility_LEFT_THUMB,X_RIGHT_THUMB,Y_RIGHT_THUMB,Z_RIGHT_THUMB,visibility_RIGHT_THUMB,X_LEFT_HIP,Y_LEFT_HIP,Z_LEFT_HIP,visibility_LEFT_HIP,X_RIGHT_HIP,Y_RIGHT_HIP,Z_RIGHT_HIP,visibility_RIGHT_HIP,X_LEFT_KNEE,Y_LEFT_KNEE,Z_LEFT_KNEE,visibility_LEFT_KNEE,X_RIGHT_KNEE,Y_RIGHT_KNEE,Z_RIGHT_KNEE,visibility_RIGHT_KNEE,X_LEFT_ANKLE,Y_LEFT_ANKLE,Z_LEFT_ANKLE,visibility_LEFT_ANKLE,X_RIGHT_ANKLE,Y_RIGHT_ANKLE,Z_RIGHT_ANKLE,visibility_RIGHT_ANKLE,X_LEFT_HEEL,Y_LEFT_HEEL,Z_LEFT_HEEL,visibility_LEFT_HEEL,X_RIGHT_HEEL,Y_RIGHT_HEEL,Z_RIGHT_HEEL,visibility_RIGHT_HEEL,X_LEFT_FOOT_INDEX,Y_LEFT_FOOT_INDEX,Z_LEFT_FOOT_INDEX,visibility_LEFT_FOOT_INDEX,X_RIGHT_FOOT_INDEX,Y_RIGHT_FOOT_INDEX,Z_RIGHT_FOOT_INDEX,visibility_RIGHT_FOOT_INDEX
18087.779791025576,0.45011213421821594,0.23300310969352722,-1.0998696088790894,0.9999874830245972,0.4541769027709961,0.20802262425422668,-1.0544596910476685,0.9999613761901855,0.46195563673973083,0.20708465576171875,-1.0545471906661987,0.9999517202377319,0.46942123770713806,0.2061695158481598,-1.0546162128448486,0.999947190284729,0.4225275218486786,0.2095842957496643,-1.0866354703903198,0.9999707937240601,0.4056689143180847,0.20977476239204407,-1.0868260860443115,0.9999707937240601,0.3859708905220032,0.21028029918670654,-1.0869519710540771,0.9999696016311646,0.4587784707546234,0.21273180842399597,-0.7373976111412048,0.999913215637207,0.3332698941230774,0.22018709778785706,-0.8970153331756592,0.9999778270721436,0.45894235372543335,0.2535192668437958,-0.9763921499252319,0.9999921321868896,0.4240584075450897,0.25447356700897217,-1.021154761314392,0.9999960660934448,0.5404017567634583,0.347679078578949,-0.4673399031162262,0.9999563694000244,0.1780344396829605,0.3715238571166992,-0.7808829545974731,0.99996018409729,0.5808935165405273,0.508424699306488,-0.2567802667617798,0.9814584851264954,0.18001557886600494,0.5566666722297668,-0.7596087455749512,0.9939205646514893,0.641451358795166,0.6394990086555481,-0.4506467878818512,0.9855355024337769,0.2278214693069458,0.7172703146934509,-0.9154808521270752,0.9669384956359863,0.6673316955566406,0.6795920729637146,-0.535090446472168,0.969346821308136,0.24057549238204956,0.7593502998352051,-1.0124090909957886,0.9397832751274109,0.6509934663772583,0.6789055466651917,-0.6273619532585144,0.9722670316696167,0.27609983086586,0.7507004737854004,-1.0937390327453613,0.9436850547790527,0.6347184777259827,0.6704254746437073,-0.4924803376197815,0.971550703048706,0.278864324092865,0.7368462681770325,-0.9506583213806152,0.9464818239212036,0.48507168889045715,0.6336669325828552,0.11156358569860458,0.9987354874610901,0.3118390738964081,0.6513471603393555,-0.11134939640760422,0.9991251826286316,0.4870903193950653,0.8429110646247864,0.38724660873413086,0.9437770843505859,0.3426443040370941,0.8683274984359741,0.09230924397706985,0.9775958061218262,0.489311158657074,0.9650629162788391,1.0497585535049438,0.8739721179008484,0.3497133255004883,0.9942076802253723,0.6649373173713684,0.9167143106460571,0.46116089820861816,0.9783753752708435,1.0996088981628418,0.8284053206443787,0.342086523771286,0.9972662925720215,0.7082545161247253,0.6880159378051758,0.5551995635032654,1.0279865264892578,0.8736246228218079,0.8367676138877869,0.40931493043899536,1.0899832248687744,0.37374526262283325,0.8209478855133057
18104.446457692244,0.4491279125213623,0.23213684558868408,-1.1440566778182983,0.9999864101409912,0.4535251557826996,0.20687445998191833,-1.0961296558380127,0.999958872795105,0.461656779050827,0.2060372233390808,-1.0962450504302979,0.9999489784240723,0.4694988429546356,0.20522871613502502,-1.0963547229766846,0.999943733215332,0.42158037424087524,0.2086631953716278,-1.1272072792053223,0.9999673366546631,0.4046630561351776,0.20896503329277039,-1.127424955368042,0.9999661445617676,0.38516369462013245,0.20949560403823853,-1.1275787353515625,0.9999641180038452,0.46050477027893066,0.2123609185218811,-0.7629860043525696,0.999915599822998,0.33323782682418823,0.21991044282913208,-0.9178226590156555,0.9999737739562988,0.45868784189224243,0.252987265586853,-1.014589548110962,0.9999924898147583,0.423774778842926,0.2537771463394165,-1.0580565929412842,0.9999959468841553,0.5395016670227051,0.34708675742149353,-0.48106443881988525,0.9999583959579468,0.17960268259048462,0.3672311007976532,-0.7779332995414734,0.999951958656311,0.578551709651947,0.5096923112869263,-0.2714644968509674,0.9856454730033875,0.17988987267017365,0.554843544960022,-0.7487030625343323,0.9931407570838928,0.6405782699584961,0.6428858041763306,-0.4932752549648285,0.988092303276062,0.23106271028518677,0.713788628578186,-0.9292566180229187,0.9654132723808289,0.6684216856956482,0.682873010635376,-0.5832377076148987,0.9737285375595093,0.2375403493642807,0.7562826871871948,-1.0301419496536255,0.9370008707046509,0.6515543460845947,0.6822620630264282,-0.6826741099357605,0.9762532114982605,0.27454179525375366,0.7479525804519653,-1.114067792892456,0.9414442181587219,0.6353095173835754,0.6742965579032898,-0.5381115078926086,0.975487232208252,0.28040674328804016,0.7335065603256226,-0.9656503796577454,0.9438183307647705,0.4839964807033539,0.6337056159973145,0.1043119803071022,0.9986791014671326,0.3069901466369629,0.6496513485908508,-0.1040472462773323,0.9990755319595337,0.48578473925590515,0.851737916469574,0.29713067412376404,0.9492467045783997,0.3319724500179291,0.8745816349983215,0.04919284209609032,0.9760981798171997,0.48650118708610535,0.965758740901947,1.0426057577133179,0.8454942107200623,0.35300830006599426,0.9964616298675537,0.6388647556304932,0.9168748259544373,0.4606802463531494,0.9773175120353699,1.0999974012374878,0.7922633290290833,0.3425910770893097,1.0263068675994873,0.6824688911437988,0.6665384769439697,0.5530750751495361,1.0297701358795166,0.8667727112770081,0.7985832095146179,0.3950592875480652,1.1020921468734741,0.32319697737693787,0.8185354471206665
18121.11312435891,0.4526894688606262,0.23140156269073486,-1.0765107870101929,0.9999897480010986,0.4568871557712555,0.206301748752594,-1.030739188194275,0.9999675750732422,0.4646678864955902,0.20549821853637695,-1.0308091640472412,0.9999591112136841,0.4721580743789673,0.2046765685081482,-1.0308513641357422,0.9999551773071289,0.42409586906433105,0.20713457465171814,-1.0626927614212036,0.999976396560669,0.4070611000061035,0.207048237323761,-1.0628771781921387,0.9999762773513794,0.38739606738090515,0.20735695958137512,-1.0629924535751343,0.9999755620956421,0.46086016297340393,0.2115665078163147,-0.720558762550354,0.9999240636825562,0.33539876341819763,0.21799778938293457,-0.8795682787895203,0.9999818801879883,0.4610574543476105,0.2521994709968567,-0.9566645622253418,0.999993085861206,0.42664065957069397,0.25291743874549866,-1.0011742115020752,0.9999967813491821,0.5421283841133118,0.3486104905605316,-0.46257394552230835,0.9999558925628662,0.17795485258102417,0.3711960017681122,-0.7789368629455566,0.999964714050293,0.5816822052001953,0.508752167224884,-0.26064297556877136,0.9815545082092285,0.18027472496032715,0.5559478998184204,-0.7685636281967163,0.9945530891418457,0.6433486938476562,0.6399070024490356,-0.44486287236213684,0.9866728782653809,0.22780168056488037,0.7195925116539001,-0.9166293740272522,0.9709840416908264,0.6693425178527832,0.6800038814544678,-0.5280826687812805,0.9717265367507935,0.24066753685474396,0.7620903253555298,-1.0124973058700562,0.9461438655853271,0.652180552482605,0.6791738867759705,-0.6183339357376099,0.9743091464042664,0.276193231344223,0.7532649040222168,-1.0907515287399292,0.949536144733429,0.6355384588241577,0.6709819436073303,-0.485785573720932,0.9736310839653015,0.2784912884235382,0.7394018769264221,-0.9505181312561035,0.9521409273147583,0.4853239953517914,0.6343328356742859,0.11288527399301529,0.9987952709197998,0.31103333830833435,0.65145343542099,-0.11269301921129227,0.9992331266403198,0.4874034821987152,0.8420628309249878,0.3959192931652069,0.947841227054596,0.3433482050895691,0.8669719696044922,0.09332425147294998,0.9799577593803406,0.48810967803001404,0.9643253087997437,1.0450458526611328,0.8829837441444397,0.35176101326942444,0.9910558462142944,0.6545184850692749,0.9252181649208069,0.4598045349121094,0.978550910949707,1.0937411785125732,0.8384379744529724,0.3472302258014679,0.9930601716041565,0.6968270540237427,0.7061617374420166,0.5569332838058472,1.0255193710327148,0.8758671283721924,0.8458727598190308,0.40510082244873047,1.0896244049072266,0.36967721581459045,0.8343297839164734
18137.77979102558,0.4531765580177307,0.2328636348247528,-1.1124461889266968,0.9999878406524658,0.45701348781585693,0.20857179164886475,-1.0688700675964355,0.999962329864502,0.46460986137390137,0.2076803743839264,-1.068933129310608,0.999953031539917,0.4718250036239624,0.2068938910961151,-1.0690052509307861,0.9999481439590454,0.4252750873565674,0.20894068479537964,-1.1026138067245483,0.9999722242355347,0.40866008400917053,0.2085745632648468,-1.102783441543579,0.9999719858169556,0.38904258608818054,0.2085951268672943,-1.1028859615325928,0.9999706745147705,0.4603061079978943,0.21291854977607727,-0.751147449016571,0.9999127388000488,0.3360592722892761,0.2188049852848053,-0.9184454679489136,0.9999784231185913,0.46107950806617737,0.25346148014068604,-0.9873912334442139,0.9999918937683105,0.42721882462501526,0.25461021065711975,-1.0343388319015503,0.9999960660934448,0.5409283638000488,0.3467177152633667,-0.4780062735080719,0.9999561309814453,0.17900323867797852,0.36815136671066284,-0.7939327955245972,0.999962329864502,0.5786459445953369,0.5086510181427002,-0.26297786831855774,0.980749785900116,0.18157382309436798,0.5584591627120972,-0.7672231793403625,0.9939619898796082,0.6419217586517334,0.6392690539360046,-0.45449647307395935,0.9847383499145508,0.2279297411441803,0.7173478007316589,-0.9127717018127441,0.9675318002700806,0.669481635093689,0.6792066097259521,-0.5385921597480774,0.9677361845970154,0.24206410348415375,0.7594666481018066,-1.0075657367706299,0.94124436378479,0.6544369459152222,0.6786240935325623,-0.6319866180419922,0.9708112478256226,0.27558767795562744,0.7515926957130432,-1.089192509651184,0.9451796412467957,0.6379984617233276,0.670664370059967,-0.4969853460788727,0.9703049063682556,0.2778393030166626,0.7366809248924255,-0.9475323557853699,0.9478076100349426,0.4860556125640869,0.6323263645172119,0.11077899485826492,0.9986157417297363,0.3098074197769165,0.6492660045623779,-0.1105404868721962,0.9991133809089661,0.48631057143211365,0.8421250581741333,0.38612741231918335,0.9486681818962097,0.33787739276885986,0.8682125806808472,0.08782122284173965,0.9784411191940308,0.4883844554424286,0.9615954160690308,1.0494194030761719,0.8764222264289856,0.35140565037727356,0.9899733662605286,0.6559529304504395,0.9214264154434204,0.4630691111087799,0.9753216505050659,1.0995817184448242,0.8286177515983582,0.34528419375419617,0.9888576865196228,0.6986531019210815,0.6935901641845703,0.5585888028144836,1.0265135765075684,0.8760810494422913,0.8362666964530945,0.40154537558555603,1.0907281637191772,0.3621223270893097,0.8247678875923157
18154.446457692247,0.4502094089984894,0.23388555645942688,-1.11414635181427,0.9999872446060181,0.45505011081695557,0.20993977785110474,-1.0705145597457886,0.9999606609344482,0.46299391984939575,0.20857295393943787,-1.0705920457839966,0.9999518394470215,0.47041043639183044,0.2073008120059967,-1.0706719160079956,0.999946117401123,0.4228752553462982,0.21131771802902222,-1.1030131578445435,0.9999712705612183,0.4059984087944031,0.21101424098014832,-1.1031867265701294,0.9999709129333496,0.38618722558021545,0.21095508337020874,-1.1033122539520264,0.9999690055847168,0.4606066346168518,0.21323630213737488,-0.7477006912231445,0.9999186992645264,0.33302369713783264,0.22023072838783264,-0.908346951007843,0.9999786615371704,0.45873427391052246,0.2542995810508728,-0.9867905974388123,0.9999921321868896,0.4243576228618622,0.2569342851638794,-1.031934380531311,0.9999960660934448,0.539430558681488,0.34529271721839905,-0.46486225724220276,0.9999585151672363,0.17219017446041107,0.3668590486049652,-0.7750449180603027,0.999967098236084,0.5793541073799133,0.5080139636993408,-0.22734956443309784,0.9820390343666077,0.17588797211647034,0.5542507171630859,-0.7381479144096375,0.9941539168357849,0.6424671411514282,0.639045238494873,-0.4130944609642029,0.9850339293479919,0.22445648908615112,0.711853563785553,-0.8931701183319092,0.9675191640853882,0.6694362163543701,0.6800815463066101,-0.49663323163986206,0.9683640003204346,0.23710928857326508,0.7548236846923828,-0.9877278208732605,0.9407927989959717,0.6528761386871338,0.6795724630355835,-0.5934470295906067,0.9712837934494019,0.27138710021972656,0.7469134330749512,-1.0736669301986694,0.9445934891700745,0.6365259885787964,0.6713923215866089,-0.4563635289669037,0.9708998799324036,0.27383294701576233,0.7309792637825012,-0.929481029510498,0.9468169808387756,0.4870566427707672,0.6320157051086426,0.10927718877792358,0.99842369556427,0.30969369411468506,0.6492839455604553,-0.10894475132226944,0.9990683197975159,0.4907316267490387,0.8442256450653076,0.3713778257369995,0.9518746137619019,0.33723342418670654,0.8742573857307434,0.08316995948553085,0.97939532995224,0.4879509210586548,0.9652780294418335,1.0702219009399414,0.8550443053245544,0.3557286262512207,0.9935131072998047,0.6432591676712036,0.9162663221359253,0.4626985788345337,0.978884756565094,1.1241612434387207,0.8075774908065796,0.3417767882347107,1.0259056091308594,0.6850524544715881,0.6856414079666138,0.5562629699707031,1.0275739431381226,0.901354968547821,0.8089596033096313,0.40705251693725586,1.1007342338562012,0.3380221128463745,0.8114752173423767
18171.113124358915,0.45217233896255493,0.23191097378730774,-1.1072853803634644,0.9999911785125732,0.45533958077430725,0.20722705125808716,-1.0630033016204834,0.9999732971191406,0.462846040725708,0.20576298236846924,-1.0630810260772705,0.9999678134918213,0.4697694182395935,0.20442137122154236,-1.0631593465805054,0.9999639987945557,0.4244518280029297,0.20909824967384338,-1.0964010953903198,0.9999798536300659,0.40690135955810547,0.20911160111427307,-1.096555233001709,0.9999799728393555,0.3874457776546478,0.20945078134536743,-1.0966662168502808,0.9999779462814331,0.4586036503314972,0.21131381392478943,-0.7417365312576294,0.9999483823776245,0.3339044749736786,0.21983256936073303,-0.9061333537101746,0.9999849796295166,0.4603753387928009,0.25279727578163147,-0.9811717867851257,0.9999946355819702,0.4269172251224518,0.25585803389549255,-1.0274854898452759,0.9999972581863403,0.5392363667488098,0.34636178612709045,-0.4560975432395935,0.9999673366546631,0.17333842813968658,0.3669928014278412,-0.7862946391105652,0.9999690055847168,0.5794168710708618,0.5084148049354553,-0.20007914304733276,0.9829515814781189,0.17919832468032837,0.5547884702682495,-0.7546172738075256,0.9946216344833374,0.6430919766426086,0.6405947804450989,-0.35889744758605957,0.9863583445549011,0.2246384173631668,0.7132115960121155,-0.9009354114532471,0.9668904542922974,0.6702744960784912,0.681996762752533,-0.4376439154148102,0.9704769849777222,0.23639322817325592,0.7569827437400818,-0.9935844540596008,0.9389813542366028,0.6536632776260376,0.681488573551178,-0.5333457589149475,0.9732624888420105,0.27321726083755493,0.7491058111190796,-1.0811049938201904,0.9430307149887085,0.6372672319412231,0.6731063723564148,-0.4009955823421478,0.9727555513381958,0.27618932723999023,0.733330488204956,-0.9376829266548157,0.9453923106193542,0.4868762791156769,0.63101726770401,0.11242423206567764,0.9986308217048645,0.3099895119667053,0.6489957571029663,-0.11203168332576752,0.9991869330406189,0.4894065260887146,0.8452091217041016,0.3855736553668976,0.9515255093574524,0.3411143720149994,0.8756545186042786,0.07152862101793289,0.9801428914070129,0.4899490177631378,0.9594537615776062,1.0968389511108398,0.8440337181091309,0.3551546633243561,0.9950417876243591,0.6066085696220398,0.9124924540519714,0.46656858921051025,0.9725374579429626,1.152327537536621,0.7979705333709717,0.336136132478714,1.0263445377349854,0.6466441750526428,0.6773687601089478,0.5563053488731384,1.0230203866958618,0.9368243217468262,0.7904248833656311,0.4121200442314148,1.1014586687088013,0.30097419023513794,0.7999799251556396
18187.779791025583,0.45439743995666504,0.2294866442680359,-1.0795398950576782,0.9999887943267822,0.4571661651134491,0.20686936378479004,-1.0317589044570923,0.9999662637710571,0.464773565530777,0.20571663975715637,-1.0318337678909302,0.999958872795105,0.47176098823547363,0.20461899042129517,-1.0318708419799805,0.9999537467956543,0.42630326747894287,0.20803624391555786,-1.0683900117874146,0.9999756813049316,0.4105118215084076,0.20752453804016113,-1.0685710906982422,0.9999761581420898,0.39100033044815063,0.20734325051307678,-1.0686759948730469,0.9999744892120361,0.4582159221172333,0.2114119529724121,-0.7120158076286316,0.9999270439147949,0.33785319328308105,0.2170092761516571,-0.8922709226608276,0.9999822378158569,0.4609006643295288,0.2507671117782593,-0.9561477303504944,0.9999926090240479,0.428140252828598,0.2536050081253052,-1.0069001913070679,0.999996542930603,0.5355995893478394,0.3479956090450287,-0.4420469105243683,0.9999505281448364,0.17512252926826477,0.3704894483089447,-0.7842624187469482,0.9999620914459229,0.5770374536514282,0.50761479139328,-0.20241916179656982,0.9808750152587891,0.1804208904504776,0.5586336851119995,-0.7592394948005676,0.9953761100769043,0.6373882293701172,0.6390092372894287,-0.3759672939777374,0.9852561950683594,0.22399596869945526,0.7178846597671509,-0.9030811786651611,0.9718353748321533,0.665502667427063,0.6794223189353943,-0.4553072452545166,0.9682701826095581,0.23931045830249786,0.7601039409637451,-0.9969467520713806,0.9469276666641235,0.6486238241195679,0.6795583367347717,-0.5482568144798279,0.9711655974388123,0.27408015727996826,0.7502947449684143,-1.07926344871521,0.9502826929092407,0.6312439441680908,0.6717291474342346,-0.4175685942173004,0.9708254933357239,0.27603787183761597,0.7365189790725708,-0.9376938343048096,0.9521668553352356,0.4811788499355316,0.6355941891670227,0.11696203052997589,0.9984778761863708,0.3046225905418396,0.6524136662483215,-0.11666847765445709,0.9990712404251099,0.48764389753341675,0.8473610877990723,0.40728405117988586,0.9466174840927124,0.3376997709274292,0.8744734525680542,0.08442484587430954,0.9790486097335815,0.48695945739746094,0.9679734110832214,1.0756272077560425,0.8564233183860779,0.35493627190589905,0.9978294968605042,0.6290984749794006,0.9115739464759827,0.4598298966884613,0.9825713038444519,1.1261836290359497,0.8112705945968628,0.33524829149246216,1.0286552906036377,0.6695183515548706,0.6725069880485535,0.552798867225647,1.0306841135025024,0.9064939618110657,0.8120718598365784,0.4109484553337097,1.1049119234085083,0.3254222273826599,0.8029959201812744
18204.44645769225,0.45048633217811584,0.2336633801460266,-1.0928491353988647,0.9999854564666748,0.45426565408706665,0.2107580602169037,-1.050049066543579,0.9999545812606812,0.4619821310043335,0.20952266454696655,-1.0501179695129395,0.9999443292617798,0.46906304359436035,0.2082424759864807,-1.0501835346221924,0.9999384880065918,0.42323002219200134,0.21190524101257324,-1.083095908164978,0.9999663829803467,0.40683799982070923,0.2112402319908142,-1.0833033323287964,0.9999672174453735,0.3874131739139557,0.21078607439994812,-1.083418607711792,0.9999653100967407,0.4580515921115875,0.2134515643119812,-0.7398829460144043,0.9999009370803833,0.3334296643733978,0.21929487586021423,-0.9045910239219666,0.9999746084213257,0.45830321311950684,0.25477004051208496,-0.9710730314254761,0.9999905824661255,0.4247462749481201,0.25738537311553955,-1.0173455476760864,0.999995231628418,0.5357634425163269,0.3477734923362732,-0.47579309344291687,0.999950647354126,0.17636308073997498,0.3690762519836426,-0.7849889993667603,0.999957799911499,0.5777751207351685,0.510452151298523,-0.23825384676456451,0.9820588231086731,0.18308530747890472,0.5591828227043152,-0.751548707485199,0.9941324591636658,0.641241192817688,0.6431177854537964,-0.39502426981925964,0.985852837562561,0.2297009974718094,0.7166980504989624,-0.8873355984687805,0.965945303440094,0.6688732504844666,0.6827166676521301,-0.4731311798095703,0.9695191979408264,0.24272508919239044,0.7597401142120361,-0.977063000202179,0.938334584236145,0.6506124138832092,0.6822918653488159,-0.5633901357650757,0.9723477363586426,0.2750908136367798,0.751245379447937,-1.0590182542800903,0.9423850774765015,0.633086621761322,0.6744611263275146,-0.43490850925445557,0.9721255898475647,0.2776966392993927,0.736638069152832,-0.9218266010284424,0.9457319974899292,0.4854220747947693,0.6346350908279419,0.10528566688299179,0.9984697699546814,0.30704790353775024,0.650296151638031,-0.10506338626146317,0.9989948868751526,0.4860783517360687,0.8475615978240967,0.38372859358787537,0.9337578415870667,0.33837032318115234,0.8720130920410156,0.0998849868774414,0.9695103764533997,0.48934701085090637,0.9654286503791809,1.0480202436447144,0.8286330699920654,0.35276708006858826,0.9913169741630554,0.6610940098762512,0.8840508460998535,0.4641193151473999,0.9773651361465454,1.0993461608886719,0.7811775803565979,0.33892348408699036,1.0225863456726074,0.7040303945541382,0.6287727355957031,0.5552194714546204,1.029478907585144,0.8820074200630188,0.7818773984909058,0.41057559847831726,1.0986324548721313,0.37003204226493835,0.7603124380111694
18221.11312435892,0.4521564543247223,0.23395848274230957,-1.0982465744018555,0.9999891519546509,0.45675352215766907,0.21080264449119568,-1.056929111480713,0.9999672174453735,0.46454867720603943,0.2096710503101349,-1.05698561668396,0.9999597072601318,0.47184982895851135,0.20860376954078674,-1.05707848072052,0.9999562501907349,0.4256539046764374,0.21142396330833435,-1.0904597043991089,0.9999758005142212,0.40938159823417664,0.21090102195739746,-1.0906575918197632,0.9999755620956421,0.3896472752094269,0.21057522296905518,-1.090752124786377,0.9999743700027466,0.4605467915534973,0.21400976181030273,-0.7499222159385681,0.9999316930770874,0.3355894684791565,0.2197621464729309,-0.9155862927436829,0.9999808073043823,0.4596387445926666,0.25434252619743347,-0.9769546389579773,0.999993085861206,0.4259953200817108,0.25634899735450745,-1.0234651565551758,0.9999964237213135,0.539023220539093,0.34661850333213806,-0.49405214190483093,0.9999595880508423,0.17317788302898407,0.3690756559371948,-0.7867112159729004,0.9999604225158691,0.5791337490081787,0.5074180364608765,-0.2714826762676239,0.9850772023200989,0.17961318790912628,0.5562512278556824,-0.7473964095115662,0.993938684463501,0.6447369456291199,0.6413544416427612,-0.43504735827445984,0.9867933392524719,0.22620856761932373,0.7134861350059509,-0.8754134774208069,0.9665743708610535,0.6701468229293823,0.6808557510375977,-0.5160792469978333,0.970770537853241,0.23943094909191132,0.7562842965126038,-0.9629824757575989,0.9392566084861755,0.6549022197723389,0.6798658967018127,-0.6063264608383179,0.9737417697906494,0.27289581298828125,0.748847246170044,-1.0461184978485107,0.9436120390892029,0.6398650407791138,0.6716600060462952,-0.4755302667617798,0.9734859466552734,0.2748602032661438,0.733405351638794,-0.9103007912635803,0.9469285607337952,0.48522207140922546,0.6299833655357361,0.09651455283164978,0.9984638690948486,0.30645155906677246,0.6455776691436768,-0.09628438204526901,0.9989843964576721,0.4896122217178345,0.8416421413421631,0.342404305934906,0.9410568475723267,0.33774062991142273,0.870015025138855,0.08641792088747025,0.9694515466690063,0.48879536986351013,0.9660199284553528,0.9930773377418518,0.8420036435127258,0.35337263345718384,0.989997923374176,0.6365758776664734,0.8897309899330139,0.46425849199295044,0.9796574115753174,1.042647123336792,0.7887365221977234,0.35079094767570496,0.9898949265480042,0.6777086853981018,0.6398704648017883,0.549190878868103,1.0287870168685913,0.8216704726219177,0.7933213114738464,0.40218615531921387,1.0899972915649414,0.3462833762168884,0.7716519236564636
18237.779791025587,0.44916513562202454,0.23305359482765198,-1.1250773668289185,0.999984860420227,0.45493537187576294,0.20956149697303772,-1.079925537109375,0.999953031539917,0.4629709720611572,0.20863038301467896,-1.0800018310546875,0.9999407529830933,0.4703514277935028,0.20793187618255615,-1.0800740718841553,0.9999351501464844,0.4227904677391052,0.20967447757720947,-1.112043023109436,0.9999654293060303,0.4061739444732666,0.20908313989639282,-1.1122244596481323,0.9999645948410034,0.38674595952033997,0.20890727639198303,-1.1123528480529785,0.9999635219573975,0.4608936905860901,0.21447691321372986,-0.7551795244216919,0.9998908042907715,0.3343038856983185,0.21874341368675232,-0.9155285358428955,0.9999713897705078,0.45691049098968506,0.253706157207489,-0.9981080293655396,0.9999902248382568,0.4223857820034027,0.25450199842453003,-1.043086290359497,0.9999951124191284,0.5393972992897034,0.3479995131492615,-0.47941854596138,0.9999475479125977,0.1755172312259674,0.3685671091079712,-0.7818829417228699,0.9999552965164185,0.5795644521713257,0.5072837471961975,-0.25162985920906067,0.9819821715354919,0.1803217977285385,0.5571605563163757,-0.7470312714576721,0.9937135577201843,0.6399613618850708,0.6398242115974426,-0.44302454590797424,0.9854463338851929,0.22887852787971497,0.7167648077011108,-0.9015145301818848,0.9672382473945618,0.6665447354316711,0.6807976365089417,-0.5268532633781433,0.9688321352005005,0.239747554063797,0.7589458227157593,-0.9974503517150879,0.939832866191864,0.6500758528709412,0.6804488897323608,-0.621696949005127,0.9718255996704102,0.2753021717071533,0.7512213587760925,-1.0788922309875488,0.9439635872840881,0.6330674886703491,0.6726863384246826,-0.4855630397796631,0.9711896777153015,0.27856600284576416,0.736322820186615,-0.9362927675247192,0.9468094706535339,0.4857158660888672,0.6354798078536987,0.10515417158603668,0.9984487295150757,0.30792635679244995,0.6526151895523071,-0.10491622239351273,0.9990082383155823,0.4859335124492645,0.8454148173332214,0.37853628396987915,0.9457868337631226,0.3398861885070801,0.8724538087844849,0.08952437341213226,0.9745809435844421,0.4923129379749298,0.963302493095398,1.079374074935913,0.8600623607635498,0.35327351093292236,0.9920107126235962,0.6825157999992371,0.9100946187973022,0.46943795680999756,0.9763112664222717,1.1332062482833862,0.8102999925613403,0.3481249213218689,0.9911571145057678,0.727632999420166,0.6710172891616821,0.5530852675437927,1.0300049781799316,0.9016105532646179,0.8175988793373108,0.4045901596546173,1.096649408340454,0.3800198435783386,0.8082727789878845
18254.446457692255,0.45071545243263245,0.23182976245880127,-1.1147452592849731,0.9999880790710449,0.4557325839996338,0.20735514163970947,-1.0730018615722656,0.9999624490737915,0.4637744426727295,0.20650097727775574,-1.0730671882629395,0.9999539852142334,0.47139909863471985,0.2058219015598297,-1.07316255569458,0.9999494552612305,0.4230690896511078,0.20787891745567322,-1.1050546169281006,0.9999727010726929,0.4059595763683319,0.20758676528930664,-1.1052747964859009,0.9999728202819824,0.3864847421646118,0.20778340101242065,-1.1054012775421143,0.9999715089797974,0.46176663041114807,0.21275854110717773,-0.762380063533783,0.9999202489852905,0.3341480493545532,0.21845591068267822,-0.921868085861206,0.9999792575836182,0.4590587019920349,0.25263503193855286,-0.9921733736991882,0.9999922513961792,0.424060583114624,0.2534162998199463,-1.0369622707366943,0.9999960660934448,0.539783239364624,0.3474096953868866,-0.49155545234680176,0.9999511241912842,0.17886433005332947,0.3677140176296234,-0.7981155514717102,0.9999622106552124,0.5771176815032959,0.5098271369934082,-0.2653895616531372,0.9813016653060913,0.18437005579471588,0.5575168132781982,-0.7653368711471558,0.993802011013031,0.6406829357147217,0.6424400806427002,-0.4318414628505707,0.9836288094520569,0.22777949273586273,0.7168700098991394,-0.9018092155456543,0.9642900824546814,0.6686532497406006,0.6812509894371033,-0.5109074711799622,0.9651421308517456,0.24208541214466095,0.7587949633598328,-0.99222332239151,0.9353214502334595,0.6541624069213867,0.6810708045959473,-0.6042968034744263,0.9683876037597656,0.27475714683532715,0.7501959800720215,-1.0747920274734497,0.9396025538444519,0.6377302408218384,0.6733348369598389,-0.47342848777770996,0.9684194326400757,0.2763497829437256,0.7352521419525146,-0.9368049502372742,0.9431193470954895,0.48615339398384094,0.6311435103416443,0.10423122346401215,0.9983421564102173,0.30858251452445984,0.6468092203140259,-0.10398763418197632,0.999001681804657,0.48721107840538025,0.8451842069625854,0.34640511870384216,0.9462375640869141,0.33647847175598145,0.8723970651626587,0.07836458832025528,0.9760708808898926,0.48892372846603394,0.9635525345802307,1.0101906061172485,0.8458192944526672,0.35239923000335693,0.9936133623123169,0.6164382696151733,0.9096893072128296,0.4647548496723175,0.9773651361465454,1.060778260231018,0.7934890389442444,0.34240755438804626,1.024750828742981,0.6559821367263794,0.6593471765518188,0.5547467470169067,1.0280545949935913,0.842941403388977,0.7969443202018738,0.40604040026664734,1.1008328199386597,0.31613636016845703,0.8000373840332031
18271.113124358923,0.4495542049407959,0.23284748196601868,-1.148358941078186,0.9999886751174927,0.4549609124660492,0.20924463868141174,-1.1048521995544434,0.999966025352478,0.4629848301410675,0.20805737376213074,-1.1048997640609741,0.9999585151672363,0.47027212381362915,0.20702388882637024,-1.1049847602844238,0.9999545812606812,0.4229683578014374,0.20994308590888977,-1.138236165046692,0.9999738931655884,0.40617620944976807,0.20943719148635864,-1.1384212970733643,0.9999735355377197,0.386698454618454,0.20925787091255188,-1.1385281085968018,0.9999716281890869,0.46031591296195984,0.21341374516487122,-0.7868310213088989,0.9999287128448486,0.33375489711761475,0.21888357400894165,-0.953191339969635,0.9999783039093018,0.45759716629981995,0.25345611572265625,-1.0234023332595825,0.9999929666519165,0.4231644570827484,0.2549437880516052,-1.0701607465744019,0.9999961853027344,0.5379939675331116,0.34672829508781433,-0.5159358382225037,0.9999557733535767,0.17302162945270538,0.36853012442588806,-0.8180432319641113,0.9999520778656006,0.5752092003822327,0.5085358619689941,-0.2784702479839325,0.9840497374534607,0.1819450408220291,0.557031512260437,-0.7812562584877014,0.9931451082229614,0.6398678421974182,0.6431328058242798,-0.4495411813259125,0.9874792098999023,0.23311872780323029,0.7134737372398376,-0.922188937664032,0.9637970328330994,0.6671371459960938,0.6841637492179871,-0.5315937399864197,0.972730278968811,0.24368298053741455,0.7534835338592529,-1.0150110721588135,0.935681164264679,0.6509777307510376,0.6838763356208801,-0.6246088743209839,0.9753256440162659,0.2771981358528137,0.7463979125022888,-1.0971390008926392,0.9398306608200073,0.6342653632164001,0.6760108470916748,-0.4907801151275635,0.9746676683425903,0.27990612387657166,0.7315130829811096,-0.9570272564888,0.942823052406311,0.4870035648345947,0.632309079170227,0.10321618616580963,0.9984325766563416,0.3096548318862915,0.6489576697349548,-0.10299611836671829,0.9989431500434875,0.485907644033432,0.8465772867202759,0.3747723698616028,0.9428247809410095,0.339351624250412,0.8721506595611572,0.092814601957798,0.9731636047363281,0.4917094111442566,0.9653432369232178,1.061825156211853,0.8515352010726929,0.35281381011009216,0.9935396313667297,0.6730799078941345,0.9010610580444336,0.46918508410453796,0.9778790473937988,1.1142066717147827,0.7959156036376953,0.3473815321922302,0.9911433458328247,0.7169752717018127,0.6514400839805603,0.553203821182251,1.031806468963623,0.8827608227729797,0.8039245009422302,0.4073207378387451,1.0987640619277954,0.3706887364387512,0.7868643999099731
18287.77979102559,0.4540421962738037,0.23179090023040771,-1.0786082744598389,0.9999861717224121,0.4580366611480713,0.20695239305496216,-1.0369480848312378,0.9999560117721558,0.46549949049949646,0.20613500475883484,-1.036999225616455,0.9999457597732544,0.4725396931171417,0.20541983842849731,-1.0370678901672363,0.9999394416809082,0.42601293325424194,0.20770201086997986,-1.0705755949020386,0.9999687671661377,0.40892383456230164,0.2075468897819519,-1.0707802772521973,0.9999693632125854,0.38911235332489014,0.2078169286251068,-1.0708950757980347,0.9999676942825317,0.46165409684181213,0.2124946415424347,-0.7304589748382568,0.9999035596847534,0.33572518825531006,0.2185521125793457,-0.8973613381385803,0.9999772310256958,0.46162500977516174,0.25288304686546326,-0.9576995372772217,0.999990701675415,0.42733508348464966,0.25394946336746216,-1.0045751333236694,0.9999955892562866,0.5390045642852783,0.3481517434120178,-0.4650997221469879,0.9999474287033081,0.17664368450641632,0.3675951063632965,-0.7841880917549133,0.9999632835388184,0.5757864713668823,0.5102821588516235,-0.23437121510505676,0.9792224764823914,0.1826344132423401,0.556844174861908,-0.7554222941398621,0.9943834543228149,0.6396405100822449,0.641022801399231,-0.3884752094745636,0.9835579991340637,0.2286251038312912,0.7163081169128418,-0.8827065825462341,0.9662635326385498,0.6678429245948792,0.6800156831741333,-0.46444547176361084,0.9656046032905579,0.24163208901882172,0.7598616480827332,-0.9720156788825989,0.9384650588035583,0.6532111167907715,0.6795377731323242,-0.5558921694755554,0.9687115550041199,0.27413642406463623,0.7514708638191223,-1.0531750917434692,0.9423725008964539,0.6366622447967529,0.671657145023346,-0.42901062965393066,0.9686075448989868,0.2762656509876251,0.7363465428352356,-0.9169955849647522,0.9457710385322571,0.4864836633205414,0.6333802938461304,0.10703156888484955,0.9984588623046875,0.3094989061355591,0.6492331027984619,-0.1067897379398346,0.9990993738174438,0.4882635176181793,0.8442891836166382,0.3764863610267639,0.948035717010498,0.33485227823257446,0.871191680431366,0.09482328593730927,0.9769858717918396,0.48503056168556213,0.9619279503822327,1.0369374752044678,0.8553905487060547,0.3483758568763733,0.9893348813056946,0.6458913087844849,0.9127733707427979,0.4580984115600586,0.9769122004508972,1.0876837968826294,0.8094435930252075,0.3332873582839966,1.0193982124328613,0.6871707439422607,0.6782174110412598,0.5550488233566284,1.025455117225647,0.8774164915084839,0.8116801977157593,0.3948740065097809,1.094367265701294,0.3566949665546417,0.8077762126922607
18304.44645769226,0.4482707381248474,0.23364177346229553,-1.107980728149414,0.9999861717224121,0.45341432094573975,0.209275484085083,-1.0621198415756226,0.999957799911499,0.46126803755760193,0.20838770270347595,-1.0622113943099976,0.9999486207962036,0.46835988759994507,0.20759695768356323,-1.0622950792312622,0.9999436140060425,0.42203769087791443,0.21030834317207336,-1.0958925485610962,0.9999680519104004,0.40474361181259155,0.2101457118988037,-1.0960708856582642,0.9999681711196899,0.38569632172584534,0.2102738916873932,-1.0961828231811523,0.9999656677246094,0.45950940251350403,0.21435338258743286,-0.7365491390228271,0.9999101161956787,0.33367061614990234,0.2199924886226654,-0.9032221436500549,0.9999756813049316,0.4565514922142029,0.2547582983970642,-0.98056560754776,0.9999914169311523,0.4224950969219208,0.25513318181037903,-1.0275083780288696,0.9999955892562866,0.5367053151130676,0.34666380286216736,-0.45321500301361084,0.999956488609314,0.1777430921792984,0.3687138855457306,-0.7794007062911987,0.9999613761901855,0.5771880149841309,0.506523072719574,-0.2242484837770462,0.9809855818748474,0.18208733201026917,0.5569080114364624,-0.7437667846679688,0.9934983253479004,0.6406185626983643,0.6396498084068298,-0.4165864586830139,0.9842103719711304,0.2284935861825943,0.7136961817741394,-0.8963876962661743,0.9631747007369995,0.6678066253662109,0.6802322864532471,-0.5003136992454529,0.9666120409965515,0.2415560632944107,0.7559415698051453,-0.9927894473075867,0.934249758720398,0.6522250175476074,0.6800434589385986,-0.5961785912513733,0.9697449207305908,0.2730138301849365,0.7488992810249329,-1.0780049562454224,0.9385728240013123,0.6365014314651489,0.6719949245452881,-0.45989447832107544,0.9691336750984192,0.2750989496707916,0.7333041429519653,-0.9328992962837219,0.9411988854408264,0.48865941166877747,0.6320868134498596,0.1166602075099945,0.9984861016273499,0.31307196617126465,0.6504337787628174,-0.11635264754295349,0.9990106821060181,0.49056729674339294,0.8442915678024292,0.39219945669174194,0.9426945447921753,0.33930516242980957,0.8733028173446655,0.08340757340192795,0.9774278998374939,0.4886506199836731,0.9644263386726379,1.0910208225250244,0.8379780650138855,0.3551281690597534,0.9932153820991516,0.6490997076034546,0.9062126278877258,0.46347689628601074,0.9794644713401794,1.144976019859314,0.7908445000648499,0.3344445526599884,1.0214507579803467,0.6917517185211182,0.6581500768661499,0.5524610280990601,1.0261857509613037,0.9232019186019897,0.7961879968643188,0.41201090812683105,1.0961418151855469,0.34845292568206787,0.7974954843521118
18321.113124358926,0.4514528214931488,0.2332591712474823,-1.0900834798812866,0.9999896287918091,0.45612064003944397,0.2088664472103119,-1.0456095933914185,0.9999676942825317,0.4635423719882965,0.20810765027999878,-1.0456762313842773,0.9999603033065796,0.470537394285202,0.2073824107646942,-1.0457419157028198,0.9999560117721558,0.4245648682117462,0.2093554437160492,-1.0795822143554688,0.999976396560669,0.4076276421546936,0.20907697081565857,-1.079777717590332,0.999976634979248,0.3878210484981537,0.20909276604652405,-1.0798847675323486,0.9999749660491943,0.45997875928878784,0.21355023980140686,-0.7303820848464966,0.999930739402771,0.3346118628978729,0.21875,-0.8995202779769897,0.9999821186065674,0.4588487148284912,0.2538290321826935,-0.9668281674385071,0.9999936819076538,0.4246504008769989,0.25424742698669434,-1.0144224166870117,0.9999969005584717,0.5381109118461609,0.34683072566986084,-0.46761220693588257,0.9999583959579468,0.17702916264533997,0.36880970001220703,-0.7746388912200928,0.9999641180038452,0.5755265355110168,0.5085203051567078,-0.24191254377365112,0.9845016598701477,0.1808920055627823,0.5569514632225037,-0.7387804985046387,0.9943439960479736,0.6399408578872681,0.6416584849357605,-0.4188232719898224,0.9871914386749268,0.2291455715894699,0.7163910269737244,-0.8805257081985474,0.9680385589599609,0.6674240231513977,0.681090235710144,-0.5007206201553345,0.9720174670219421,0.24110600352287292,0.7568603157997131,-0.9726710915565491,0.9417451620101929,0.6524360179901123,0.680814802646637,-0.5929538011550903,0.9746723175048828,0.27473604679107666,0.7486231327056885,-1.053984522819519,0.9457557797431946,0.6360352039337158,0.672788679599762,-0.45997121930122375,0.9740923643112183,0.27687525749206543,0.7332461476325989,-0.9149459004402161,0.948362410068512,0.4885672628879547,0.6322481632232666,0.10796648263931274,0.9983481168746948,0.3118230700492859,0.6496582627296448,-0.1077047809958458,0.9989542961120605,0.4869846999645233,0.8468127250671387,0.3619903028011322,0.9479967355728149,0.3390654921531677,0.8731440305709839,0.0768628865480423,0.9764606952667236,0.49192312359809875,0.9645182490348816,1.0441521406173706,0.8490056395530701,0.3546680510044098,0.9942336678504944,0.6313501000404358,0.9069849848747253,0.46925172209739685,0.9766697883605957,1.0967203378677368,0.7979205846786499,0.3410402536392212,1.024592399597168,0.6727706789970398,0.6550842523574829,0.5554594397544861,1.0292956829071045,0.8783987760543823,0.8038149476051331,0.412942498922348,1.1004666090011597,0.3321944773197174,0.7940936088562012
18337.779791025594,0.4523697793483734,0.2329719066619873,-1.075897455215454,0.9999895095825195,0.45708927512168884,0.20876267552375793,-1.0277466773986816,0.999970555305481,0.46435877680778503,0.20813962817192078,-1.0278507471084595,0.9999645948410034,0.4711151719093323,0.20756372809410095,-1.02793288230896,0.9999608993530273,0.4257314205169678,0.20900219678878784,-1.0654247999191284,0.999976396560669,0.4087599217891693,0.20867186784744263,-1.0655626058578491,0.9999758005142212,0.38901543617248535,0.2086733877658844,-1.06566321849823,0.9999727010726929,0.4596206843852997,0.21409857273101807,-0.6974937915802002,0.9999463558197021,0.33494654297828674,0.21831512451171875,-0.8816478848457336,0.9999819993972778,0.45909222960472107,0.253923624753952,-0.9470128417015076,0.9999945163726807,0.4252842962741852,0.25442248582839966,-0.9990109801292419,0.9999969005584717,0.5359432101249695,0.34731799364089966,-0.42187824845314026,0.9999719858169556,0.1749083250761032,0.3687129318714142,-0.7538465857505798,0.9999580383300781,0.5773356556892395,0.5076613426208496,-0.1694801151752472,0.9862321019172668,0.17744998633861542,0.5576944351196289,-0.7122212648391724,0.9938388466835022,0.6421151161193848,0.6419185996055603,-0.35103747248649597,0.9901244044303894,0.22354748845100403,0.7114391326904297,-0.8649576902389526,0.9654207229614258,0.667015552520752,0.6835881471633911,-0.4341691732406616,0.9778392314910889,0.2368297278881073,0.7541942000389099,-0.9596855640411377,0.937670111656189,0.6502513289451599,0.6827365756034851,-0.5315902829170227,0.9800533652305603,0.27254718542099,0.7465997934341431,-1.0477584600448608,0.9418885111808777,0.6347652673721313,0.6742791533470154,-0.3940175473690033,0.9792055487632751,0.27485084533691406,0.7307820320129395,-0.9020256400108337,0.9441028833389282,0.48698198795318604,0.6323831677436829,0.11386222392320633,0.998699426651001,0.3088606595993042,0.6494811177253723,-0.11345276236534119,0.9990484118461609,0.48790204524993896,0.8484219312667847,0.3714028596878052,0.9495707750320435,0.33869436383247375,0.874870240688324,0.08617795258760452,0.9744330644607544,0.4893532395362854,0.9654524922370911,1.0940630435943604,0.834976077079773,0.3573743402957916,0.9975385665893555,0.6714414954185486,0.8995804190635681,0.46620073914527893,0.9764373898506165,1.1505780220031738,0.796782910823822,0.35083383321762085,1.0257235765457153,0.7161440253257751,0.6643254160881042,0.5536254644393921,1.0286756753921509,0.9265034198760986,0.7875951528549194,0.4208832383155823,1.0998351573944092,0.3675686717033386,0.7855721712112427
18354.446457692262,0.45315781235694885,0.23246672749519348,-1.1097393035888672,0.9999892711639404,0.4585336446762085,0.20826026797294617,-1.0597527027130127,0.9999709129333496,0.4657803475856781,0.20775872468948364,-1.0598739385604858,0.9999656677246094,0.47260358929634094,0.2073223888874054,-1.059962511062622,0.9999614953994751,0.426811158657074,0.2080141305923462,-1.0993047952651978,0.9999762773513794,0.409915030002594,0.20747852325439453,-1.0994415283203125,0.9999760389328003,0.3900495171546936,0.2073225975036621,-1.09955894947052,0.9999724626541138,0.46062174439430237,0.21407893300056458,-0.7186685800552368,0.9999490976333618,0.3353796601295471,0.2173265814781189,-0.9105880856513977,0.9999830722808838,0.45896971225738525,0.25348255038261414,-0.9766684174537659,0.9999947547912598,0.4253229796886444,0.2535332143306732,-1.0308881998062134,0.9999970197677612,0.5329247713088989,0.34642788767814636,-0.4265482425689697,0.9999732971191406,0.1734549105167389,0.36775344610214233,-0.7785269021987915,0.9999550580978394,0.5773915648460388,0.5066208243370056,-0.1656983196735382,0.9861045479774475,0.17639212310314178,0.5610002875328064,-0.7356257438659668,0.994422972202301,0.641071081161499,0.6418035626411438,-0.3644821047782898,0.9898465275764465,0.2233646810054779,0.715712308883667,-0.8967875242233276,0.9668002724647522,0.6662778854370117,0.6835166215896606,-0.4522116780281067,0.9772548675537109,0.2391391545534134,0.7568885087966919,-0.9948377013206482,0.9394838213920593,0.6483088731765747,0.6830524802207947,-0.5512508749961853,0.9796022176742554,0.27383384108543396,0.7482057213783264,-1.0855507850646973,0.9436901211738586,0.6323004961013794,0.6747890710830688,-0.4087856411933899,0.9788642525672913,0.2755720913410187,0.7324487566947937,-0.9345088005065918,0.9455203413963318,0.4854313135147095,0.6332760453224182,0.11763983219861984,0.9987480640411377,0.3094249963760376,0.6508892774581909,-0.11715247482061386,0.9990131855010986,0.4865373373031616,0.8484549522399902,0.36846375465393066,0.9435908794403076,0.3409181833267212,0.8770396709442139,0.08567193895578384,0.9705675840377808,0.4890439808368683,0.9640122056007385,1.1169815063476562,0.8072029948234558,0.35463252663612366,0.9933684468269348,0.6868963837623596,0.8776373863220215,0.4669835567474365,0.9749482274055481,1.175930380821228,0.7716972231864929,0.3488249182701111,0.9890376329421997,0.733566164970398,0.6262820959091187,0.5930816531181335,1.0406148433685303,0.9471741914749146,0.7496746778488159,0.41753530502319336,1.103002905845642,0.3775767982006073,0.7448981404304504
18371.11312435893,0.4523662328720093,0.2310473918914795,-1.048723578453064,0.99998939037323,0.4570215046405792,0.20618054270744324,-1.0049654245376587,0.9999666213989258,0.46459269523620605,0.20555821061134338,-1.005038857460022,0.9999594688415527,0.47183409333229065,0.20492404699325562,-1.005110740661621,0.9999551773071289,0.4250803589820862,0.20653855800628662,-1.0401782989501953,0.9999752044677734,0.4082947075366974,0.2063429057598114,-1.0403333902359009,0.999975323677063,0.3886037766933441,0.206628680229187,-1.0404428243637085,0.9999731779098511,0.45971354842185974,0.21176984906196594,-0.6976692080497742,0.9999361038208008,0.3348456025123596,0.217440664768219,-0.8707837462425232,0.9999821186065674,0.45949238538742065,0.25178173184394836,-0.9281314015388489,0.9999939203262329,0.4248642027378082,0.2520347833633423,-0.9769619107246399,0.9999969005584717,0.5387166738510132,0.34722772240638733,-0.43865513801574707,0.9999650716781616,0.17518830299377441,0.36663880944252014,-0.7617312669754028,0.9999666213989258,0.5810889601707458,0.5084822177886963,-0.20505690574645996,0.9846416115760803,0.17914853990077972,0.5568636655807495,-0.7291702628135681,0.9946050047874451,0.6408575773239136,0.6425958871841431,-0.3587576448917389,0.987993597984314,0.22512297332286835,0.7153001427650452,-0.8576382994651794,0.9690350294113159,0.6666390895843506,0.6822081208229065,-0.4377429783344269,0.9738104939460754,0.2407137155532837,0.7564743757247925,-0.9472845196723938,0.9437775015830994,0.6488904356956482,0.6814823746681213,-0.5272027254104614,0.9762489795684814,0.27424660325050354,0.7483909726142883,-1.0311235189437866,0.9474126696586609,0.6325429677963257,0.6734682321548462,-0.3982293903827667,0.9757527709007263,0.2761419415473938,0.7339269518852234,-0.8927881121635437,0.9495817422866821,0.4843579828739166,0.6307632327079773,0.11200394481420517,0.9986088871955872,0.30933019518852234,0.6472445130348206,-0.11170101165771484,0.9991130232810974,0.48825159668922424,0.8466835618019104,0.37751999497413635,0.9451591372489929,0.33943936228752136,0.8691579699516296,0.08658024668693542,0.9758731126785278,0.48472872376441956,0.9653021693229675,1.0565298795700073,0.8291773200035095,0.3594490587711334,0.9986938238143921,0.6299934387207031,0.8971918225288391,0.4592047333717346,0.9791238307952881,1.1097127199172974,0.7844153046607971,0.3384239673614502,1.025268316268921,0.6713975071907043,0.6529401540756226,0.5502890944480896,1.0264796018600464,0.9038680195808411,0.7826058864593506,0.41766485571861267,1.0987517833709717,0.3418404757976532,0.777847409248352
18387.779791025598,0.4502248167991638,0.23201733827590942,-1.100302815437317,0.9999864101409912,0.45519930124282837,0.20715638995170593,-1.0545650720596313,0.9999560117721558,0.4630480408668518,0.20643934607505798,-1.054652214050293,0.9999463558197021,0.47056397795677185,0.2056988775730133,-1.0547256469726562,0.9999399185180664,0.4229460656642914,0.2081669569015503,-1.0885264873504639,0.9999678134918213,0.40559303760528564,0.2081875205039978,-1.088711142539978,0.9999686479568481,0.38592174649238586,0.20851027965545654,-1.0888336896896362,0.9999662637710571,0.46109309792518616,0.2125612497329712,-0.7342134714126587,0.9999054670333862,0.3328794836997986,0.21868568658828735,-0.9023128151893616,0.9999771118164062,0.458296537399292,0.2530846893787384,-0.9752260446548462,0.9999912977218628,0.4232790172100067,0.25365471839904785,-1.0225985050201416,0.9999958276748657,0.5353401303291321,0.34650173783302307,-0.45356854796409607,0.9999525547027588,0.1787959486246109,0.36733049154281616,-0.7871238589286804,0.9999631643295288,0.5769298672676086,0.5088215470314026,-0.2222251147031784,0.9802974462509155,0.18020063638687134,0.5560576915740967,-0.7586267590522766,0.9944644570350647,0.6407856941223145,0.6410908102989197,-0.39812543988227844,0.983984112739563,0.2286897897720337,0.718669593334198,-0.9042632579803467,0.9665900468826294,0.6676515340805054,0.6803162693977356,-0.47878241539001465,0.9660237431526184,0.2430269867181778,0.762016773223877,-0.9991104006767273,0.9387924671173096,0.6512994766235352,0.6800578236579895,-0.5720756649971008,0.9691070318222046,0.2762144207954407,0.7526915073394775,-1.0818361043930054,0.9426727294921875,0.6344956159591675,0.6724742650985718,-0.4399276077747345,0.968586266040802,0.2777717113494873,0.7375024557113647,-0.9393600821495056,0.9450391530990601,0.4860818386077881,0.6345093250274658,0.11511259526014328,0.9985098242759705,0.3103887438774109,0.65084308385849,-0.11481370776891708,0.9990774393081665,0.4875776469707489,0.8491254448890686,0.39280903339385986,0.9412261843681335,0.33754557371139526,0.8724681735038757,0.07863552868366241,0.9771799445152283,0.488096684217453,0.965863049030304,1.0776230096817017,0.8318876624107361,0.35274338722229004,0.9922616481781006,0.6237204670906067,0.9012055993080139,0.46191921830177307,0.9787632822990417,1.130039930343628,0.7824242115020752,0.3311387002468109,1.0256270170211792,0.6641966700553894,0.6446743011474609,0.5560503005981445,1.0280187129974365,0.9123640656471252,0.7843112945556641,0.4100850522518158,1.1007633209228516,0.32231926918029785,0.7865703701972961
18404.446457692266,0.4519996643066406,0.2313644289970398,-1.061376929283142,0.999987006187439,0.45688381791114807,0.20576989650726318,-1.0181456804275513,0.9999579191207886,0.4647696614265442,0.20519879460334778,-1.0182169675827026,0.9999498128890991,0.4722939133644104,0.20452439785003662,-1.0182867050170898,0.9999431371688843,0.4248715341091156,0.20744803547859192,-1.052166223526001,0.999969482421875,0.40770313143730164,0.20781439542770386,-1.0523476600646973,0.9999704360961914,0.3880288600921631,0.20836004614830017,-1.0524696111679077,0.9999672174453735,0.46165236830711365,0.21209099888801575,-0.7126594185829163,0.9999195337295532,0.335127055644989,0.21988052129745483,-0.8805699348449707,0.9999780654907227,0.4609149694442749,0.25293052196502686,-0.9416153430938721,0.9999921321868896,0.4261467158794403,0.2536935806274414,-0.9889022707939148,0.9999960660934448,0.5402977466583252,0.3469868004322052,-0.4559246003627777,0.9999566078186035,0.17828379571437836,0.36937859654426575,-0.7678713202476501,0.9999583959579468,0.5781283378601074,0.508811891078949,-0.22448162734508514,0.9840453863143921,0.17721852660179138,0.5580520033836365,-0.7372524738311768,0.9939572811126709,0.6409186720848083,0.6409661769866943,-0.37476903200149536,0.9868348240852356,0.22729231417179108,0.7162114381790161,-0.8683765530586243,0.963007390499115,0.6664562821388245,0.6807854175567627,-0.4525855779647827,0.9713374376296997,0.2433098554611206,0.7588167190551758,-0.9570073485374451,0.9340904951095581,0.6485149264335632,0.6801378130912781,-0.5405912399291992,0.9738821387290955,0.2758581042289734,0.7500846982002258,-1.0409988164901733,0.9382144212722778,0.6323676109313965,0.6723759770393372,-0.4133704900741577,0.9733937382698059,0.2771066427230835,0.7347313761711121,-0.9036892056465149,0.9415484070777893,0.488176554441452,0.6322665810585022,0.10569625347852707,0.9983819723129272,0.3095325231552124,0.6481510400772095,-0.10539096593856812,0.9989921450614929,0.4909088611602783,0.8420537114143372,0.3645521104335785,0.9436811208724976,0.3390212059020996,0.8711606860160828,0.08424147963523865,0.9740023612976074,0.486487478017807,0.9606532454490662,1.0393155813217163,0.8244220614433289,0.35373273491859436,0.9932979941368103,0.6225577592849731,0.8921508193016052,0.45919954776763916,0.9758843183517456,1.0915552377700806,0.7761557698249817,0.3344540596008301,1.024410367012024,0.6625711917877197,0.6391396522521973,0.5513185262680054,1.0255861282348633,0.8838772177696228,0.7723750472068787,0.4060388505458832,1.0969817638397217,0.33034953474998474,0.7667341232299805
18421.113124358933,0.44790899753570557,0.23268291354179382,-1.1151684522628784,0.9999876022338867,0.45247262716293335,0.20826676487922668,-1.0669256448745728,0.9999628067016602,0.4604513347148895,0.20739737153053284,-1.0670130252838135,0.999953031539917,0.46785107254981995,0.20658567547798157,-1.0670852661132812,0.9999485015869141,0.42075636982917786,0.2095656394958496,-1.097967267036438,0.9999712705612183,0.40354326367378235,0.2095201313495636,-1.0981305837631226,0.999970555305481,0.38514086604118347,0.20968931913375854,-1.0982474088668823,0.9999693632125854,0.45923709869384766,0.21388855576515198,-0.7366428971290588,0.9999151229858398,0.33405086398124695,0.21951696276664734,-0.8919579386711121,0.999976396560669,0.4570109248161316,0.2539927363395691,-0.9876087307929993,0.9999922513961792,0.42184948921203613,0.2543622851371765,-1.0311647653579712,0.9999959468841553,0.5375455617904663,0.3491009473800659,-0.4565650522708893,0.9999545812606812,0.18022558093070984,0.3680848181247711,-0.7673223614692688,0.9999558925628662,0.5761034488677979,0.508152425289154,-0.21980226039886475,0.9820511341094971,0.1806190460920334,0.5569316148757935,-0.7385928630828857,0.993920087814331,0.6411986351013184,0.6396186351776123,-0.4060969948768616,0.9866403937339783,0.23054873943328857,0.7150382995605469,-0.9030707478523254,0.9675044417381287,0.6676521897315979,0.6811133027076721,-0.488135427236557,0.9714716076850891,0.24153071641921997,0.75678551197052,-1.0023281574249268,0.9394591450691223,0.6474629640579224,0.6805131435394287,-0.5842676758766174,0.9741784930229187,0.27781909704208374,0.7484603524208069,-1.0822798013687134,0.9434142112731934,0.6300883293151855,0.6726878881454468,-0.44871050119400024,0.9732495546340942,0.2808045446872711,0.7337623238563538,-0.9377437233924866,0.9458786249160767,0.4858505427837372,0.6358217000961304,0.11156716197729111,0.9988179802894592,0.31061676144599915,0.6534588932991028,-0.11133379489183426,0.9991658926010132,0.4858284592628479,0.846435546875,0.38708391785621643,0.9500800967216492,0.3406934440135956,0.8762350678443909,0.08982598781585693,0.9786132574081421,0.4913715422153473,0.960883378982544,1.1152068376541138,0.8759832978248596,0.3553694486618042,0.9908135533332825,0.7089575529098511,0.922625720500946,0.4678531587123871,0.9747917056083679,1.1714783906936646,0.8316681981086731,0.3446986973285675,1.0175198316574097,0.7571136951446533,0.6984695792198181,0.5518221855163574,1.0304142236709595,0.9361656308174133,0.8379948735237122,0.40567171573638916,1.09425687789917,0.4077540934085846,0.8320190906524658
18437.7797910256,0.44828224182128906,0.23142433166503906,-1.0881212949752808,0.9999877214431763,0.4531306326389313,0.20710715651512146,-1.0398679971694946,0.9999629259109497,0.461128830909729,0.20631566643714905,-1.0399837493896484,0.9999549388885498,0.4685191512107849,0.20552471280097961,-1.0400536060333252,0.9999500513076782,0.42090097069740295,0.20839998126029968,-1.0723707675933838,0.9999704360961914,0.4038242697715759,0.2084803283214569,-1.0725611448287964,0.9999704360961914,0.38522371649742126,0.20884013175964355,-1.0726983547210693,0.9999680519104004,0.46099206805229187,0.21286708116531372,-0.7125122547149658,0.9999245405197144,0.33448314666748047,0.2189820110797882,-0.8735592365264893,0.9999779462814331,0.45775920152664185,0.25225692987442017,-0.9615859985351562,0.9999927282333374,0.42202016711235046,0.2529764473438263,-1.006867527961731,0.9999960660934448,0.5411611199378967,0.34817633032798767,-0.432028204202652,0.9999595880508423,0.18210968375205994,0.36791521310806274,-0.754826009273529,0.9999581575393677,0.578214704990387,0.509250819683075,-0.20007355511188507,0.9832104444503784,0.182419091463089,0.5581088662147522,-0.7227782011032104,0.9944789409637451,0.6375811696052551,0.6405439376831055,-0.3908166289329529,0.9871806502342224,0.23250938951969147,0.7156339883804321,-0.8863949179649353,0.96904057264328,0.6649249792098999,0.6809535622596741,-0.4738132655620575,0.9719316363334656,0.24449780583381653,0.7587778568267822,-0.982621431350708,0.9420478343963623,0.6459082961082458,0.6808526515960693,-0.5704907774925232,0.9746242165565491,0.2806406021118164,0.751380980014801,-1.0666298866271973,0.9459834098815918,0.627777636051178,0.6733633279800415,-0.43388456106185913,0.9741886854171753,0.2835914194583893,0.7363337278366089,-0.9220948219299316,0.9482744336128235,0.484185129404068,0.6383436918258667,0.11100167781114578,0.9987898468971252,0.3089321255683899,0.65422123670578,-0.11068478226661682,0.9991239905357361,0.48558756709098816,0.8583630919456482,0.3330295979976654,0.9390987157821655,0.3374539017677307,0.8804216384887695,0.06892616301774979,0.9729084372520447,0.48686540126800537,0.9708766341209412,1.0400136709213257,0.8196936845779419,0.3538358211517334,0.9967420697212219,0.6364324688911438,0.892476499080658,0.45999372005462646,0.9826261401176453,1.0940606594085693,0.7741158604621887,0.33599939942359924,1.029667615890503,0.6790770888328552,0.6268331408500671,0.5543820261955261,1.0357604026794434,0.8670140504837036,0.768491268157959,0.40390270948410034,1.1059885025024414,0.33095255494117737,0.7782804369926453
18454.44645769227,0.4462476074695587,0.23151430487632751,-1.1416083574295044,0.9999905824661255,0.45191362500190735,0.20668262243270874,-1.0961920022964478,0.9999698400497437,0.4603332281112671,0.20586249232292175,-1.0962624549865723,0.999962568283081,0.4683656096458435,0.2050197422504425,-1.0963300466537476,0.9999585151672363,0.4186386168003082,0.208615243434906,-1.126686930656433,0.9999773502349854,0.4007737338542938,0.208902508020401,-1.1268664598464966,0.9999772310256958,0.38241755962371826,0.2093949317932129,-1.1269890069961548,0.9999760389328003,0.46330562233924866,0.21255448460578918,-0.771160364151001,0.9999303817749023,0.33228766918182373,0.21960684657096863,-0.9238878488540649,0.9999827146530151,0.4570368230342865,0.2529028058052063,-1.0147552490234375,0.9999935626983643,0.4196052849292755,0.25344717502593994,-1.0576019287109375,0.9999969005584717,0.5408324003219604,0.3469039499759674,-0.4787083566188812,0.9999600648880005,0.1811642050743103,0.36688414216041565,-0.8050867319107056,0.9999711513519287,0.5755343437194824,0.509097695350647,-0.2567196190357208,0.9800239205360413,0.17947286367416382,0.5555925369262695,-0.7855076789855957,0.994721531867981,0.6398659944534302,0.6435855031013489,-0.450676828622818,0.9846620559692383,0.22939017415046692,0.7174580097198486,-0.945595383644104,0.9692450761795044,0.665658712387085,0.6832942962646484,-0.5345916748046875,0.9680194854736328,0.2466377168893814,0.7604840993881226,-1.0443918704986572,0.9424593448638916,0.6487849354743958,0.6827865242958069,-0.6314713358879089,0.970878541469574,0.2795114517211914,0.751683235168457,-1.1253825426101685,0.945971667766571,0.632317066192627,0.6750479936599731,-0.4942258894443512,0.9702550768852234,0.28039929270744324,0.736263632774353,-0.9804064035415649,0.948305070400238,0.4856899082660675,0.6322928071022034,0.11729063838720322,0.9987362027168274,0.3133724331855774,0.6493573784828186,-0.11701323091983795,0.9992944002151489,0.48677027225494385,0.8432499170303345,0.40153998136520386,0.946402370929718,0.3401864469051361,0.8721277117729187,0.05854491889476776,0.9824020266532898,0.4876291751861572,0.9626004695892334,1.0701321363449097,0.868830144405365,0.35402658581733704,0.9929720163345337,0.5837276577949524,0.9272158741950989,0.46180805563926697,0.9780572056770325,1.1198928356170654,0.8191768527030945,0.33224010467529297,1.0231359004974365,0.6215026378631592,0.693173348903656,0.5622861981391907,1.0269922018051147,0.8942798972129822,0.824673593044281,0.4048435688018799,1.0987215042114258,0.27368080615997314,0.83225417137146
18471.113124358937,0.4485023319721222,0.23131191730499268,-1.0983731746673584,0.9999877214431763,0.4534018635749817,0.2060144543647766,-1.055444598197937,0.9999608993530273,0.46189045906066895,0.2051834762096405,-1.055514931678772,0.9999517202377319,0.47008809447288513,0.2042677402496338,-1.05560302734375,0.9999469518661499,0.4196050465106964,0.20850270986557007,-1.0859549045562744,0.9999710321426392,0.4016161262989044,0.20920270681381226,-1.086138367652893,0.9999711513519287,0.38260015845298767,0.20997434854507446,-1.086264967918396,0.9999697208404541,0.4626276195049286,0.21187186241149902,-0.7459374070167542,0.9999148845672607,0.3312446177005768,0.2214612066745758,-0.8983451724052429,0.9999786615371704,0.4594174027442932,0.25283706188201904,-0.9770476818084717,0.9999918937683105,0.4232555627822876,0.25373151898384094,-1.0197479724884033,0.9999960660934448,0.5398610234260559,0.3474257290363312,-0.472663015127182,0.9999524354934692,0.17969132959842682,0.3698703944683075,-0.7876761555671692,0.9999632835388184,0.5753219127655029,0.5093626379966736,-0.24763698875904083,0.9791017770767212,0.18207098543643951,0.5592899322509766,-0.765961766242981,0.9936158657073975,0.6395087242126465,0.6415146589279175,-0.4102873206138611,0.9839594960212708,0.228490948677063,0.71864253282547,-0.9069035053253174,0.9641550779342651,0.6673593521118164,0.6820478439331055,-0.4883257746696472,0.9670351147651672,0.24416403472423553,0.7609619498252869,-1.000093698501587,0.9352549910545349,0.6501910090446472,0.6817389130592346,-0.5799962282180786,0.9699666500091553,0.27795159816741943,0.7517908811569214,-1.0801551342010498,0.9390303492546082,0.6331411600112915,0.6738794445991516,-0.4509235620498657,0.969537615776062,0.27932208776474,0.7366184592247009,-0.9412519335746765,0.9425361156463623,0.48518094420433044,0.6344218254089355,0.1117757260799408,0.9985699653625488,0.31148573756217957,0.6517888903617859,-0.11155333369970322,0.9990973472595215,0.4860016107559204,0.8478994965553284,0.3937999904155731,0.9415232539176941,0.3361932635307312,0.8706158399581909,0.09389197826385498,0.9778447151184082,0.48673704266548157,0.965487539768219,1.0338386297225952,0.8551409840583801,0.3496660590171814,0.9924200177192688,0.6356298327445984,0.9099842309951782,0.4595738351345062,0.979692816734314,1.0816657543182373,0.8054771423339844,0.3324269652366638,1.021528720855713,0.6760293841362,0.6697136759757996,0.5634526610374451,1.026200771331787,0.8622350096702576,0.8085189461708069,0.4048590064048767,1.0962038040161133,0.34294942021369934,0.8023461699485779
18487.779791025605,0.4526781737804413,0.22959735989570618,-1.1096055507659912,0.9999887943267822,0.45623257756233215,0.20437589287757874,-1.0644078254699707,0.9999645948410034,0.46362540125846863,0.20361432433128357,-1.0644711256027222,0.9999570846557617,0.470698744058609,0.20288234949111938,-1.0645331144332886,0.9999527931213379,0.42455601692199707,0.20596128702163696,-1.0975784063339233,0.9999735355377197,0.40754151344299316,0.2062707543373108,-1.097768783569336,0.9999737739562988,0.3882776200771332,0.20694059133529663,-1.0978834629058838,0.9999717473983765,0.4596766531467438,0.21055802702903748,-0.7465968728065491,0.9999227523803711,0.3357559144496918,0.21779534220695496,-0.9121554493904114,0.9999794960021973,0.46061837673187256,0.2509349584579468,-0.9857423901557922,0.9999927282333374,0.42704126238822937,0.2522028386592865,-1.0323141813278198,0.9999963045120239,0.5401290655136108,0.3467690944671631,-0.47074267268180847,0.9999567270278931,0.17883718013763428,0.3681570291519165,-0.7964126467704773,0.999964714050293,0.5760325193405151,0.5087354183197021,-0.2401105761528015,0.9830068349838257,0.18158577382564545,0.5543246269226074,-0.7685205340385437,0.9945880174636841,0.6391170024871826,0.6427594423294067,-0.4162021279335022,0.9875056743621826,0.23011912405490875,0.7150781154632568,-0.9120650291442871,0.9692191481590271,0.6657909750938416,0.6824732422828674,-0.4981721043586731,0.9730599522590637,0.24224309623241425,0.7580100297927856,-1.0075645446777344,0.9432811737060547,0.6480367183685303,0.6821773052215576,-0.5916495323181152,0.9754691123962402,0.27722594141960144,0.748869776725769,-1.0893627405166626,0.9466278553009033,0.6306782960891724,0.6745138168334961,-0.4577397406101227,0.9746944308280945,0.2794036269187927,0.7330659031867981,-0.9469653964042664,0.9487619996070862,0.48801079392433167,0.6338351368904114,0.11675315350294113,0.9985829591751099,0.3124980032444,0.6509235501289368,-0.11652810871601105,0.9991375207901001,0.48599299788475037,0.846461296081543,0.4236982762813568,0.9460672736167908,0.3381158411502838,0.8724783658981323,0.09180223196744919,0.9805161952972412,0.48957788944244385,0.9638568162918091,1.0939768552780151,0.8596609234809875,0.3536473214626312,0.9936075806617737,0.6338710188865662,0.9169251322746277,0.46475735306739807,0.9777740240097046,1.1449916362762451,0.8098074793815613,0.3322819471359253,1.0253106355667114,0.6741207242012024,0.671453058719635,0.5591674447059631,1.027419090270996,0.9265608787536621,0.8207152485847473,0.4105844497680664,1.101414680480957,0.33198490738868713,0.8155633211135864
18504.446457692273,0.45019015669822693,0.2311214804649353,-1.117322325706482,0.9999873638153076,0.45450711250305176,0.20609530806541443,-1.0747417211532593,0.9999606609344482,0.46253710985183716,0.2050294280052185,-1.0748064517974854,0.9999516010284424,0.469783216714859,0.2041144073009491,-1.0748851299285889,0.9999464750289917,0.4225853979587555,0.2075541615486145,-1.1064038276672363,0.9999713897705078,0.40460407733917236,0.20749130845069885,-1.1066060066223145,0.9999715089797974,0.3857026696205139,0.20794183015823364,-1.1067371368408203,0.9999698400497437,0.46047115325927734,0.21157944202423096,-0.7589725852012634,0.9999184608459473,0.33280813694000244,0.21896576881408691,-0.9163455963134766,0.9999788999557495,0.4587946832180023,0.25240007042884827,-0.9928488731384277,0.9999921321868896,0.4239461421966553,0.2541966140270233,-1.03706693649292,0.9999960660934448,0.5388357043266296,0.3470273017883301,-0.48231270909309387,0.9999533891677856,0.17364601790905,0.36892178654670715,-0.7907600998878479,0.9999641180038452,0.5754663944244385,0.509803831577301,-0.2374212145805359,0.9809100031852722,0.181429922580719,0.555550754070282,-0.7551541924476624,0.9939471483230591,0.6363838911056519,0.6426122188568115,-0.39685991406440735,0.9841784834861755,0.23095545172691345,0.7139154076576233,-0.8979130983352661,0.9641552567481995,0.664915919303894,0.6827330589294434,-0.4750730097293854,0.9670097827911377,0.24242140352725983,0.7567319273948669,-0.9894742369651794,0.9352193474769592,0.6485457420349121,0.682086169719696,-0.5687751770019531,0.9699757099151611,0.2745107114315033,0.7496912479400635,-1.0739227533340454,0.9393444657325745,0.6312192678451538,0.6742082834243774,-0.4380745589733124,0.9696966409683228,0.27708154916763306,0.7338945865631104,-0.9336857199668884,0.9427889585494995,0.48653727769851685,0.6328274011611938,0.10669589042663574,0.9984972476959229,0.30874690413475037,0.6490812301635742,-0.10641587525606155,0.9990824460983276,0.4899846613407135,0.8470751643180847,0.36763688921928406,0.9487911462783813,0.3370248079299927,0.8736981749534607,0.09236007928848267,0.977206826210022,0.48819562792778015,0.96700519323349,1.0554051399230957,0.851917564868927,0.35500210523605347,0.9941466450691223,0.6598327159881592,0.9097148776054382,0.46315136551856995,0.9795892834663391,1.1084697246551514,0.8044848442077637,0.341851145029068,1.024348497390747,0.7028050422668457,0.674941897392273,0.5563403964042664,1.0290347337722778,0.8869612812995911,0.8055405616760254,0.40766867995262146,1.0996253490447998,0.36181536316871643,0.8009820580482483
18521.11312435894,0.4481685161590576,0.23298433423042297,-1.1711318492889404,0.9999873638153076,0.4535232484340668,0.20811113715171814,-1.1257025003433228,0.999961256980896,0.46163976192474365,0.20705178380012512,-1.1257765293121338,0.9999524354934692,0.4689728617668152,0.2061261534690857,-1.1258723735809326,0.9999479055404663,0.42193737626075745,0.2102411687374115,-1.1557434797286987,0.9999706745147705,0.40427419543266296,0.2104407548904419,-1.1559215784072876,0.9999701976776123,0.3857114613056183,0.21089917421340942,-1.1560535430908203,0.999968409538269,0.46146467328071594,0.21372297406196594,-0.7949235439300537,0.9999172687530518,0.3343711197376251,0.22125446796417236,-0.9448180794715881,0.9999772310256958,0.4572707712650299,0.2542550563812256,-1.0415102243423462,0.9999920129776001,0.4223015010356903,0.255754679441452,-1.0835782289505005,0.9999959468841553,0.5383522510528564,0.3473915457725525,-0.4963712692260742,0.9999529123306274,0.18077081441879272,0.3682117760181427,-0.8115845918655396,0.9999624490737915,0.5745241641998291,0.5104880928993225,-0.2639448344707489,0.9801838994026184,0.18252235651016235,0.5558998584747314,-0.7793697714805603,0.9935943484306335,0.6370300650596619,0.6416105628013611,-0.45944875478744507,0.983814537525177,0.2301272302865982,0.7136408686637878,-0.942934513092041,0.9634509086608887,0.6643244028091431,0.6824424862861633,-0.5444520115852356,0.9664099216461182,0.24204352498054504,0.7546551823616028,-1.0426734685897827,0.9330652356147766,0.6482245922088623,0.6826478242874146,-0.6419411301612854,0.9693770408630371,0.2768213748931885,0.746880829334259,-1.1258697509765625,0.9371827244758606,0.6312296390533447,0.6749420166015625,-0.5031311511993408,0.9686251878738403,0.2792624533176422,0.7315908074378967,-0.978966474533081,0.9402974843978882,0.4873129725456238,0.6325002908706665,0.11577530950307846,0.998344898223877,0.31289002299308777,0.6496744751930237,-0.11546974629163742,0.9990320205688477,0.48869889974594116,0.8419895768165588,0.3946203887462616,0.9457231760025024,0.34022456407546997,0.8719554543495178,0.07927511632442474,0.9799154996871948,0.4876795709133148,0.9608592987060547,1.0984680652618408,0.8475461006164551,0.35486534237861633,0.9912279844284058,0.6396762132644653,0.915835976600647,0.4632647633552551,0.9770535826683044,1.1519414186477661,0.7951650023460388,0.337809294462204,1.0247349739074707,0.681037187576294,0.6732043027877808,0.5607113838195801,1.023843765258789,0.9213311076164246,0.8000333905220032,0.4097053110599518,1.1003694534301758,0.3259138762950897,0.8096981644630432
18537.77979102561,0.450217604637146,0.22993910312652588,-1.119527816772461,0.9999890327453613,0.45466509461402893,0.2046920359134674,-1.0758545398712158,0.9999620914459229,0.4626772403717041,0.20391342043876648,-1.0759015083312988,0.9999535083770752,0.46999990940093994,0.20315784215927124,-1.0759661197662354,0.9999468326568604,0.422234445810318,0.20650631189346313,-1.1061146259307861,0.9999737739562988,0.4040769934654236,0.20687511563301086,-1.1063233613967896,0.9999748468399048,0.38542330265045166,0.20748504996299744,-1.1064643859863281,0.9999734163284302,0.46123790740966797,0.2113628387451172,-0.7635395526885986,0.9999141693115234,0.33456552028656006,0.21876433491706848,-0.91522616147995,0.9999814033508301,0.4591692388057709,0.2512246370315552,-0.9977415800094604,0.9999923706054688,0.42385777831077576,0.2523590624332428,-1.0403156280517578,0.999996542930603,0.5397590398788452,0.3474385142326355,-0.48429548740386963,0.9999440908432007,0.17965847253799438,0.3712337613105774,-0.8068862557411194,0.9999717473983765,0.5773299932479858,0.5096874237060547,-0.24896952509880066,0.9768274426460266,0.1829475313425064,0.5592436194419861,-0.7846636176109314,0.994559109210968,0.6380351781845093,0.6434907913208008,-0.4052577614784241,0.9815670251846313,0.2296777218580246,0.7176946997642517,-0.927014172077179,0.96885746717453,0.664311945438385,0.6827682852745056,-0.4828175902366638,0.9628691077232361,0.24120000004768372,0.7606514692306519,-1.0207579135894775,0.9428463578224182,0.6485368013381958,0.6820440292358398,-0.5743595361709595,0.9659842252731323,0.2760523557662964,0.7523621320724487,-1.1018810272216797,0.9462182521820068,0.6320177912712097,0.6739978194236755,-0.44583606719970703,0.9653328061103821,0.27905383706092834,0.7377607822418213,-0.9617320895195007,0.9484219551086426,0.487739622592926,0.6343350410461426,0.11451167613267899,0.9984679818153381,0.3139389753341675,0.6528418660163879,-0.11430643498897552,0.9992414712905884,0.48825350403785706,0.8439722657203674,0.4168183207511902,0.9487689733505249,0.3377591669559479,0.8703566789627075,0.07923540472984314,0.982362687587738,0.487023264169693,0.9610219597816467,1.1033490896224976,0.866428017616272,0.3539269268512726,0.9944688677787781,0.613676905632019,0.9248599410057068,0.4584074914455414,0.9775059223175049,1.155982494354248,0.8148432374000549,0.32915136218070984,1.0256191492080688,0.6527948975563049,0.6907066106796265,0.5616977214813232,1.0234912633895874,0.9426989555358887,0.8250593543052673,0.4056288003921509,1.1007323265075684,0.3139873147010803,0.827806293964386
18554.446457692276,0.4488219618797302,0.22997033596038818,-1.1065137386322021,0.999990701675415,0.45375216007232666,0.20485690236091614,-1.0637805461883545,0.9999675750732422,0.4618714451789856,0.2040325105190277,-1.0638256072998047,0.9999607801437378,0.4693274199962616,0.20325636863708496,-1.0638922452926636,0.9999550580978394,0.42118313908576965,0.20696863532066345,-1.0942485332489014,0.9999778270721436,0.4030373990535736,0.20740744471549988,-1.0944689512252808,0.9999788999557495,0.3845258355140686,0.20804080367088318,-1.0946029424667358,0.9999774694442749,0.46176743507385254,0.2117273509502411,-0.7569078207015991,0.9999287128448486,0.334401935338974,0.2190767228603363,-0.9090577363967896,0.9999841451644897,0.4583817422389984,0.2514849305152893,-0.9866365194320679,0.9999934434890747,0.4227222204208374,0.25263312458992004,-1.0294060707092285,0.9999970197677612,0.541229248046875,0.3477054834365845,-0.4836518168449402,0.9999476671218872,0.18099677562713623,0.37113603949546814,-0.8037367463111877,0.9999736547470093,0.5778592824935913,0.5091087818145752,-0.2523244619369507,0.9778307676315308,0.18378610908985138,0.5577681064605713,-0.7790168523788452,0.9947951436042786,0.6366513967514038,0.6419997811317444,-0.39805132150650024,0.9811297059059143,0.22609446942806244,0.7178831100463867,-0.9107822775840759,0.9685996770858765,0.663919985294342,0.6811158061027527,-0.4733995199203491,0.9614859223365784,0.24127890169620514,0.7602157592773438,-1.0005985498428345,0.9421343803405762,0.6480664610862732,0.6806120872497559,-0.5623291730880737,0.9646573066711426,0.27486932277679443,0.7508169412612915,-1.0818753242492676,0.9456366896629333,0.6314518451690674,0.6727691888809204,-0.43725356459617615,0.9642353057861328,0.2764959931373596,0.7365874648094177,-0.9452369809150696,0.9478433728218079,0.4863851070404053,0.632837176322937,0.11199065297842026,0.9983946681022644,0.31216704845428467,0.6501384377479553,-0.1118030771613121,0.9992550015449524,0.48897069692611694,0.8421263694763184,0.40571221709251404,0.9514144659042358,0.3375977575778961,0.8699667453765869,0.05815837159752846,0.9836151003837585,0.48613858222961426,0.9610472321510315,1.0769394636154175,0.8694480061531067,0.3547413945198059,0.996833860874176,0.5506154894828796,0.9288238883018494,0.45766639709472656,0.9776082634925842,1.1281143426895142,0.8134418725967407,0.33016437292099,1.0292785167694092,0.5851727724075317,0.6888734698295593,0.5605838298797607,1.0241953134536743,0.9200637936592102,0.8273493647575378,0.4084587097167969,1.1038546562194824,0.24617302417755127,0.8347955942153931
18571.113124358944,0.4490170180797577,0.2315974235534668,-1.1187701225280762,0.9999884366989136,0.453993558883667,0.20691725611686707,-1.074792504310608,0.999961256980896,0.46195676922798157,0.20599883794784546,-1.0748478174209595,0.9999523162841797,0.4691424071788788,0.20518910884857178,-1.0749191045761108,0.999945878982544,0.4219028055667877,0.2085457146167755,-1.105966567993164,0.9999734163284302,0.40427064895629883,0.208598792552948,-1.106207013130188,0.999974250793457,0.38594257831573486,0.208950936794281,-1.1063600778579712,0.9999730587005615,0.4606541097164154,0.21323701739311218,-0.7632792592048645,0.9999150037765503,0.3353709280490875,0.21920984983444214,-0.919082522392273,0.9999810457229614,0.4575202763080597,0.2526610195636749,-0.9975835680961609,0.9999922513961792,0.4225988984107971,0.25365084409713745,-1.041390299797058,0.999996542930603,0.5386130809783936,0.3481757342815399,-0.4892091155052185,0.9999383687973022,0.18035198748111725,0.3712330758571625,-0.8083243370056152,0.9999668598175049,0.5771864056587219,0.510540783405304,-0.25897133350372314,0.9778514504432678,0.18305960297584534,0.5575247406959534,-0.7864159941673279,0.9946805834770203,0.6346966028213501,0.6430115699768066,-0.4109455645084381,0.9812854528427124,0.22967471182346344,0.7177466154098511,-0.9242852926254272,0.9680178165435791,0.6614331007003784,0.6828118562698364,-0.48677054047584534,0.9614081382751465,0.23942792415618896,0.7600665092468262,-1.0159664154052734,0.9401793479919434,0.644844651222229,0.6825973987579346,-0.5784152150154114,0.9646517634391785,0.27446040511131287,0.7536625266075134,-1.0950796604156494,0.9437528848648071,0.6281110644340515,0.6744928359985352,-0.45134714245796204,0.9641028642654419,0.2770840525627136,0.7399106025695801,-0.9580289721488953,0.9461691379547119,0.48670095205307007,0.6325734257698059,0.10940621793270111,0.9982295632362366,0.3138507604598999,0.6502141952514648,-0.10918252170085907,0.9991158843040466,0.4885411560535431,0.8456622958183289,0.3698558509349823,0.947394847869873,0.33861884474754333,0.8730963468551636,0.05524738132953644,0.9799239039421082,0.48875880241394043,0.9651647210121155,1.04610276222229,0.8531769514083862,0.35353073477745056,0.9966438412666321,0.5746121406555176,0.9193137288093567,0.46208566427230835,0.9786509275436401,1.097086787223816,0.7975567579269409,0.3338993191719055,1.03061842918396,0.6116349697113037,0.6671262383460999,0.553779661655426,1.0292494297027588,0.8794772624969482,0.8068865537643433,0.4004613161087036,1.1061251163482666,0.2661939263343811,0.8171707987785339
18587.779791025612,0.4482325613498688,0.2336502969264984,-1.1048251390457153,0.9999895095825195,0.45348358154296875,0.20846906304359436,-1.0615402460098267,0.9999654293060303,0.4614158570766449,0.2074960470199585,-1.061591625213623,0.9999569654464722,0.46861398220062256,0.2066076099872589,-1.061660885810852,0.9999526739120483,0.42184382677078247,0.21039730310440063,-1.091448187828064,0.9999748468399048,0.4042566418647766,0.2104509472846985,-1.0916240215301514,0.9999749660491943,0.3856091797351837,0.21058669686317444,-1.091754674911499,0.9999737739562988,0.4603270888328552,0.2142041027545929,-0.7514470219612122,0.9999203681945801,0.33437293767929077,0.2202593982219696,-0.9021384716033936,0.9999810457229614,0.4572153687477112,0.25496187806129456,-0.9836581349372864,0.9999929666519165,0.4225618541240692,0.25600308179855347,-1.0259208679199219,0.9999966621398926,0.5386434197425842,0.3474053144454956,-0.47170329093933105,0.9999532699584961,0.18040962517261505,0.3674129545688629,-0.7965215444564819,0.9999716281890869,0.5727565884590149,0.5096115469932556,-0.2460697889328003,0.979267954826355,0.18058902025222778,0.5557376742362976,-0.7801830768585205,0.994875967502594,0.6370832920074463,0.643172562122345,-0.4155498147010803,0.985150158405304,0.22942927479743958,0.716309666633606,-0.924949049949646,0.9718223214149475,0.6634572744369507,0.6830711960792542,-0.49579277634620667,0.9692904353141785,0.24284590780735016,0.7591061592102051,-1.0213764905929565,0.94729083776474,0.6465412974357605,0.6827171444892883,-0.5879285335540771,0.9719207286834717,0.27751773595809937,0.7511381506919861,-1.0996233224868774,0.9502429366111755,0.6292843818664551,0.6748448610305786,-0.45655593276023865,0.9711793065071106,0.2799489498138428,0.7361160516738892,-0.9586065411567688,0.9524113535881042,0.48629799485206604,0.6339636445045471,0.11832263320684433,0.9986251592636108,0.3149622082710266,0.6510189771652222,-0.11812160909175873,0.9992331266403198,0.48613598942756653,0.8447190523147583,0.4216843545436859,0.9410054087638855,0.3397117257118225,0.8719509243965149,0.08771418780088425,0.980423092842102,0.48801180720329285,0.9626995921134949,1.0889105796813965,0.8458021283149719,0.3535212576389313,0.99237060546875,0.6152923107147217,0.9143216609954834,0.4610534608364105,0.9767498970031738,1.1399781703948975,0.7955292463302612,0.3296278119087219,1.0230703353881836,0.6545290350914001,0.6715900301933289,0.5616626143455505,1.023282766342163,0.9296298623085022,0.8018907308578491,0.41213828325271606,1.0984257459640503,0.32050928473472595,0.8087428212165833
18604.44645769228,0.4478200078010559,0.2343164086341858,-1.1178650856018066,0.9999886751174927,0.45356494188308716,0.20919856429100037,-1.0746008157730103,0.9999642372131348,0.4617554545402527,0.2081494927406311,-1.0746697187423706,0.9999562501907349,0.46918728947639465,0.20724159479141235,-1.0747472047805786,0.999950647354126,0.421685129404068,0.21108484268188477,-1.1043531894683838,0.9999737739562988,0.4038104712963104,0.21107086539268494,-1.1045558452606201,0.9999743700027466,0.38539159297943115,0.211220383644104,-1.1047059297561646,0.9999725818634033,0.46169161796569824,0.21476927399635315,-0.7585234045982361,0.9999277591705322,0.3344295620918274,0.2211172878742218,-0.9072067737579346,0.9999818801879883,0.4571259021759033,0.25575217604637146,-0.99379962682724,0.9999932050704956,0.4223494231700897,0.25659945607185364,-1.0356101989746094,0.9999967813491821,0.540591835975647,0.3483090102672577,-0.4747767150402069,0.9999547004699707,0.17821256816387177,0.3686986267566681,-0.7831006646156311,0.999969482421875,0.5751643180847168,0.5119169354438782,-0.22065430879592896,0.9809586405754089,0.18335774540901184,0.554917573928833,-0.746042013168335,0.9944181442260742,0.6360694169998169,0.6433815956115723,-0.37226736545562744,0.9841123223304749,0.22943556308746338,0.7114244103431702,-0.8940507173538208,0.96608567237854,0.6630458831787109,0.6839377880096436,-0.44887250661849976,0.9671884179115295,0.24172507226467133,0.754326343536377,-0.9854831695556641,0.9379166960716248,0.6479443907737732,0.6834375262260437,-0.5424085855484009,0.9700344800949097,0.2748132646083832,0.7475911378860474,-1.070406436920166,0.9418813586235046,0.6317065954208374,0.6752845644950867,-0.41296476125717163,0.9697656035423279,0.2776070237159729,0.7323038578033447,-0.9298598766326904,0.944949746131897,0.4893629252910614,0.632154107093811,0.11061693727970123,0.9984683394432068,0.3124746084213257,0.6491789817810059,-0.11031592637300491,0.9991078972816467,0.48858949542045593,0.8499158024787903,0.3696906864643097,0.9492500424385071,0.33794355392456055,0.8740766048431396,0.07609286904335022,0.9792985916137695,0.4863000214099884,0.967160701751709,1.0733857154846191,0.8416363596916199,0.3566124141216278,0.9978289604187012,0.6221527457237244,0.9094082117080688,0.46239596605300903,0.9796671271324158,1.1279808282852173,0.7943671345710754,0.3413164019584656,1.0279325246810913,0.6630023121833801,0.6737529039382935,0.5541753768920898,1.026835560798645,0.9095863699913025,0.7899413704872131,0.41663968563079834,1.1028600931167603,0.3181518614292145,0.7952983379364014
18621.113124358948,0.447413831949234,0.23239216208457947,-1.1138663291931152,0.9999904632568359,0.4526849687099457,0.20700040459632874,-1.0723875761032104,0.9999673366546631,0.4608641266822815,0.2059558928012848,-1.0724186897277832,0.9999594688415527,0.46833178400993347,0.20503509044647217,-1.0724953413009644,0.9999539852142334,0.42089852690696716,0.20945397019386292,-1.1009602546691895,0.9999775886535645,0.4028780162334442,0.2097884714603424,-1.1011697053909302,0.99997878074646,0.3844935894012451,0.21027866005897522,-1.1012972593307495,0.9999778270721436,0.4607851207256317,0.2126256823539734,-0.767736554145813,0.9999253749847412,0.33320802450180054,0.22065332531929016,-0.9120615720748901,0.999984860420227,0.45734521746635437,0.25335225462913513,-0.9944042563438416,0.9999933242797852,0.4219391345977783,0.25478023290634155,-1.0348660945892334,0.9999971389770508,0.540805995464325,0.3475877642631531,-0.4846501648426056,0.9999481439590454,0.17981809377670288,0.36879685521125793,-0.8073342442512512,0.9999761581420898,0.5747383236885071,0.5100760459899902,-0.23940159380435944,0.97719407081604,0.179855614900589,0.557493269443512,-0.7817923426628113,0.9955946803092957,0.6354156732559204,0.643420398235321,-0.3720220923423767,0.981719434261322,0.2298608124256134,0.7184772491455078,-0.9083228707313538,0.9720942974090576,0.6629465818405151,0.6833673715591431,-0.44466933608055115,0.9628865718841553,0.24428455531597137,0.7620906829833984,-0.9979342222213745,0.9464691281318665,0.6463786363601685,0.68277508020401,-0.5336401462554932,0.9658295512199402,0.27735406160354614,0.7523460984230042,-1.0762428045272827,0.9494178295135498,0.629254162311554,0.674745500087738,-0.4107271432876587,0.9654763340950012,0.2790948152542114,0.7371767163276672,-0.9412256479263306,0.9517953395843506,0.48701199889183044,0.6333134770393372,0.11447582393884659,0.9985862970352173,0.3129534125328064,0.6509000658988953,-0.11431853473186493,0.9992846846580505,0.48761677742004395,0.8466063141822815,0.40330103039741516,0.9431394934654236,0.3386596441268921,0.8721156120300293,0.07219574600458145,0.9807220697402954,0.48639193177223206,0.9641290903091431,1.0691505670547485,0.8414673209190369,0.3523148000240326,0.9930702447891235,0.5747902989387512,0.9136340022087097,0.4582779109477997,0.9803187847137451,1.1203452348709106,0.7886816263198853,0.32631754875183105,1.0265675783157349,0.6114478707313538,0.6679831147193909,0.5593856573104858,1.0237001180648804,0.9152241945266724,0.7923314571380615,0.4082181453704834,1.1017382144927979,0.2775384783744812,0.8055875301361084
18637.779791025616,0.4523821473121643,0.23089373111724854,-1.130406141281128,0.9999910593032837,0.45560941100120544,0.20563730597496033,-1.0868571996688843,0.9999719858169556,0.4633783996105194,0.20434963703155518,-1.0869120359420776,0.9999655485153198,0.4703715443611145,0.20325827598571777,-1.0869760513305664,0.9999605417251587,0.4245644211769104,0.20762845873832703,-1.1178998947143555,0.99997878074646,0.4062499403953552,0.20772573351860046,-1.1180615425109863,0.9999792575836182,0.38736492395401,0.20825010538101196,-1.118181586265564,0.9999773502349854,0.4595041275024414,0.21042123436927795,-0.7711196541786194,0.9999420642852783,0.3349224925041199,0.21900668740272522,-0.9250785708427429,0.999984622001648,0.460716187953949,0.25221937894821167,-1.0069148540496826,0.9999943971633911,0.42652568221092224,0.25447145104408264,-1.050089955329895,0.9999971389770508,0.5412951707839966,0.347057968378067,-0.48791414499282837,0.9999624490737915,0.17780190706253052,0.3699318766593933,-0.8071575164794922,0.9999676942825317,0.5768755078315735,0.5097373723983765,-0.22248421609401703,0.9806451201438904,0.18794336915016174,0.5576584339141846,-0.7691103219985962,0.9945579767227173,0.6382554769515991,0.6407559514045715,-0.36423614621162415,0.9858243465423584,0.22386832535266876,0.7143129110336304,-0.912338376045227,0.9714149236679077,0.6637909412384033,0.6810283660888672,-0.43921947479248047,0.9705209732055664,0.23689544200897217,0.7564115524291992,-1.0050406455993652,0.947685182094574,0.6478790044784546,0.680313766002655,-0.5327290892601013,0.9732502102851868,0.2729400396347046,0.7500694990158081,-1.0903836488723755,0.9512806534767151,0.6321210861206055,0.672023355960846,-0.40481045842170715,0.9728273749351501,0.27573004364967346,0.7350957989692688,-0.9483882784843445,0.9537025094032288,0.48580625653266907,0.6296517252922058,0.11024108529090881,0.998833954334259,0.30819302797317505,0.6476244330406189,-0.10993973910808563,0.9992413520812988,0.4890056848526001,0.8396930694580078,0.3745274245738983,0.9427893757820129,0.34335869550704956,0.8718450665473938,0.09449239820241928,0.9761547446250916,0.48786333203315735,0.9599602818489075,1.09170663356781,0.8490803241729736,0.3574424982070923,0.9882435202598572,0.6981438398361206,0.909294843673706,0.46401700377464294,0.9748846888542175,1.14768385887146,0.8123578429222107,0.35440793633461,0.9883251190185547,0.7458307147026062,0.6977936029434204,0.5515931844711304,1.0234295129776,0.929263174533844,0.7988304495811462,0.4066079556941986,1.0877876281738281,0.41486313939094543,0.7986195087432861
18654.446457692284,0.4524301290512085,0.22711476683616638,-1.061397910118103,0.9999874830245972,0.4552529454231262,0.2017802894115448,-1.0171186923980713,0.999957799911499,0.4624699056148529,0.20118239521980286,-1.0171648263931274,0.999948263168335,0.46956753730773926,0.20063206553459167,-1.017219066619873,0.9999425411224365,0.42393168807029724,0.20372679829597473,-1.0492149591445923,0.9999704360961914,0.40607982873916626,0.20451393723487854,-1.0494107007980347,0.9999716281890869,0.3869702219963074,0.20551848411560059,-1.0495269298553467,0.9999703168869019,0.4582851827144623,0.20891523361206055,-0.7166405320167542,0.999902606010437,0.3340385854244232,0.21766585111618042,-0.8765829801559448,0.9999779462814331,0.46049734950065613,0.2488388866186142,-0.9452195167541504,0.9999912977218628,0.42603498697280884,0.2501453161239624,-0.9900924563407898,0.9999959468841553,0.5394994020462036,0.3464158773422241,-0.4578983783721924,0.9999392032623291,0.17904715240001678,0.37065640091896057,-0.7905834913253784,0.9999641180038452,0.5778002142906189,0.5094233751296997,-0.23630233108997345,0.9773719906806946,0.18326477706432343,0.5596970319747925,-0.7754139304161072,0.9947454929351807,0.6368520855903625,0.64011549949646,-0.3822765648365021,0.9835229516029358,0.23155803978443146,0.7184455394744873,-0.8992648720741272,0.9715214967727661,0.6627241373062134,0.6809045672416687,-0.4576697051525116,0.9661905169487,0.24401968717575073,0.7622693777084351,-0.991295337677002,0.9474493861198425,0.6445815563201904,0.6803719401359558,-0.5442273616790771,0.9689901471138,0.27802714705467224,0.7538365125656128,-1.0672556161880493,0.9503159523010254,0.627435028553009,0.6726548075675964,-0.420640230178833,0.9682581424713135,0.2805193066596985,0.7388207912445068,-0.9318759441375732,0.9522854089736938,0.4860316812992096,0.6377037167549133,0.11778917908668518,0.9985343217849731,0.3130026161670685,0.6552131772041321,-0.1176857054233551,0.9991592168807983,0.4875780940055847,0.8464987277984619,0.43087056279182434,0.9421282410621643,0.33955755829811096,0.8727787137031555,0.09931445866823196,0.9798457026481628,0.48875465989112854,0.96286541223526,1.0829291343688965,0.8630430102348328,0.35318753123283386,0.99079829454422,0.6448225975036621,0.9161311388015747,0.46137869358062744,0.9775448441505432,1.1326829195022583,0.8118247389793396,0.32842013239860535,1.022161841392517,0.6860957145690918,0.6761053204536438,0.5633613467216492,1.0241827964782715,0.9262404441833496,0.8262235522270203,0.40932467579841614,1.097801923751831,0.3623336851596832,0.8187034130096436
18671.11312435895,0.4492362141609192,0.23208153247833252,-1.1291170120239258,0.9999850988388062,0.45365041494369507,0.20660054683685303,-1.0883007049560547,0.9999520778656006,0.46170133352279663,0.20577582716941833,-1.088348150253296,0.9999417066574097,0.4692714512348175,0.20494088530540466,-1.0884246826171875,0.9999343156814575,0.4214032292366028,0.20907768607139587,-1.1193304061889648,0.9999657869338989,0.40383023023605347,0.20968669652938843,-1.1195194721221924,0.9999667406082153,0.38504183292388916,0.21031007170677185,-1.1196497678756714,0.9999645948410034,0.4612919092178345,0.21314913034439087,-0.7825668454170227,0.9998997449874878,0.33319291472435,0.22112005949020386,-0.9375734925270081,0.9999746084213257,0.4592888355255127,0.25351932644844055,-1.0085766315460205,0.9999903440475464,0.4239453375339508,0.2546633183956146,-1.0521211624145508,0.999995231628418,0.5392974615097046,0.349551260471344,-0.5114315152168274,0.9999380111694336,0.17657716572284698,0.37029561400413513,-0.8123432993888855,0.9999531507492065,0.5728472471237183,0.5122053623199463,-0.25564396381378174,0.9807575941085815,0.1831645965576172,0.5621739625930786,-0.7748594880104065,0.9938620328903198,0.634360671043396,0.6420247554779053,-0.3848489820957184,0.9838320016860962,0.23146171867847443,0.7156282067298889,-0.903984546661377,0.9645909070968628,0.6625393033027649,0.6820310354232788,-0.4570688307285309,0.9659774303436279,0.2432754635810852,0.75694340467453,-0.9920475482940674,0.9359695315361023,0.6465235948562622,0.6821478605270386,-0.5452856421470642,0.9689206480979919,0.27852708101272583,0.748894989490509,-1.072384238243103,0.9399744272232056,0.6290229558944702,0.6743236184120178,-0.4228074848651886,0.9687522649765015,0.2813677191734314,0.7337073683738708,-0.9375893473625183,0.9433180093765259,0.4842892587184906,0.6348790526390076,0.10026496648788452,0.9981986880302429,0.30759674310684204,0.652562141418457,-0.10004308819770813,0.9988694787025452,0.4859657287597656,0.8463132381439209,0.378184050321579,0.9432840347290039,0.33911076188087463,0.8751397132873535,0.1008199155330658,0.9727473258972168,0.49093297123908997,0.9677643775939941,1.047863245010376,0.845167875289917,0.35421356558799744,0.9958608150482178,0.6668384671211243,0.8907497525215149,0.46923181414604187,0.9802544713020325,1.0987087488174438,0.7882618308067322,0.3478120267391205,1.02748703956604,0.7099302411079407,0.6430354118347168,0.5528836250305176,1.0327194929122925,0.8708878755569458,0.7868877053260803,0.4122883081436157,1.103325605392456,0.3679102063179016,0.7642022967338562
18687.77979102562,0.4536137878894806,0.233220636844635,-1.1255931854248047,0.9999887943267822,0.45713290572166443,0.20720726251602173,-1.0825886726379395,0.9999672174453735,0.4645994007587433,0.20644918084144592,-1.0826643705368042,0.9999607801437378,0.4717732071876526,0.2056647539138794,-1.082808256149292,0.9999572038650513,0.4258221685886383,0.20927980542182922,-1.1175841093063354,0.9999740123748779,0.40820786356925964,0.20976144075393677,-1.1177185773849487,0.9999738931655884,0.3883724808692932,0.21034252643585205,-1.1178407669067383,0.9999712705612183,0.4605206549167633,0.21283608675003052,-0.7708548903465271,0.9999420642852783,0.3347926139831543,0.22122487425804138,-0.9419260621070862,0.999981164932251,0.4621407389640808,0.2548542320728302,-1.0026308298110962,0.9999939203262329,0.42823269963264465,0.2561677396297455,-1.0508278608322144,0.9999966621398926,0.5375937223434448,0.34392717480659485,-0.49191179871559143,0.9999648332595825,0.1786477416753769,0.3689325153827667,-0.82579106092453,0.9999551773071289,0.5746397376060486,0.5076045989990234,-0.24325326085090637,0.9831447601318359,0.18085230886936188,0.558994710445404,-0.7936497330665588,0.9938164353370667,0.6366297006607056,0.6417624354362488,-0.39229169487953186,0.9870998859405518,0.22596828639507294,0.7163947820663452,-0.9201868176460266,0.9664543271064758,0.6632083654403687,0.6840388774871826,-0.4719969630241394,0.9724096059799194,0.2395290583372116,0.758162260055542,-1.0131301879882812,0.9399155378341675,0.6448174715042114,0.6841936111450195,-0.5636333227157593,0.9750688672065735,0.2751452624797821,0.749538004398346,-1.0999830961227417,0.9436609745025635,0.6281228065490723,0.6760953664779663,-0.4326317012310028,0.9744666814804077,0.27794307470321655,0.7334484457969666,-0.9566212892532349,0.9463357925415039,0.48424428701400757,0.6310215592384338,0.11373486369848251,0.9985944628715515,0.3079845905303955,0.6493954062461853,-0.11339682340621948,0.9989508390426636,0.48839056491851807,0.8442726731300354,0.37870708107948303,0.9365626573562622,0.33937445282936096,0.8718212842941284,0.08874259889125824,0.9726034998893738,0.4874783158302307,0.9626302123069763,1.070845365524292,0.8112863302230835,0.35104936361312866,0.9898928999900818,0.6689072251319885,0.8800077438354492,0.4628593623638153,0.9756138324737549,1.1241111755371094,0.7627518773078918,0.3308337330818176,1.021303415298462,0.7143722176551819,0.6373483538627625,0.5548335313796997,1.0273913145065308,0.9035208821296692,0.7465860247612,0.4070970416069031,1.094241738319397,0.37977200746536255,0.7445163726806641
18704.446457692287,0.45257672667503357,0.23367935419082642,-1.1004962921142578,0.9999887943267822,0.45656704902648926,0.20792680978775024,-1.0574918985366821,0.9999669790267944,0.4641784429550171,0.20715513825416565,-1.0575838088989258,0.99996018409729,0.4713009297847748,0.20635086297988892,-1.057724952697754,0.9999562501907349,0.4250236749649048,0.20978635549545288,-1.0913310050964355,0.9999735355377197,0.40751656889915466,0.210113525390625,-1.0914674997329712,0.9999734163284302,0.3881179988384247,0.2105066180229187,-1.0915910005569458,0.9999710321426392,0.4609699845314026,0.21372056007385254,-0.7462151646614075,0.9999411106109619,0.3355940878391266,0.2210473120212555,-0.911517322063446,0.9999805688858032,0.4609430134296417,0.2552712559700012,-0.9777534008026123,0.9999940395355225,0.4270404875278473,0.25633060932159424,-1.024275541305542,0.9999966621398926,0.5382194519042969,0.34517398476600647,-0.47143369913101196,0.9999666213989258,0.17944957315921783,0.36930176615715027,-0.7952214479446411,0.999957799911499,0.5743257403373718,0.5075303912162781,-0.2234434336423874,0.984062910079956,0.18544946610927582,0.5590690970420837,-0.7601907253265381,0.9939753413200378,0.6372504234313965,0.6416038870811462,-0.3805736303329468,0.9876846075057983,0.22561854124069214,0.7149033546447754,-0.8973514437675476,0.9699234366416931,0.6636922955513,0.6835800409317017,-0.4610539376735687,0.9735983610153198,0.23813164234161377,0.7568023204803467,-0.9904119372367859,0.9461193084716797,0.6454002261161804,0.6835797429084778,-0.5529468059539795,0.9761917591094971,0.27501600980758667,0.7482509613037109,-1.078594446182251,0.9498607516288757,0.6287074685096741,0.6753867864608765,-0.4211675822734833,0.9757633209228516,0.2779389023780823,0.7325495481491089,-0.9343879818916321,0.952090859413147,0.48304644227027893,0.6320114135742188,0.11038687080144882,0.9986892342567444,0.3059997856616974,0.6498178839683533,-0.11007195711135864,0.9990019202232361,0.48644086718559265,0.8460270762443542,0.3586784601211548,0.9362666010856628,0.34014269709587097,0.8716647028923035,0.0855100080370903,0.9707076549530029,0.48847970366477966,0.963654100894928,1.0733366012573242,0.8039631843566895,0.3537825644016266,0.9909858703613281,0.678938627243042,0.8752040863037109,0.4651854634284973,0.9751605987548828,1.129462480545044,0.7566031217575073,0.33598092198371887,1.018707513809204,0.7261117100715637,0.6338974833488464,0.5500399470329285,1.0283759832382202,0.91225665807724,0.7405717968940735,0.409848153591156,1.0914726257324219,0.3942268192768097,0.7407646775245667
18721.113124358955,0.45224183797836304,0.23294931650161743,-1.1596673727035522,0.9999850988388062,0.45598551630973816,0.2073577344417572,-1.114540696144104,0.9999555349349976,0.4637416899204254,0.20669034123420715,-1.114600658416748,0.9999456405639648,0.4710790812969208,0.20593810081481934,-1.114687204360962,0.9999394416809082,0.42377352714538574,0.20918241143226624,-1.1480649709701538,0.9999668598175049,0.406277596950531,0.2096998393535614,-1.1482478380203247,0.9999665021896362,0.3873247504234314,0.2102585732936859,-1.1483956575393677,0.9999642372131348,0.4613889455795288,0.21286892890930176,-0.7883923649787903,0.9999094009399414,0.336526483297348,0.221195250749588,-0.9545085430145264,0.9999746084213257,0.4610612690448761,0.2544545531272888,-1.0317691564559937,0.9999915361404419,0.4270156919956207,0.2550555467605591,-1.0785001516342163,0.9999955892562866,0.5399132966995239,0.34475889801979065,-0.506005048751831,0.9999481439590454,0.17988495528697968,0.36962592601776123,-0.8204061985015869,0.9999537467956543,0.5739116668701172,0.5122594833374023,-0.27176785469055176,0.9811594486236572,0.18397237360477448,0.5568103790283203,-0.788950502872467,0.992879331111908,0.6384561061859131,0.6406457424163818,-0.4620082378387451,0.9854700565338135,0.22890816628932953,0.7122440934181213,-0.9443778991699219,0.962378740310669,0.6643286943435669,0.6807623505592346,-0.5474123358726501,0.9697941541671753,0.24135497212409973,0.7528153657913208,-1.0423027276992798,0.9335137009620667,0.6490795612335205,0.6812871694564819,-0.6429711580276489,0.9725884199142456,0.2737274169921875,0.7451468706130981,-1.1254687309265137,0.937713086605072,0.6334145069122314,0.6722452640533447,-0.5048251748085022,0.9716383814811707,0.27708303928375244,0.7299994230270386,-0.9800639152526855,0.9404675960540771,0.4929945170879364,0.633748471736908,0.11195483803749084,0.9979745745658875,0.3173138201236725,0.6525580286979675,-0.11163951456546783,0.9987543821334839,0.4917304515838623,0.8460085988044739,0.3833658993244171,0.9418327808380127,0.3427431881427765,0.871349573135376,0.08505932986736298,0.9744207262992859,0.49023643136024475,0.9604511260986328,1.1278108358383179,0.8280295133590698,0.3549968898296356,0.9944064617156982,0.6926196217536926,0.8957248330116272,0.46649259328842163,0.974647581577301,1.185815453529358,0.779112696647644,0.34194546937942505,1.0249111652374268,0.7391567826271057,0.6522259712219238,0.5486508011817932,1.025661826133728,0.9563232064247131,0.7807904481887817,0.40919020771980286,1.1005635261535645,0.3869049549102783,0.7751574516296387
18737.779791025623,0.4494699239730835,0.23195135593414307,-1.1052486896514893,0.9999897480010986,0.45453301072120667,0.2069498896598816,-1.0619397163391113,0.9999686479568481,0.46245837211608887,0.20609000325202942,-1.0619876384735107,0.9999620914459229,0.46970534324645996,0.20530778169631958,-1.0620484352111816,0.9999568462371826,0.42237910628318787,0.20883116126060486,-1.0946842432022095,0.9999769926071167,0.40461599826812744,0.2091076374053955,-1.0948524475097656,0.999977707862854,0.38547345995903015,0.20967891812324524,-1.094957947731018,0.9999754428863525,0.4609847962856293,0.21331265568733215,-0.750190019607544,0.9999362230300903,0.3330070972442627,0.2204846739768982,-0.9127448201179504,0.9999833106994629,0.45865148305892944,0.25313499569892883,-0.9832301139831543,0.9999935626983643,0.4235663115978241,0.2542629539966583,-1.0289584398269653,0.9999969005584717,0.539339005947113,0.34933316707611084,-0.4786379933357239,0.999954342842102,0.1758139282464981,0.37207767367362976,-0.7926904559135437,0.9999603033065796,0.5757109522819519,0.5097912549972534,-0.2175416499376297,0.9813975095748901,0.1811852604150772,0.5601412653923035,-0.7485470175743103,0.9946295022964478,0.6343575716018677,0.6416885852813721,-0.3470569849014282,0.9855000376701355,0.22677092254161835,0.7122005224227905,-0.8725006580352783,0.9669984579086304,0.6609280705451965,0.6831135153770447,-0.41878125071525574,0.9693714380264282,0.23895464837551117,0.7553850412368774,-0.9603782296180725,0.9389383792877197,0.6454045176506042,0.6832267045974731,-0.5087630152702332,0.9721040725708008,0.2739093601703644,0.7479103207588196,-1.0411109924316406,0.9429375529289246,0.6291820406913757,0.6748098134994507,-0.3856639266014099,0.9715505242347717,0.2765621244907379,0.7322772145271301,-0.9063632488250732,0.9459968209266663,0.48665353655815125,0.6317963004112244,0.10844849050045013,0.998506486415863,0.30733373761177063,0.6493576765060425,-0.10817033052444458,0.999056875705719,0.4876047968864441,0.8436633348464966,0.3882984220981598,0.951138973236084,0.338415265083313,0.8695709705352783,0.09102035313844681,0.9788640141487122,0.4874696731567383,0.9577817320823669,1.072328805923462,0.8644324541091919,0.35322436690330505,0.9913347959518433,0.6522447466850281,0.916581928730011,0.4643612802028656,0.9708997011184692,1.125106692314148,0.8188292980194092,0.3498533368110657,0.9891818761825562,0.6950497031211853,0.6935117244720459,0.5520929098129272,1.0252737998962402,0.9081110954284668,0.8183103799819946,0.41242530941963196,1.0950243473052979,0.35909485816955566,0.810965895652771
18754.44645769229,0.44955262541770935,0.23399022221565247,-1.1244158744812012,0.9999884366989136,0.4546714127063751,0.20843082666397095,-1.0828365087509155,0.9999641180038452,0.462678462266922,0.20761367678642273,-1.0828943252563477,0.9999562501907349,0.470085084438324,0.2067861258983612,-1.083006501197815,0.9999512434005737,0.422380656003952,0.21036729216575623,-1.1145133972167969,0.9999730587005615,0.40459132194519043,0.2106526792049408,-1.1146889925003052,0.999972939491272,0.38562729954719543,0.21098393201828003,-1.1148262023925781,0.9999710321426392,0.4621778428554535,0.21402478218078613,-0.7700681090354919,0.999930739402771,0.33410122990608215,0.2212882936000824,-0.9272374510765076,0.9999799728393555,0.4587886333465576,0.25510093569755554,-1.000586748123169,0.9999933242797852,0.4238866865634918,0.25608357787132263,-1.0448228120803833,0.9999966621398926,0.5398510694503784,0.34570154547691345,-0.48943671584129333,0.9999592304229736,0.1774551272392273,0.36874476075172424,-0.8031371831893921,0.9999649524688721,0.5730794668197632,0.5098046064376831,-0.24098645150661469,0.9817631840705872,0.17895665764808655,0.5581040978431702,-0.7698463201522827,0.994032084941864,0.6368725299835205,0.6422848105430603,-0.38919973373413086,0.9854122996330261,0.22627712786197662,0.7139023542404175,-0.9056469798088074,0.966945469379425,0.6619580984115601,0.6836841106414795,-0.4657076299190521,0.9694008827209473,0.2399986982345581,0.7557857632637024,-0.9965847134590149,0.9399030208587646,0.6458132266998291,0.6836522817611694,-0.5577698349952698,0.9721798896789551,0.27424514293670654,0.7475091218948364,-1.078669548034668,0.9436694383621216,0.630457878112793,0.6751934885978699,-0.4292548894882202,0.9716355800628662,0.2763669192790985,0.7318025827407837,-0.940108060836792,0.9461222290992737,0.48521605134010315,0.6301794052124023,0.10962730646133423,0.9983929991722107,0.3074033260345459,0.6474237442016602,-0.1093590036034584,0.9989930987358093,0.48687583208084106,0.8442468643188477,0.34750762581825256,0.9383305907249451,0.3410930335521698,0.8714291453361511,0.07020904123783112,0.9730196595191956,0.4882592558860779,0.9560718536376953,1.0666505098342896,0.81156986951828,0.3546909689903259,0.992675244808197,0.6359773278236389,0.8923161625862122,0.46520936489105225,0.9712119698524475,1.1234009265899658,0.7678234577178955,0.35250404477119446,0.9894260168075562,0.6794519424438477,0.6507577300071716,0.5540986657142639,1.0240774154663086,0.9112277030944824,0.7595030665397644,0.4137604832649231,1.096972107887268,0.34160593152046204,0.7703357338905334
18771.11312435896,0.4526841938495636,0.2293279469013214,-1.1454280614852905,0.9999887943267822,0.45665910840034485,0.2037149965763092,-1.0996084213256836,0.9999675750732422,0.46419641375541687,0.2030004858970642,-1.0996479988098145,0.9999605417251587,0.4712984263896942,0.20231425762176514,-1.0997265577316284,0.9999568462371826,0.4247533977031708,0.20560020208358765,-1.1343220472335815,0.9999749660491943,0.4074849486351013,0.2061121165752411,-1.1344757080078125,0.9999747276306152,0.38803428411483765,0.20699569582939148,-1.1345809698104858,0.9999727010726929,0.45959004759788513,0.2104860246181488,-0.7769650816917419,0.9999349117279053,0.3339371681213379,0.21877306699752808,-0.9483481049537659,0.9999802112579346,0.460285484790802,0.2506135404109955,-1.0194745063781738,0.9999933242797852,0.4261690378189087,0.25215980410575867,-1.0676878690719604,0.9999964237213135,0.5379693508148193,0.34832867980003357,-0.4977330267429352,0.9999581575393677,0.17651072144508362,0.3703354001045227,-0.8257769346237183,0.9999560117721558,0.5748456716537476,0.5102341175079346,-0.24823035299777985,0.9830694198608398,0.18069715797901154,0.5596988201141357,-0.7948343753814697,0.994047999382019,0.6350595951080322,0.6416875720024109,-0.4111640155315399,0.9883512854576111,0.22874028980731964,0.7135419845581055,-0.9362267851829529,0.9688361883163452,0.6607493162155151,0.682340145111084,-0.491865873336792,0.974833607673645,0.24289517104625702,0.7551110982894897,-1.0324101448059082,0.9430378079414368,0.6447831392288208,0.6825724244117737,-0.5851887464523315,0.9771092534065247,0.27712878584861755,0.7459526062011719,-1.1149412393569946,0.9462456703186035,0.6283712387084961,0.6744816303253174,-0.45208504796028137,0.9761684536933899,0.2792835831642151,0.7300371527671814,-0.971382737159729,0.9480394124984741,0.4865512251853943,0.6334981918334961,0.11613765358924866,0.9984983205795288,0.31071755290031433,0.6511135697364807,-0.11591129750013351,0.9989994168281555,0.4886900782585144,0.8444268703460693,0.42541980743408203,0.9444414377212524,0.3405972421169281,0.8727726340293884,0.11429233103990555,0.9773809909820557,0.48783838748931885,0.9629274606704712,1.1313199996948242,0.8556640148162842,0.3552112281322479,0.994530439376831,0.7131680846214294,0.9094558358192444,0.46348777413368225,0.977893054485321,1.185807228088379,0.8093705773353577,0.3394821882247925,1.0222712755203247,0.7596422433853149,0.6802954077720642,0.5499016046524048,1.0303325653076172,0.9594441652297974,0.8156290650367737,0.41137397289276123,1.097836971282959,0.41567888855934143,0.8030226230621338
18787.779791025627,0.45234861969947815,0.22980672121047974,-1.137708306312561,0.9999865293502808,0.4567919373512268,0.20479333400726318,-1.0893923044204712,0.9999613761901855,0.4642949402332306,0.20416924357414246,-1.0894747972488403,0.9999535083770752,0.4712448716163635,0.20356738567352295,-1.0895506143569946,0.9999487400054932,0.42526280879974365,0.2062283456325531,-1.125227689743042,0.9999699592590332,0.408165842294693,0.2065275013446808,-1.125398874282837,0.9999699592590332,0.3889673054218292,0.20716732740402222,-1.125524878501892,0.9999672174453735,0.4596652388572693,0.21159881353378296,-0.7576762437820435,0.9999243021011353,0.3345406651496887,0.21852970123291016,-0.9339354634284973,0.9999773502349854,0.45991382002830505,0.2510121762752533,-1.0088129043579102,0.9999923706054688,0.42518118023872375,0.2518406808376312,-1.0585592985153198,0.9999959468841553,0.5389773845672607,0.3481321632862091,-0.470595121383667,0.9999561309814453,0.17598144710063934,0.37017643451690674,-0.8069431185722351,0.9999507665634155,0.5752428770065308,0.5096843242645264,-0.20862720906734467,0.9827693700790405,0.17926302552223206,0.561357855796814,-0.7652791738510132,0.9942387342453003,0.6330751776695251,0.641068160533905,-0.3723626136779785,0.98753821849823,0.22701714932918549,0.7156565189361572,-0.9107460379600525,0.9666906595230103,0.6598780155181885,0.6819116473197937,-0.4515407383441925,0.972973644733429,0.24075041711330414,0.7566550374031067,-1.0061315298080444,0.938601553440094,0.643967866897583,0.682123064994812,-0.5460988879203796,0.9755061864852905,0.2745814621448517,0.7484555244445801,-1.0902873277664185,0.942517876625061,0.6273578405380249,0.6742405891418457,-0.4136204719543457,0.9745722413063049,0.2768484950065613,0.7328926920890808,-0.9462392926216125,0.9446120262145996,0.4851773977279663,0.6342402696609497,0.11749813705682755,0.9985480904579163,0.3092248737812042,0.6522349715232849,-0.11719107627868652,0.998978853225708,0.4873018264770508,0.8487632274627686,0.40693503618240356,0.9446520805358887,0.33992698788642883,0.8766353726387024,0.09965647011995316,0.9754124879837036,0.48684635758399963,0.9630719423294067,1.138399600982666,0.8432788848876953,0.3551454246044159,0.9938597679138184,0.707299530506134,0.8997556567192078,0.46417009830474854,0.9761435985565186,1.195554256439209,0.800506591796875,0.3392788767814636,1.0253714323043823,0.7548972368240356,0.6555101275444031,0.5520844459533691,1.0278818607330322,0.9667521119117737,0.8006329536437988,0.41686391830444336,1.1021151542663574,0.40423375368118286,0.7865291833877563
18804.446457692295,0.4497607350349426,0.23287907242774963,-1.1849395036697388,0.9999884366989136,0.4554942846298218,0.2073259949684143,-1.138286828994751,0.9999653100967407,0.46376264095306396,0.20642602443695068,-1.1383413076400757,0.9999568462371826,0.47121554613113403,0.2055622637271881,-1.138437032699585,0.9999521970748901,0.42319509387016296,0.20929217338562012,-1.1696910858154297,0.9999738931655884,0.4054311215877533,0.2094837725162506,-1.1698687076568604,0.9999738931655884,0.3868138790130615,0.20981422066688538,-1.170000433921814,0.9999725818634033,0.4628962576389313,0.2131166160106659,-0.8063209652900696,0.9999258518218994,0.3351913094520569,0.2202792763710022,-0.9624819755554199,0.9999809265136719,0.4588720500469208,0.2540339231491089,-1.0552551746368408,0.999993085861206,0.4240381717681885,0.254871666431427,-1.0991052389144897,0.9999964237213135,0.5395575165748596,0.34773558378219604,-0.5068703293800354,0.9999525547027588,0.18037979304790497,0.3700396716594696,-0.8345871567726135,0.9999622106552124,0.5741877555847168,0.5115501880645752,-0.26126474142074585,0.9792509078979492,0.18407689034938812,0.5601136088371277,-0.804873526096344,0.9941508173942566,0.6342880725860596,0.6430195569992065,-0.4441812038421631,0.9842286109924316,0.23239076137542725,0.7159709930419922,-0.9632900357246399,0.9675838947296143,0.6615618467330933,0.6828805804252625,-0.5274657607078552,0.9677760004997253,0.24543750286102295,0.7560634613037109,-1.0634925365447998,0.9403992891311646,0.6447699666023254,0.6832080483436584,-0.623094916343689,0.9705722332000732,0.27918219566345215,0.7469354271888733,-1.145607590675354,0.9438377618789673,0.6272579431533813,0.6753235459327698,-0.48673921823501587,0.9697155952453613,0.2817021608352661,0.7318074703216553,-0.9985951781272888,0.9461433291435242,0.4888044595718384,0.633237898349762,0.12028178572654724,0.9984476566314697,0.31568053364753723,0.6521211862564087,-0.12003761529922485,0.9990070462226868,0.48810553550720215,0.8460482358932495,0.40000173449516296,0.9405202269554138,0.33975669741630554,0.8722875714302063,0.08780225366353989,0.9781602025032043,0.4876256287097931,0.9665492177009583,1.1190650463104248,0.8440057635307312,0.35694292187690735,0.996310293674469,0.6829107999801636,0.9096929430961609,0.46338725090026855,0.9801750779151917,1.1742265224456787,0.7954242825508118,0.3369868993759155,1.025289535522461,0.7284142971038818,0.6733927726745605,0.5544415712356567,1.0310509204864502,0.943302571773529,0.7999787926673889,0.41539907455444336,1.10205078125,0.37704193592071533,0.8006473183631897
18821.113124358963,0.449353963136673,0.23239955306053162,-1.075564980506897,0.9999873638153076,0.45424702763557434,0.20727556943893433,-1.0332733392715454,0.9999582767486572,0.4621277451515198,0.2062838077545166,-1.0333163738250732,0.9999487400054932,0.46934375166893005,0.20535042881965637,-1.0333683490753174,0.9999431371688843,0.42236796021461487,0.20937246084213257,-1.0649827718734741,0.9999704360961914,0.4047476351261139,0.20958951115608215,-1.0651607513427734,0.9999712705612183,0.38608866930007935,0.20998457074165344,-1.0652735233306885,0.9999696016311646,0.46111437678337097,0.2126489281654358,-0.7281145453453064,0.9999061822891235,0.33518731594085693,0.2201593816280365,-0.8869096636772156,0.9999786615371704,0.45846691727638245,0.25314223766326904,-0.9558627605438232,0.9999914169311523,0.42398518323898315,0.25444820523262024,-1.0004643201828003,0.9999960660934448,0.5385563373565674,0.3472317159175873,-0.4566042125225067,0.9999501705169678,0.1799854189157486,0.36805927753448486,-0.783187210559845,0.9999691247940063,0.5737580060958862,0.5072477459907532,-0.21911878883838654,0.9790984392166138,0.17951199412345886,0.5545518398284912,-0.758467972278595,0.9950299263000488,0.6338368058204651,0.6388615369796753,-0.36712661385536194,0.9852598905563354,0.23124118149280548,0.7138174176216125,-0.8869878649711609,0.9700616598129272,0.6609028577804565,0.6794893741607666,-0.4432328939437866,0.969576358795166,0.24201202392578125,0.7580001354217529,-0.9783273935317993,0.9444671273231506,0.6428464651107788,0.6795000433921814,-0.5325009226799011,0.9721168279647827,0.2756596803665161,0.7505532503128052,-1.0572596788406372,0.9474974274635315,0.6259078979492188,0.671857476234436,-0.40635955333709717,0.9714483618736267,0.27883249521255493,0.7346729040145874,-0.920454740524292,0.9501792192459106,0.48835813999176025,0.6335639357566833,0.11733397841453552,0.9985016584396362,0.3141207695007324,0.6512193083763123,-0.11712875217199326,0.9991555213928223,0.48845696449279785,0.8438524007797241,0.4364272654056549,0.945294201374054,0.33905738592147827,0.8679412603378296,0.10294721275568008,0.98046875,0.4875642955303192,0.9643214344978333,1.0900038480758667,0.8531328439712524,0.3541836738586426,0.9921165108680725,0.6323972940444946,0.9120675325393677,0.4619297683238983,0.9800290465354919,1.1401981115341187,0.8027588725090027,0.32932594418525696,1.0223667621612549,0.6722099781036377,0.6717883944511414,0.5601813197135925,1.023443579673767,0.9337947964668274,0.8108536005020142,0.41153836250305176,1.0979251861572266,0.3429771959781647,0.8043420314788818
18837.77979102563,0.4521537721157074,0.2302209734916687,-1.1863000392913818,0.9999898672103882,0.45580506324768066,0.2050190567970276,-1.1385341882705688,0.9999700784683228,0.4634430408477783,0.20423519611358643,-1.138582706451416,0.9999630451202393,0.47046205401420593,0.20349884033203125,-1.1386529207229614,0.9999576807022095,0.42391306161880493,0.20693060755729675,-1.17186439037323,0.9999778270721436,0.4056757688522339,0.207305908203125,-1.1720026731491089,0.9999778270721436,0.3867185413837433,0.2078993320465088,-1.1721104383468628,0.9999760389328003,0.45903491973876953,0.21150410175323486,-0.8037595152854919,0.9999371767044067,0.3336787819862366,0.21908023953437805,-0.9675329327583313,0.9999837875366211,0.46058082580566406,0.2515687942504883,-1.0558637380599976,0.9999934434890747,0.4252108931541443,0.25280505418777466,-1.101885199546814,0.9999967813491821,0.5393083691596985,0.3489561676979065,-0.5034509301185608,0.9999542236328125,0.1745506376028061,0.37227728962898254,-0.8361802101135254,0.9999599456787109,0.5750709772109985,0.509998083114624,-0.23165911436080933,0.9782277345657349,0.1793918013572693,0.5636180639266968,-0.7962414026260376,0.9943887591362,0.6337682604789734,0.6412626504898071,-0.3887230455875397,0.9839931130409241,0.22595910727977753,0.7181422710418701,-0.945925235748291,0.9684774875640869,0.6604963541030884,0.6831667423248291,-0.46660158038139343,0.9667783379554749,0.24034614861011505,0.7599077224731445,-1.0421479940414429,0.9417335987091064,0.6440796852111816,0.6835089325904846,-0.5614757537841797,0.9698249101638794,0.2746991515159607,0.7508958578109741,-1.1280503273010254,0.9454366564750671,0.6278986930847168,0.67514967918396,-0.43040570616722107,0.969096302986145,0.27743449807167053,0.7356250286102295,-0.9822903871536255,0.9478247165679932,0.4848220646381378,0.6351874470710754,0.1152598112821579,0.9987164735794067,0.30934298038482666,0.6530706882476807,-0.11495452374219894,0.9991737008094788,0.4886077642440796,0.8442875146865845,0.42252883315086365,0.9499049782752991,0.3417899012565613,0.8724926710128784,0.11920705437660217,0.9795743227005005,0.4883531630039215,0.9621266722679138,1.1478235721588135,0.8699884414672852,0.3572419285774231,0.9938766956329346,0.7395531535148621,0.9162049889564514,0.4644584059715271,0.9760121703147888,1.2037353515625,0.8258937001228333,0.3567514717578888,0.9927203059196472,0.7883972525596619,0.7032355666160583,0.5619987845420837,1.0269079208374023,0.9727577567100525,0.824299156665802,0.4127349555492401,1.0935081243515015,0.44523942470550537,0.8121419548988342
