0,1,2,3,4
17923.349032844762,1.148295521736145,1.1837546825408936,1.546280026435852,1.3780514001846313
17923.35103290709,1.1497527360916138,1.1832689046859741,1.5472514629364014,1.3783751726150513
17923.353032969415,1.1507242918014526,1.1835927963256836,1.546765685081482,1.3783751726150513
17923.35503303174,1.1508861780166626,1.1831070184707642,1.546280026435852,1.377403736114502
17923.357033094067,1.1505622863769531,1.1829451322555542,1.5461180210113525,1.3770798444747925
17923.359033156394,1.1508861780166626,1.1827832460403442,1.5454704761505127,1.3780514001846313
17923.36103321872,1.1492670774459839,1.1832689046859741,1.5454704761505127,1.377241849899292
17923.363033281046,1.148295521736145,1.1834309101104736,1.5456323623657227,1.3765941858291626
17923.365033343372,1.1489431858062744,1.1835927963256836,1.5451465845108032,1.3769179582595825
17923.3670334057,1.148295521736145,1.1832689046859741,1.5453084707260132,1.377565622329712
17923.369033468025,1.1478097438812256,1.1824593544006348,1.5449846982955933,1.3777275085449219
17923.37103353035,1.148295521736145,1.1824593544006348,1.5449846982955933,1.377241849899292
17923.373033592678,1.1497527360916138,1.1831070184707642,1.5451465845108032,1.3769179582595825
17923.375033655004,1.1504004001617432,1.1824593544006348,1.5459561347961426,1.377565622329712
17923.37703371733,1.1495908498764038,1.1818116903305054,1.5456323623657227,1.3770798444747925
17923.379033779656,1.1502385139465332,1.1821355819702148,1.5457942485809326,1.3780514001846313
17923.38103384198,1.1494289636611938,1.1831070184707642,1.5456323623657227,1.3777275085449219
17923.383033904305,1.1489431858062744,1.1834309101104736,1.5449846982955933,1.377241849899292
17923.38503396663,1.1491050720214844,1.1832689046859741,1.5453084707260132,1.377241849899292
17923.387034028958,1.1486194133758545,1.1827832460403442,1.5459561347961426,1.377241849899292
17923.389034091284,1.148133635520935,1.1821355819702148,1.5449846982955933,1.3761084079742432
17923.39103415361,1.1499146223068237,1.1816498041152954,1.5444989204406738,1.3770798444747925
17923.393034215936,1.1504004001617432,1.1821355819702148,1.5453084707260132,1.3769179582595825
17923.395034278263,1.1492670774459839,1.1829451322555542,1.5456323623657227,1.376432180404663
17923.39703434059,1.1487812995910645,1.1819735765457153,1.5454704761505127,1.3757845163345337
17923.399034402915,1.1487812995910645,1.1824593544006348,1.5448228120803833,1.3759465217590332
17923.40103446524,1.148133635520935,1.1824593544006348,1.5449846982955933,1.3756226301193237
17923.403034527568,1.147971749305725,1.1824593544006348,1.5454704761505127,1.3757845163345337
17923.405034589894,1.1487812995910645,1.1822974681854248,1.5456323623657227,1.3770798444747925
17923.40703465222,1.1486194133758545,1.1822974681854248,1.5454704761505127,1.3767560720443726
17923.409034714547,1.1474859714508057,1.1826212406158447,1.5456323623657227,1.376432180404663
17923.411034776873,1.148133635520935,1.1827832460403442,1.5457942485809326,1.3762702941894531
17923.4130348392,1.148133635520935,1.1827832460403442,1.5453084707260132,1.3759465217590332
17923.415034901525,1.148295521736145,1.1822974681854248,1.5448228120803833,1.3761084079742432
17923.41703496385,1.148457407951355,1.1822974681854248,1.5446608066558838,1.376432180404663
17923.419035026178,1.1491050720214844,1.1819735765457153,1.5438512563705444,1.377403736114502
17923.4210350885,1.148133635520935,1.1821355819702148,1.5443370342254639,1.3770798444747925
17923.423035150827,1.147971749305725,1.1826212406158447,1.5451465845108032,1.3770798444747925
17923.425035213153,1.147971749305725,1.1829451322555542,1.5459561347961426,1.377565622329712
17923.42703527548,1.148133635520935,1.1832689046859741,1.5461180210113525,1.3777275085449219
17923.429035337806,1.1471621990203857,1.1824593544006348,1.5451465845108032,1.3762702941894531
17923.43103540013,1.1489431858062744,1.1826212406158447,1.5456323623657227,1.376432180404663
17923.433035462458,1.1504004001617432,1.1831070184707642,1.546603798866272,1.3761084079742432
17923.435035524784,1.1500766277313232,1.1831070184707642,1.5469276905059814,1.3765941858291626
17923.43703558711,1.1505622863769531,1.1822974681854248,1.546603798866272,1.3777275085449219
17923.439035649437,1.151695728302002,1.1834309101104736,1.546765685081482,1.377565622329712
17923.441035711763,1.1497527360916138,1.1840784549713135,1.5474133491516113,1.3765941858291626
17923.44303577409,1.1497527360916138,1.1831070184707642,1.5475753545761108,1.3770798444747925
17923.445035836416,1.1499146223068237,1.1827832460403442,1.5472514629364014,1.377241849899292
17923.447035898742,1.1495908498764038,1.1832689046859741,1.5470895767211914,1.3769179582595825
17923.449035961068,1.1486194133758545,1.1831070184707642,1.5469276905059814,1.3759465217590332
17923.451036023394,1.1507242918014526,1.1831070184707642,1.5474133491516113,1.3767560720443726
17923.45303608572,1.151695728302002,1.1834309101104736,1.5482228994369507,1.3770798444747925
17923.455036148047,1.151533842086792,1.1829451322555542,1.5480610132217407,1.377403736114502
17923.457036210373,1.151371955871582,1.1826212406158447,1.5483849048614502,1.3778895139694214
17923.4590362727,1.1528291702270508,1.1826212406158447,1.5493563413619995,1.377403736114502
17923.461036335022,1.1510480642318726,1.1832689046859741,1.5495182275772095,1.3770798444747925
17923.46303639735,1.1500766277313232,1.1835927963256836,1.5495182275772095,1.377241849899292
17923.465036459675,1.151371955871582,1.184402346611023,1.550004005432129,1.377565622329712
17923.467036522,1.151857614517212,1.1840784549713135,1.5491944551467896,1.377403736114502
17923.469036584327,1.1507242918014526,1.184402346611023,1.5495182275772095,1.3770798444747925
17923.471036646653,1.1510480642318726,1.1839165687561035,1.5506516695022583,1.3783751726150513
17923.47303670898,1.1521815061569214,1.1840784549713135,1.5506516695022583,1.3780514001846313
17923.475036771306,1.1520196199417114,1.1839165687561035,1.5495182275772095,1.3770798444747925
17923.477036833632,1.1520196199417114,1.1832689046859741,1.550004005432129,1.3765941858291626
17923.47903689596,1.1528291702270508,1.1839165687561035,1.550004005432129,1.3778895139694214
17923.481036958285,1.1510480642318726,1.1840784549713135,1.550004005432129,1.377403736114502
17923.48303702061,1.1499146223068237,1.184564232826233,1.5493563413619995,1.3777275085449219
17923.485037082937,1.1500766277313232,1.1834309101104736,1.549842119216919,1.3770798444747925
17923.487037145263,1.1504004001617432,1.1832689046859741,1.5491944551467896,1.377403736114502
17923.48903720759,1.1489431858062744,1.1827832460403442,1.5480610132217407,1.3767560720443726
17923.491037269916,1.1497527360916138,1.1831070184707642,1.5478991270065308,1.3770798444747925
17923.493037332242,1.1500766277313232,1.1837546825408936,1.5482228994369507,1.3762702941894531
17923.49503739457,1.1504004001617432,1.1835927963256836,1.5478991270065308,1.377241849899292
17923.497037456895,1.1499146223068237,1.1829451322555542,1.5470895767211914,1.3769179582595825
17923.49903751922,1.1495908498764038,1.1831070184707642,1.5470895767211914,1.3770798444747925
17923.501037581544,1.148133635520935,1.1827832460403442,1.5469276905059814,1.3762702941894531
17923.50303764387,1.147971749305725,1.1834309101104736,1.5472514629364014,1.3761084079742432
17923.505037706196,1.148133635520935,1.1832689046859741,1.5480610132217407,1.3756226301193237
17923.507037768522,1.148133635520935,1.1831070184707642,1.5472514629364014,1.3757845163345337
17923.50903783085,1.1468383073806763,1.1827832460403442,1.5469276905059814,1.3749749660491943
17923.511037893175,1.1473240852355957,1.1832689046859741,1.546765685081482,1.376432180404663
17923.5130379555,1.1478097438812256,1.1834309101104736,1.546765685081482,1.3762702941894531
17923.515038017827,1.148295521736145,1.1834309101104736,1.546441912651062,1.3765941858291626
17923.517038080154,1.148295521736145,1.1837546825408936,1.5457942485809326,1.3761084079742432
17923.51903814248,1.1492670774459839,1.1831070184707642,1.5461180210113525,1.3762702941894531
17923.521038204806,1.148133635520935,1.1829451322555542,1.546765685081482,1.3749749660491943
17923.523038267133,1.1471621990203857,1.1819735765457153,1.546441912651062,1.3748130798339844
17923.52503832946,1.1474859714508057,1.1827832460403442,1.546280026435852,1.3752988576889038
17923.527038391785,1.1468383073806763,1.1837546825408936,1.546603798866272,1.3744893074035645
17923.52903845411,1.145866870880127,1.184240460395813,1.546441912651062,1.374327301979065
17923.531038516438,1.1468383073806763,1.1840784549713135,1.546603798866272,1.3757845163345337
17923.533038578764,1.1470001935958862,1.1829451322555542,1.5470895767211914,1.376432180404663
17923.53503864109,1.1476478576660156,1.1832689046859741,1.546441912651062,1.3754607439041138
17923.537038703416,1.1474859714508057,1.1829451322555542,1.5461180210113525,1.3759465217590332
17923.53903876574,1.1492670774459839,1.1829451322555542,1.546441912651062,1.3756226301193237
17923.541038828065,1.1476478576660156,1.1834309101104736,1.5470895767211914,1.3752988576889038
17923.54303889039,1.1468383073806763,1.1832689046859741,1.5469276905059814,1.3761084079742432
17923.545038952718,1.1457048654556274,1.1826212406158447,1.546441912651062,1.3748130798339844
17923.547039015044,1.1457048654556274,1.1831070184707642,1.5477372407913208,1.3748130798339844
17923.54903907737,1.146028757095337,1.1834309101104736,1.5478991270065308,1.3748130798339844
17923.551039139697,1.1478097438812256,1.1832689046859741,1.546280026435852,1.3748130798339844
17923.553039202023,1.147971749305725,1.1834309101104736,1.546603798866272,1.3749749660491943
17923.55503926435,1.1471621990203857,1.1835927963256836,1.5474133491516113,1.3749749660491943
17923.557039326675,1.1470001935958862,1.1832689046859741,1.546765685081482,1.3752988576889038
17923.559039389,1.1476478576660156,1.1831070184707642,1.5472514629364014,1.3749749660491943
17923.561039451328,1.1465145349502563,1.1831070184707642,1.5475753545761108,1.3749749660491943
17923.563039513654,1.1466764211654663,1.1835927963256836,1.5478991270065308,1.3754607439041138
17923.56503957598,1.1474859714508057,1.1835927963256836,1.5480610132217407,1.3749749660491943
17923.567039638307,1.1476478576660156,1.1839165687561035,1.5480610132217407,1.3744893074035645
17923.569039700633,1.1461906433105469,1.1835927963256836,1.546765685081482,1.374165415763855
17923.57103976296,1.1461906433105469,1.1829451322555542,1.546441912651062,1.3749749660491943
17923.573039825285,1.1468383073806763,1.1829451322555542,1.5469276905059814,1.3749749660491943
17923.57503988761,1.1470001935958862,1.1827832460403442,1.546280026435852,1.373841643333435
17923.577039949938,1.1466764211654663,1.1831070184707642,1.5457942485809326,1.3748130798339844
17923.57904001226,1.1470001935958862,1.1827832460403442,1.5457942485809326,1.3754607439041138
17923.581040074587,1.146028757095337,1.1831070184707642,1.546280026435852,1.3751369714736938
17923.583040136913,1.145866870880127,1.1826212406158447,1.5470895767211914,1.3746511936187744
17923.58504019924,1.1463525295257568,1.1831070184707642,1.546441912651062,1.3748130798339844
17923.587040261566,1.1465145349502563,1.1834309101104736,1.5469276905059814,1.3756226301193237
17923.589040323892,1.1444096565246582,1.1826212406158447,1.546603798866272,1.3749749660491943
17923.591040386218,1.1453810930252075,1.1827832460403442,1.5461180210113525,1.3756226301193237
17923.593040448544,1.1461906433105469,1.1832689046859741,1.546765685081482,1.3756226301193237
17923.59504051087,1.1465145349502563,1.1835927963256836,1.5472514629364014,1.3748130798339844
17923.597040573197,1.1450573205947876,1.1840784549713135,1.546603798866272,1.3746511936187744
17923.599040635523,1.1463525295257568,1.1847261190414429,1.5457942485809326,1.3748130798339844
17923.60104069785,1.146028757095337,1.184240460395813,1.5461180210113525,1.3748130798339844
17923.603040760176,1.145866870880127,1.1831070184707642,1.546765685081482,1.374327301979065
17923.605040822502,1.1453810930252075,1.1824593544006348,1.546603798866272,1.3744893074035645
17923.607040884828,1.1455429792404175,1.1824593544006348,1.546441912651062,1.3736796379089355
17923.609040947154,1.1437619924545288,1.1829451322555542,1.546441912651062,1.374003529548645
17923.61104100948,1.1452192068099976,1.1832689046859741,1.5469276905059814,1.3746511936187744
17923.613041071807,1.146028757095337,1.1827832460403442,1.546441912651062,1.3744893074035645
17923.615041134133,1.1452192068099976,1.1826212406158447,1.546441912651062,1.3746511936187744
17923.61704119646,1.1447334289550781,1.1829451322555542,1.5459561347961426,1.3749749660491943
17923.619041258782,1.1457048654556274,1.1829451322555542,1.5459561347961426,1.3749749660491943
17923.62104132111,1.144895315170288,1.1829451322555542,1.5461180210113525,1.374327301979065
17923.623041383435,1.1442476511001587,1.1826212406158447,1.546280026435852,1.3744893074035645
17923.62504144576,1.1435999870300293,1.1827832460403442,1.546441912651062,1.3749749660491943
17923.627041508087,1.1447334289550781,1.1832689046859741,1.5469276905059814,1.374003529548645
17923.629041570413,1.1442476511001587,1.1831070184707642,1.546603798866272,1.3731939792633057
17923.63104163274,1.1452192068099976,1.1821355819702148,1.5456323623657227,1.374327301979065
17923.633041695066,1.1457048654556274,1.1827832460403442,1.546603798866272,1.374165415763855
17923.635041757392,1.145866870880127,1.1831070184707642,1.5477372407913208,1.374165415763855
17923.63704181972,1.1463525295257568,1.1831070184707642,1.5483849048614502,1.3744893074035645
17923.639041882045,1.1476478576660156,1.1829451322555542,1.5477372407913208,1.3754607439041138
17923.64104194437,1.1468383073806763,1.1831070184707642,1.5480610132217407,1.3751369714736938
17923.643042006697,1.1461906433105469,1.1826212406158447,1.5485467910766602,1.3751369714736938
17923.645042069023,1.1470001935958862,1.1827832460403442,1.5485467910766602,1.374165415763855
17923.64704213135,1.1471621990203857,1.1831070184707642,1.5482228994369507,1.3746511936187744
17923.649042193676,1.1461906433105469,1.1837546825408936,1.5482228994369507,1.3744893074035645
17923.651042256002,1.1473240852355957,1.184564232826233,1.5485467910766602,1.3749749660491943
17923.65304231833,1.1476478576660156,1.184402346611023,1.54887056350708,1.3752988576889038
17923.655042380655,1.148295521736145,1.1832689046859741,1.549680233001709,1.3751369714736938
17923.65704244298,1.1489431858062744,1.1831070184707642,1.5483849048614502,1.3751369714736938
17923.659042505304,1.1495908498764038,1.1832689046859741,1.5485467910766602,1.3761084079742432
17923.66104256763,1.148133635520935,1.1832689046859741,1.5490325689315796,1.3746511936187744
17923.663042629956,1.1478097438812256,1.1832689046859741,1.5490325689315796,1.3746511936187744
17923.665042692282,1.1478097438812256,1.1832689046859741,1.5482228994369507,1.3754607439041138
17923.66704275461,1.1476478576660156,1.1835927963256836,1.5480610132217407,1.3761084079742432
17923.669042816935,1.1466764211654663,1.1835927963256836,1.54887056350708,1.3757845163345337
17923.67104287926,1.147971749305725,1.1840784549713135,1.5493563413619995,1.3767560720443726
17923.673042941587,1.1487812995910645,1.1847261190414429,1.549680233001709,1.3767560720443726
17923.675043003914,1.1487812995910645,1.1850500106811523,1.5493563413619995,1.3762702941894531
17923.67704306624,1.1489431858062744,1.1850500106811523,1.5495182275772095,1.3757845163345337
17923.679043128566,1.1502385139465332,1.184240460395813,1.5495182275772095,1.3761084079742432
17923.681043190893,1.1487812995910645,1.1839165687561035,1.5504897832870483,1.3756226301193237
17923.68304325322,1.148295521736145,1.184240460395813,1.5512993335723877,1.3754607439041138
17923.685043315545,1.1491050720214844,1.1848881244659424,1.5509754419326782,1.3756226301193237
17923.68704337787,1.1495908498764038,1.184402346611023,1.5506516695022583,1.3752988576889038
17923.689043440198,1.1491050720214844,1.1839165687561035,1.5501658916473389,1.3748130798339844
17923.691043502524,1.1505622863769531,1.184402346611023,1.550004005432129,1.3756226301193237
17923.69304356485,1.1505622863769531,1.1840784549713135,1.5501658916473389,1.3757845163345337
17923.695043627176,1.1494289636611938,1.1837546825408936,1.5511374473571777,1.3759465217590332
17923.697043689503,1.1497527360916138,1.1840784549713135,1.5512993335723877,1.3756226301193237
17923.699043751825,1.1499146223068237,1.1837546825408936,1.5501658916473389,1.3759465217590332
17923.70104381415,1.1492670774459839,1.184402346611023,1.5495182275772095,1.3751369714736938
17923.703043876478,1.1495908498764038,1.1850500106811523,1.5509754419326782,1.3761084079742432
17923.705043938804,1.1494289636611938,1.184564232826233,1.5511374473571777,1.3757845163345337
17923.70704400113,1.1497527360916138,1.1848881244659424,1.5509754419326782,1.3744893074035645
17923.709044063457,1.148295521736145,1.1847261190414429,1.5506516695022583,1.373841643333435
17923.711044125783,1.1486194133758545,1.1839165687561035,1.5501658916473389,1.3748130798339844
17923.71304418811,1.148457407951355,1.1839165687561035,1.5509754419326782,1.3756226301193237
17923.715044250435,1.1495908498764038,1.1847261190414429,1.5508135557174683,1.3751369714736938
17923.71704431276,1.1495908498764038,1.1848881244659424,1.5503278970718384,1.3749749660491943
17923.719044375088,1.1497527360916138,1.184564232826233,1.549842119216919,1.3749749660491943
17923.721044437414,1.147971749305725,1.1848881244659424,1.550004005432129,1.374165415763855
17923.72304449974,1.1470001935958862,1.184402346611023,1.5501658916473389,1.374165415763855
17923.725044562067,1.1471621990203857,1.184240460395813,1.549680233001709,1.374165415763855
17923.727044624393,1.1476478576660156,1.1834309101104736,1.549680233001709,1.373841643333435
17923.72904468672,1.146028757095337,1.1829451322555542,1.549842119216919,1.3736796379089355
17923.731044749045,1.1473240852355957,1.1835927963256836,1.549680233001709,1.3748130798339844
17923.73304481137,1.1491050720214844,1.1835927963256836,1.549680233001709,1.374327301979065
17923.735044873698,1.148457407951355,1.1837546825408936,1.5487086772918701,1.374165415763855
17923.73704493602,1.1486194133758545,1.1840784549713135,1.5487086772918701,1.3746511936187744
17923.739044998347,1.1494289636611938,1.1827832460403442,1.5491944551467896,1.3746511936187744
17923.741045060673,1.148295521736145,1.1831070184707642,1.5490325689315796,1.3735177516937256
17923.743045123,1.1473240852355957,1.1837546825408936,1.5491944551467896,1.373841643333435
17923.745045185326,1.1478097438812256,1.184240460395813,1.5487086772918701,1.3746511936187744
17923.747045247652,1.148295521736145,1.1839165687561035,1.5485467910766602,1.374003529548645
17923.749045309978,1.1468383073806763,1.1847261190414429,1.5482228994369507,1.3736796379089355
17923.751045372304,1.147971749305725,1.1837546825408936,1.5475753545761108,1.3748130798339844
17923.75304543463,1.148457407951355,1.1834309101104736,1.5480610132217407,1.3744893074035645
17923.755045496957,1.147971749305725,1.1835927963256836,1.5478991270065308,1.3749749660491943
17923.757045559283,1.148457407951355,1.1832689046859741,1.5483849048614502,1.3751369714736938
17923.75904562161,1.1489431858062744,1.1831070184707642,1.5483849048614502,1.3759465217590332
17923.761045683936,1.1486194133758545,1.1824593544006348,1.5490325689315796,1.374165415763855
17923.763045746262,1.1471621990203857,1.1832689046859741,1.5490325689315796,1.3749749660491943
17923.76504580859,1.1465145349502563,1.1829451322555542,1.5483849048614502,1.3746511936187744
17923.767045870914,1.1465145349502563,1.1826212406158447,1.54887056350708,1.3749749660491943
17923.76904593324,1.145866870880127,1.1826212406158447,1.5490325689315796,1.3749749660491943
17923.771045995567,1.1473240852355957,1.1832689046859741,1.5485467910766602,1.3749749660491943
17923.773046057893,1.1486194133758545,1.1831070184707642,1.5472514629364014,1.3748130798339844
17923.77504612022,1.147971749305725,1.1831070184707642,1.5474133491516113,1.374003529548645
17923.777046182542,1.1476478576660156,1.1829451322555542,1.5480610132217407,1.374003529548645
17923.77904624487,1.148457407951355,1.1837546825408936,1.5478991270065308,1.3746511936187744
17923.781046307195,1.1473240852355957,1.1835927963256836,1.5487086772918701,1.373841643333435
17923.78304636952,1.1470001935958862,1.1839165687561035,1.5483849048614502,1.374003529548645
17923.785046431847,1.1471621990203857,1.1839165687561035,1.5477372407913208,1.3730320930480957
17923.787046494173,1.1474859714508057,1.1832689046859741,1.5477372407913208,1.3728700876235962
17923.7890465565,1.1471621990203857,1.1831070184707642,1.5483849048614502,1.3733558654785156
17923.791046618826,1.148295521736145,1.1822974681854248,1.5490325689315796,1.374327301979065
17923.793046681152,1.148457407951355,1.1819735765457153,1.54887056350708,1.3752988576889038
17923.79504674348,1.1486194133758545,1.1822974681854248,1.5482228994369507,1.3756226301193237
17923.797046805805,1.1487812995910645,1.1827832460403442,1.5482228994369507,1.3744893074035645
17923.79904686813,1.148457407951355,1.1831070184707642,1.5483849048614502,1.374003529548645
17923.801046930457,1.1471621990203857,1.1829451322555542,1.54887056350708,1.3736796379089355
17923.803046992783,1.1471621990203857,1.1818116903305054,1.5478991270065308,1.374327301979065
17923.80504705511,1.1474859714508057,1.1816498041152954,1.5482228994369507,1.374165415763855
17923.807047117436,1.1478097438812256,1.1821355819702148,1.5482228994369507,1.373841643333435
17923.809047179762,1.1470001935958862,1.1827832460403442,1.5490325689315796,1.3731939792633057
17923.81104724209,1.148133635520935,1.1826212406158447,1.5490325689315796,1.374165415763855
17923.813047304415,1.1491050720214844,1.1824593544006348,1.5490325689315796,1.3746511936187744
17923.81504736674,1.1491050720214844,1.1824593544006348,1.5495182275772095,1.3744893074035645
17923.817047429064,1.1486194133758545,1.1829451322555542,1.549680233001709,1.3746511936187744
17923.81904749139,1.1499146223068237,1.1827832460403442,1.549680233001709,1.374327301979065
17923.821047553716,1.148295521736145,1.1826212406158447,1.5493563413619995,1.373841643333435
17923.823047616042,1.147971749305725,1.1827832460403442,1.5493563413619995,1.374003529548645
17923.82504767837,1.1486194133758545,1.1829451322555542,1.549680233001709,1.374003529548645
17923.827047740695,1.1494289636611938,1.1832689046859741,1.550004005432129,1.374003529548645
17923.82904780302,1.1486194133758545,1.1831070184707642,1.5506516695022583,1.374003529548645
17923.831047865348,1.1502385139465332,1.1826212406158447,1.5511374473571777,1.3756226301193237
17923.833047927674,1.1504004001617432,1.1824593544006348,1.5512993335723877,1.3756226301193237
17923.83504799,1.1502385139465332,1.1824593544006348,1.5503278970718384,1.3744893074035645
17923.837048052326,1.1502385139465332,1.1831070184707642,1.5508135557174683,1.3746511936187744
17923.839048114653,1.1510480642318726,1.1829451322555542,1.5514612197875977,1.3748130798339844
17923.84104817698,1.1507242918014526,1.1832689046859741,1.5514612197875977,1.3748130798339844
17923.843048239305,1.1500766277313232,1.1832689046859741,1.5514612197875977,1.3748130798339844
17923.84504830163,1.1500766277313232,1.1837546825408936,1.5517851114273071,1.3752988576889038
17923.847048363958,1.1504004001617432,1.1831070184707642,1.552108883857727,1.374165415763855
17923.849048426284,1.1491050720214844,1.1835927963256836,1.5517851114273071,1.3733558654785156
17923.85104848861,1.1492670774459839,1.1835927963256836,1.5509754419326782,1.373841643333435
17923.853048550936,1.1500766277313232,1.1832689046859741,1.5508135557174683,1.3748130798339844
17923.855048613263,1.1500766277313232,1.1835927963256836,1.5512993335723877,1.3756226301193237
17923.857048675585,1.1495908498764038,1.1829451322555542,1.5512993335723877,1.3752988576889038
17923.85904873791,1.1512099504470825,1.1829451322555542,1.5516231060028076,1.3748130798339844
17923.861048800238,1.1507242918014526,1.1829451322555542,1.551946997642517,1.3749749660491943
17923.863048862564,1.1508861780166626,1.1840784549713135,1.552108883857727,1.3744893074035645
17923.86504892489,1.151371955871582,1.184402346611023,1.5514612197875977,1.3748130798339844
17923.867048987217,1.151371955871582,1.184402346611023,1.5509754419326782,1.3749749660491943
17923.869049049543,1.1494289636611938,1.1837546825408936,1.5511374473571777,1.374003529548645
17923.87104911187,1.1497527360916138,1.1837546825408936,1.5517851114273071,1.3744893074035645
17923.873049174195,1.1512099504470825,1.1826212406158447,1.5527565479278564,1.374003529548645
17923.87504923652,1.1507242918014526,1.1819735765457153,1.5524327754974365,1.374327301979065
17923.877049298848,1.1505622863769531,1.1821355819702148,1.551946997642517,1.3746511936187744
17923.879049361174,1.1508861780166626,1.1818116903305054,1.5512993335723877,1.3736796379089355
17923.8810494235,1.1500766277313232,1.1824593544006348,1.5506516695022583,1.3731939792633057
17923.883049485827,1.1494289636611938,1.1824593544006348,1.550004005432129,1.3733558654785156
17923.885049548153,1.1487812995910645,1.1819735765457153,1.5501658916473389,1.373841643333435
17923.88704961048,1.1492670774459839,1.181002140045166,1.5491944551467896,1.374003529548645
17923.889049672805,1.148457407951355,1.1818116903305054,1.5495182275772095,1.3731939792633057
17923.89104973513,1.1489431858062744,1.1818116903305054,1.5487086772918701,1.3736796379089355
17923.893049797458,1.1494289636611938,1.1822974681854248,1.5493563413619995,1.374003529548645
17923.895049859784,1.1494289636611938,1.1819735765457153,1.5493563413619995,1.374165415763855
17923.897049922107,1.1495908498764038,1.1816498041152954,1.5490325689315796,1.3736796379089355
17923.899049984433,1.1494289636611938,1.1814879179000854,1.5487086772918701,1.3735177516937256
17923.90105004676,1.1486194133758545,1.181164026260376,1.5485467910766602,1.3733558654785156
17923.903050109086,1.147971749305725,1.1803544759750366,1.5482228994369507,1.3730320930480957
17923.905050171412,1.148457407951355,1.1813260316848755,1.5478991270065308,1.3722224235534668
17923.907050233738,1.148295521736145,1.180840253829956,1.5483849048614502,1.3723844289779663
17923.909050296064,1.1476478576660156,1.181002140045166,1.5478991270065308,1.3718986511230469
17923.91105035839,1.148133635520935,1.1814879179000854,1.5480610132217407,1.3723844289779663
17923.913050420717,1.148295521736145,1.180840253829956,1.5477372407913208,1.3731939792633057
17923.915050483043,1.148133635520935,1.181164026260376,1.5478991270065308,1.3730320930480957
17923.91705054537,1.148295521736145,1.181164026260376,1.5475753545761108,1.3733558654785156
17923.919050607696,1.1492670774459839,1.181164026260376,1.54887056350708,1.3736796379089355
17923.921050670022,1.148457407951355,1.180678367614746,1.5491944551467896,1.3725463151931763
17923.92305073235,1.148295521736145,1.180678367614746,1.5491944551467896,1.3733558654785156
17923.925050794674,1.1495908498764038,1.180678367614746,1.549842119216919,1.3725463151931763
17923.927050857,1.1487812995910645,1.181164026260376,1.5504897832870483,1.3725463151931763
17923.929050919327,1.1474859714508057,1.1826212406158447,1.5503278970718384,1.3731939792633057
17923.931050981653,1.1502385139465332,1.1821355819702148,1.5493563413619995,1.373841643333435
17923.93305104398,1.1505622863769531,1.1821355819702148,1.5501658916473389,1.3728700876235962
17923.935051106302,1.1495908498764038,1.1824593544006348,1.550004005432129,1.3733558654785156
17923.93705116863,1.1500766277313232,1.1816498041152954,1.549680233001709,1.3736796379089355
17923.939051230955,1.151857614517212,1.1816498041152954,1.5495182275772095,1.373841643333435
17923.94105129328,1.151371955871582,1.1819735765457153,1.5501658916473389,1.373841643333435
17923.943051355607,1.1507242918014526,1.1824593544006348,1.549680233001709,1.3744893074035645
17923.945051417933,1.151695728302002,1.1831070184707642,1.5503278970718384,1.3746511936187744
17923.94705148026,1.151533842086792,1.1824593544006348,1.5509754419326782,1.3735177516937256
17923.949051542586,1.1500766277313232,1.1819735765457153,1.5516231060028076,1.3735177516937256
17923.951051604912,1.1525052785873413,1.1821355819702148,1.5516231060028076,1.3744893074035645
17923.95305166724,1.1525052785873413,1.1816498041152954,1.5516231060028076,1.3748130798339844
17923.955051729565,1.1534768342971802,1.1822974681854248,1.5517851114273071,1.3757845163345337
17923.95705179189,1.1538006067276,1.1819735765457153,1.5509754419326782,1.3757845163345337
17923.959051854217,1.15396249294281,1.1821355819702148,1.5516231060028076,1.3757845163345337
17923.961051916544,1.1525052785873413,1.1821355819702148,1.552270770072937,1.3746511936187744
17923.96305197887,1.1529910564422607,1.1821355819702148,1.5527565479278564,1.3746511936187744
17923.965052041196,1.1533148288726807,1.1822974681854248,1.552108883857727,1.3746511936187744
17923.967052103522,1.1536387205123901,1.1824593544006348,1.5525946617126465,1.3746511936187744
17923.96905216585,1.1529910564422607,1.1824593544006348,1.5524327754974365,1.374327301979065
17923.971052228175,1.1534768342971802,1.1822974681854248,1.552270770072937,1.3749749660491943
17923.9730522905,1.1541244983673096,1.1818116903305054,1.5530803203582764,1.3749749660491943
17923.975052352824,1.1542863845825195,1.1818116903305054,1.5530803203582764,1.3756226301193237
17923.97705241515,1.1541244983673096,1.1813260316848755,1.5532423257827759,1.3756226301193237
17923.979052477476,1.1547720432281494,1.1821355819702148,1.5527565479278564,1.3756226301193237
17923.981052539802,1.1538006067276,1.1826212406158447,1.5527565479278564,1.3751369714736938
17923.98305260213,1.1531529426574707,1.1813260316848755,1.5534042119979858,1.374327301979065
17923.985052664455,1.1546101570129395,1.180678367614746,1.5529184341430664,1.3751369714736938
17923.98705272678,1.1542863845825195,1.181002140045166,1.5524327754974365,1.374327301979065
17923.989052789108,1.1526671648025513,1.181164026260376,1.552270770072937,1.373841643333435
17923.991052851434,1.1541244983673096,1.1822974681854248,1.5516231060028076,1.3744893074035645
17923.99305291376,1.1550959348678589,1.1821355819702148,1.5525946617126465,1.3749749660491943
17923.995052976086,1.1542863845825195,1.1816498041152954,1.5532423257827759,1.3749749660491943
17923.997053038413,1.1538006067276,1.181002140045166,1.5529184341430664,1.374165415763855
17923.99905310074,1.1547720432281494,1.1818116903305054,1.551946997642517,1.3746511936187744
17924.001053163065,1.1536387205123901,1.1819735765457153,1.5512993335723877,1.374003529548645
17924.00305322539,1.1534768342971802,1.1813260316848755,1.5511374473571777,1.373841643333435
17924.005053287718,1.1533148288726807,1.181002140045166,1.5516231060028076,1.3735177516937256
17924.007053350044,1.1534768342971802,1.180840253829956,1.5514612197875977,1.3728700876235962
17924.00905341237,1.1521815061569214,1.1803544759750366,1.5509754419326782,1.3723844289779663
17924.011053474696,1.1528291702270508,1.1803544759750366,1.549842119216919,1.3725463151931763
17924.013053537023,1.1529910564422607,1.1798686981201172,1.549842119216919,1.3728700876235962
17924.015053599345,1.1526671648025513,1.1805163621902466,1.5490325689315796,1.3730320930480957
17924.01705366167,1.1523433923721313,1.180678367614746,1.5491944551467896,1.3736796379089355
17924.019053723998,1.1536387205123901,1.181002140045166,1.549842119216919,1.374165415763855
17924.021053786324,1.151533842086792,1.180678367614746,1.549680233001709,1.3736796379089355
17924.02305384865,1.1494289636611938,1.1795449256896973,1.5495182275772095,1.3730320930480957
17924.025053910977,1.1499146223068237,1.1792210340499878,1.5501658916473389,1.3718986511230469
17924.027053973303,1.1508861780166626,1.1790591478347778,1.5495182275772095,1.3718986511230469
17924.02905403563,1.1505622863769531,1.1790591478347778,1.54887056350708,1.3718986511230469
17924.031054097955,1.151857614517212,1.1795449256896973,1.5487086772918701,1.3720605373382568
17924.03305416028,1.151695728302002,1.1790591478347778,1.5487086772918701,1.3722224235534668
17924.035054222608,1.151533842086792,1.1798686981201172,1.5485467910766602,1.3722224235534668
17924.037054284934,1.1512099504470825,1.1803544759750366,1.5485467910766602,1.3725463151931763
17924.03905434726,1.1525052785873413,1.1801925897598267,1.5480610132217407,1.3725463151931763
17924.041054409587,1.1520196199417114,1.1801925897598267,1.5482228994369507,1.3715747594833374
17924.043054471913,1.1510480642318726,1.178735375404358,1.5493563413619995,1.3715747594833374
17924.04505453424,1.1510480642318726,1.1793830394744873,1.5491944551467896,1.3730320930480957
17924.047054596565,1.1520196199417114,1.1797068119049072,1.54887056350708,1.3736796379089355
17924.04905465889,1.1502385139465332,1.1793830394744873,1.54887056350708,1.374003529548645
17924.051054721218,1.151857614517212,1.178735375404358,1.5483849048614502,1.3728700876235962
17924.053054783544,1.1538006067276,1.1788972616195679,1.5487086772918701,1.3733558654785156
17924.055054845867,1.15396249294281,1.1795449256896973,1.5493563413619995,1.3736796379089355
17924.057054908193,1.1538006067276,1.1798686981201172,1.54887056350708,1.374003529548645
17924.05905497052,1.1533148288726807,1.1797068119049072,1.5487086772918701,1.3733558654785156
17924.061055032846,1.1528291702270508,1.1800307035446167,1.5487086772918701,1.3728700876235962
17924.063055095172,1.1523433923721313,1.1798686981201172,1.54887056350708,1.3728700876235962
17924.065055157498,1.1528291702270508,1.1792210340499878,1.5495182275772095,1.3728700876235962
17924.067055219824,1.1538006067276,1.1792210340499878,1.5495182275772095,1.3733558654785156
17924.06905528215,1.1533148288726807,1.1790591478347778,1.549842119216919,1.3733558654785156
17924.071055344477,1.1547720432281494,1.1795449256896973,1.5503278970718384,1.3746511936187744
17924.073055406803,1.1552578210830688,1.1792210340499878,1.5516231060028076,1.3736796379089355
17924.07505546913,1.1544482707977295,1.1797068119049072,1.5516231060028076,1.3735177516937256
17924.077055531456,1.1550959348678589,1.1803544759750366,1.5511374473571777,1.374327301979065
17924.079055593782,1.1560673713684082,1.1793830394744873,1.5509754419326782,1.3746511936187744
17924.08105565611,1.1552578210830688,1.1795449256896973,1.5511374473571777,1.3736796379089355
17924.083055718434,1.1547720432281494,1.1793830394744873,1.549842119216919,1.3731939792633057
17924.08505578076,1.154934048652649,1.1795449256896973,1.5495182275772095,1.3733558654785156
17924.087055843087,1.1554197072982788,1.1788972616195679,1.5511374473571777,1.3733558654785156
17924.089055905413,1.1547720432281494,1.1784114837646484,1.5516231060028076,1.3733558654785156
17924.09105596774,1.1560673713684082,1.1792210340499878,1.5509754419326782,1.3735177516937256
17924.093056030062,1.157038927078247,1.1805163621902466,1.5511374473571777,1.374165415763855
17924.09505609239,1.1567150354385376,1.181002140045166,1.5517851114273071,1.3736796379089355
17924.097056154715,1.1559054851531982,1.1800307035446167,1.5514612197875977,1.374165415763855
17924.09905621704,1.157524585723877,1.1790591478347778,1.5512993335723877,1.374327301979065
17924.101056279367,1.1563912630081177,1.1797068119049072,1.5514612197875977,1.3744893074035645
17924.103056341693,1.1563912630081177,1.1793830394744873,1.552108883857727,1.374165415763855
17924.10505640402,1.1565531492233276,1.1803544759750366,1.552108883857727,1.3746511936187744
17924.107056466346,1.157038927078247,1.1801925897598267,1.552108883857727,1.3736796379089355
17924.109056528672,1.1550959348678589,1.1792210340499878,1.551946997642517,1.3733558654785156
17924.111056591,1.1565531492233276,1.1790591478347778,1.552108883857727,1.374165415763855
17924.113056653325,1.157362699508667,1.178735375404358,1.5524327754974365,1.3746511936187744
17924.11505671565,1.157200813293457,1.1788972616195679,1.5530803203582764,1.374165415763855
17924.117056777977,1.157038927078247,1.1782495975494385,1.5525946617126465,1.3748130798339844
17924.119056840304,1.157362699508667,1.178735375404358,1.552108883857727,1.3744893074035645
17924.12105690263,1.1560673713684082,1.1792210340499878,1.5516231060028076,1.3735177516937256
17924.123056964956,1.1554197072982788,1.1788972616195679,1.5524327754974365,1.3728700876235962
17924.125057027282,1.1559054851531982,1.1779258251190186,1.5527565479278564,1.3733558654785156
17924.12705708961,1.1555817127227783,1.1792210340499878,1.5508135557174683,1.3727082014083862
17924.129057151935,1.1554197072982788,1.178735375404358,1.5512993335723877,1.3730320930480957
17924.13105721426,1.1565531492233276,1.1792210340499878,1.5517851114273071,1.3730320930480957
17924.133057276584,1.157200813293457,1.1797068119049072,1.5527565479278564,1.373841643333435
17924.13505733891,1.157362699508667,1.1793830394744873,1.5524327754974365,1.374165415763855
17924.137057401236,1.1567150354385376,1.1792210340499878,1.5529184341430664,1.3746511936187744
17924.139057463562,1.157038927078247,1.1795449256896973,1.552108883857727,1.374327301979065
17924.14105752589,1.1560673713684082,1.1797068119049072,1.552108883857727,1.3731939792633057
17924.143057588215,1.1552578210830688,1.1790591478347778,1.5511374473571777,1.3733558654785156
17924.14505765054,1.1559054851531982,1.178573489189148,1.5511374473571777,1.3727082014083862
17924.147057712868,1.1560673713684082,1.1790591478347778,1.5514612197875977,1.3731939792633057
17924.149057775194,1.154934048652649,1.1790591478347778,1.5517851114273071,1.374165415763855
17924.15105783752,1.154934048652649,1.1792210340499878,1.5503278970718384,1.3748130798339844
17924.153057899846,1.1557435989379883,1.1790591478347778,1.5504897832870483,1.374165415763855
17924.155057962173,1.1565531492233276,1.1795449256896973,1.5501658916473389,1.3731939792633057
17924.1570580245,1.1555817127227783,1.1793830394744873,1.549680233001709,1.373841643333435
17924.159058086825,1.1568769216537476,1.178735375404358,1.5487086772918701,1.374003529548645
17924.16105814915,1.1554197072982788,1.1782495975494385,1.5495182275772095,1.3723844289779663
17924.163058211478,1.1552578210830688,1.1780877113342285,1.5509754419326782,1.3730320930480957
17924.165058273804,1.1554197072982788,1.1788972616195679,1.5508135557174683,1.3733558654785156
17924.16705833613,1.1552578210830688,1.1793830394744873,1.5504897832870483,1.3730320930480957
17924.169058398456,1.1544482707977295,1.1792210340499878,1.550004005432129,1.3733558654785156
17924.171058460783,1.1555817127227783,1.1788972616195679,1.550004005432129,1.3735177516937256
17924.173058523105,1.1557435989379883,1.1788972616195679,1.5511374473571777,1.3733558654785156
17924.17505858543,1.1557435989379883,1.1782495975494385,1.550004005432129,1.3735177516937256
17924.177058647758,1.1563912630081177,1.1792210340499878,1.5509754419326782,1.374327301979065
17924.179058710084,1.157524585723877,1.1792210340499878,1.5517851114273071,1.3749749660491943
17924.18105877241,1.1568769216537476,1.1793830394744873,1.5514612197875977,1.3744893074035645
17924.183058834737,1.1560673713684082,1.1800307035446167,1.5511374473571777,1.374003529548645
17924.185058897063,1.1557435989379883,1.1790591478347778,1.5517851114273071,1.374003529548645
17924.18705895939,1.1562293767929077,1.1790591478347778,1.551946997642517,1.374003529548645
17924.189059021715,1.1555817127227783,1.1792210340499878,1.551946997642517,1.374003529548645
17924.19105908404,1.157038927078247,1.1784114837646484,1.552270770072937,1.373841643333435
17924.193059146368,1.157038927078247,1.1788972616195679,1.552270770072937,1.3746511936187744
17924.195059208694,1.157362699508667,1.1790591478347778,1.552270770072937,1.374327301979065
17924.19705927102,1.157524585723877,1.1788972616195679,1.552108883857727,1.374003529548645
17924.199059333347,1.1583342552185059,1.1788972616195679,1.552270770072937,1.374327301979065
17924.201059395673,1.1578484773635864,1.178735375404358,1.5516231060028076,1.373841643333435
17924.203059458,1.1568769216537476,1.1780877113342285,1.5512993335723877,1.374327301979065
17924.205059520325,1.1565531492233276,1.1772781610488892,1.5514612197875977,1.374003529548645
17924.20705958265,1.1565531492233276,1.1779258251190186,1.5512993335723877,1.374327301979065
17924.209059644978,1.1546101570129395,1.178735375404358,1.5516231060028076,1.373841643333435
17924.211059707304,1.1552578210830688,1.178573489189148,1.5517851114273071,1.3744893074035645
17924.213059769627,1.1563912630081177,1.1792210340499878,1.5508135557174683,1.3733558654785156
17924.215059831953,1.1567150354385376,1.1798686981201172,1.5503278970718384,1.3730320930480957
17924.21705989428,1.1563912630081177,1.178735375404358,1.5511374473571777,1.3728700876235962
17924.219059956606,1.1562293767929077,1.1784114837646484,1.5512993335723877,1.3725463151931763
17924.221060018932,1.1565531492233276,1.178735375404358,1.5517851114273071,1.3718986511230469
17924.223060081258,1.1559054851531982,1.178573489189148,1.5517851114273071,1.371736764907837
17924.225060143584,1.1546101570129395,1.1784114837646484,1.5509754419326782,1.3722224235534668
17924.22706020591,1.1550959348678589,1.1779258251190186,1.550004005432129,1.3731939792633057
17924.229060268237,1.1544482707977295,1.178735375404358,1.550004005432129,1.3723844289779663
17924.231060330563,1.1557435989379883,1.1790591478347778,1.5504897832870483,1.3731939792633057
17924.23306039289,1.1565531492233276,1.1793830394744873,1.549842119216919,1.3731939792633057
17924.235060455216,1.1559054851531982,1.1798686981201172,1.5493563413619995,1.3728700876235962
17924.237060517542,1.1547720432281494,1.178735375404358,1.5495182275772095,1.3730320930480957
17924.23906057987,1.1546101570129395,1.1793830394744873,1.550004005432129,1.3727082014083862
17924.241060642194,1.1542863845825195,1.1793830394744873,1.5503278970718384,1.3725463151931763
17924.24306070452,1.1544482707977295,1.1790591478347778,1.549842119216919,1.3728700876235962
17924.245060766847,1.1550959348678589,1.178573489189148,1.5501658916473389,1.3727082014083862
17924.247060829173,1.1541244983673096,1.1782495975494385,1.5501658916473389,1.3723844289779663
17924.2490608915,1.1541244983673096,1.1784114837646484,1.549842119216919,1.3722224235534668
17924.251060953826,1.154934048652649,1.178573489189148,1.5508135557174683,1.3736796379089355
17924.25306101615,1.1554197072982788,1.1784114837646484,1.5512993335723877,1.3733558654785156
17924.255061078475,1.1546101570129395,1.1788972616195679,1.5508135557174683,1.3723844289779663
17924.2570611408,1.1554197072982788,1.1788972616195679,1.5511374473571777,1.3728700876235962
17924.259061203127,1.1554197072982788,1.1793830394744873,1.5511374473571777,1.373841643333435
17924.261061265453,1.1536387205123901,1.1793830394744873,1.552270770072937,1.3733558654785156
17924.26306132778,1.1533148288726807,1.1788972616195679,1.552270770072937,1.3728700876235962
17924.265061390106,1.1546101570129395,1.178735375404358,1.5514612197875977,1.3718986511230469
17924.267061452432,1.1557435989379883,1.178573489189148,1.552108883857727,1.3725463151931763
17924.26906151476,1.1554197072982788,1.1788972616195679,1.5530803203582764,1.371736764907837
17924.271061577085,1.1554197072982788,1.178573489189148,1.552108883857727,1.3725463151931763
17924.27306163941,1.1560673713684082,1.1792210340499878,1.5524327754974365,1.3727082014083862
17924.275061701737,1.1557435989379883,1.1792210340499878,1.5517851114273071,1.3725463151931763
17924.277061764064,1.1567150354385376,1.1798686981201172,1.5517851114273071,1.3730320930480957
17924.27906182639,1.1576865911483765,1.1793830394744873,1.5512993335723877,1.3728700876235962
17924.281061888716,1.157038927078247,1.1790591478347778,1.552108883857727,1.3728700876235962
17924.283061951042,1.1565531492233276,1.1792210340499878,1.5527565479278564,1.3730320930480957
17924.28506201337,1.1557435989379883,1.1797068119049072,1.552108883857727,1.3728700876235962
17924.287062075695,1.1555817127227783,1.1800307035446167,1.5527565479278564,1.3735177516937256
17924.28906213802,1.1557435989379883,1.1798686981201172,1.5529184341430664,1.3733558654785156
17924.291062200344,1.157524585723877,1.180678367614746,1.5532423257827759,1.374003529548645
17924.29306226267,1.157200813293457,1.180840253829956,1.5534042119979858,1.374327301979065
17924.295062324996,1.1563912630081177,1.1805163621902466,1.5524327754974365,1.374165415763855
17924.297062387323,1.1562293767929077,1.1803544759750366,1.5527565479278564,1.374165415763855
17924.29906244965,1.157362699508667,1.1800307035446167,1.5530803203582764,1.3744893074035645
17924.301062511975,1.1555817127227783,1.1805163621902466,1.5529184341430664,1.3733558654785156
17924.3030625743,1.1554197072982788,1.1803544759750366,1.552270770072937,1.3736796379089355
17924.305062636628,1.1563912630081177,1.1801925897598267,1.552108883857727,1.373841643333435
17924.307062698954,1.1563912630081177,1.1801925897598267,1.552108883857727,1.373841643333435
17924.30906276128,1.1555817127227783,1.180678367614746,1.5530803203582764,1.3736796379089355
17924.311062823606,1.1562293767929077,1.181002140045166,1.5527565479278564,1.3744893074035645
17924.313062885933,1.1562293767929077,1.181164026260376,1.5534042119979858,1.374327301979065
17924.31506294826,1.1567150354385376,1.1803544759750366,1.5540518760681152,1.3736796379089355
17924.317063010585,1.157200813293457,1.1793830394744873,1.5540518760681152,1.373841643333435
17924.31906307291,1.1583342552185059,1.1797068119049072,1.5538899898529053,1.3744893074035645
17924.321063135238,1.157038927078247,1.1801925897598267,1.5529184341430664,1.374165415763855
17924.323063197564,1.1568769216537476,1.1800307035446167,1.552108883857727,1.3746511936187744
17924.32506325989,1.157038927078247,1.180678367614746,1.5525946617126465,1.374003529548645
17924.327063322216,1.1562293767929077,1.1793830394744873,1.5529184341430664,1.374327301979065
17924.329063384543,1.1546101570129395,1.1793830394744873,1.5537279844284058,1.374003529548645
17924.331063446865,1.1563912630081177,1.1797068119049072,1.5535660982131958,1.3749749660491943
17924.33306350919,1.1568769216537476,1.1797068119049072,1.5529184341430664,1.374327301979065
17924.335063571518,1.1563912630081177,1.1795449256896973,1.5535660982131958,1.3733558654785156
17924.337063633844,1.1560673713684082,1.1798686981201172,1.5534042119979858,1.3733558654785156
17924.33906369617,1.157200813293457,1.1801925897598267,1.5530803203582764,1.3744893074035645
17924.341063758497,1.1568769216537476,1.1805163621902466,1.5525946617126465,1.3733558654785156
17924.343063820823,1.1565531492233276,1.1801925897598267,1.5529184341430664,1.3736796379089355
17924.34506388315,1.1557435989379883,1.1795449256896973,1.552270770072937,1.374003529548645
17924.347063945475,1.1544482707977295,1.1790591478347778,1.551946997642517,1.373841643333435
17924.3490640078,1.1538006067276,1.1795449256896973,1.5517851114273071,1.3736796379089355
17924.351064070128,1.1544482707977295,1.1800307035446167,1.5517851114273071,1.3735177516937256
17924.353064132454,1.1568769216537476,1.1797068119049072,1.5514612197875977,1.3735177516937256
17924.35506419478,1.1563912630081177,1.1790591478347778,1.5516231060028076,1.3730320930480957
17924.357064257107,1.1554197072982788,1.1798686981201172,1.5512993335723877,1.3736796379089355
17924.359064319433,1.1557435989379883,1.1797068119049072,1.5511374473571777,1.3733558654785156
17924.36106438176,1.1547720432281494,1.1798686981201172,1.5512993335723877,1.3727082014083862
17924.363064444085,1.1550959348678589,1.1797068119049072,1.5509754419326782,1.3730320930480957
17924.36506450641,1.15396249294281,1.1798686981201172,1.5512993335723877,1.3730320930480957
17924.367064568738,1.1529910564422607,1.1797068119049072,1.5511374473571777,1.3733558654785156
17924.369064631064,1.1528291702270508,1.1795449256896973,1.5501658916473389,1.3730320930480957
17924.371064693387,1.1529910564422607,1.1792210340499878,1.5506516695022583,1.373841643333435
17924.373064755713,1.1542863845825195,1.1788972616195679,1.5516231060028076,1.3731939792633057
17924.37506481804,1.1536387205123901,1.1800307035446167,1.5511374473571777,1.3727082014083862
17924.377064880366,1.1529910564422607,1.1801925897598267,1.5506516695022583,1.3730320930480957
17924.379064942692,1.15396249294281,1.1797068119049072,1.549842119216919,1.3731939792633057
17924.381065005018,1.1534768342971802,1.1795449256896973,1.5504897832870483,1.373841643333435
17924.383065067344,1.1521815061569214,1.1798686981201172,1.5509754419326782,1.3744893074035645
17924.38506512967,1.151533842086792,1.1800307035446167,1.5512993335723877,1.373841643333435
17924.387065191997,1.1523433923721313,1.1801925897598267,1.549842119216919,1.3731939792633057
17924.389065254323,1.1505622863769531,1.178735375404358,1.549842119216919,1.3720605373382568
17924.39106531665,1.1523433923721313,1.1790591478347778,1.5504897832870483,1.3723844289779663
17924.393065378976,1.1531529426574707,1.1793830394744873,1.5509754419326782,1.3722224235534668
17924.395065441302,1.1528291702270508,1.1797068119049072,1.5503278970718384,1.3723844289779663
17924.39706550363,1.1523433923721313,1.1801925897598267,1.5501658916473389,1.3722224235534668
17924.399065565955,1.1529910564422607,1.1801925897598267,1.550004005432129,1.3727082014083862
17924.40106562828,1.151695728302002,1.1797068119049072,1.5495182275772095,1.3728700876235962
17924.403065690607,1.1508861780166626,1.1798686981201172,1.5490325689315796,1.3715747594833374
17924.405065752933,1.1505622863769531,1.1793830394744873,1.5483849048614502,1.3715747594833374
17924.40706581526,1.1504004001617432,1.1797068119049072,1.5482228994369507,1.3710891008377075
17924.409065877586,1.1495908498764038,1.1801925897598267,1.5480610132217407,1.3712509870529175
17924.41106593991,1.1492670774459839,1.1790591478347778,1.5483849048614502,1.3722224235534668
17924.413066002235,1.1492670774459839,1.1788972616195679,1.5478991270065308,1.3714128732681274
17924.41506606456,1.1494289636611938,1.1795449256896973,1.5478991270065308,1.3714128732681274
17924.417066126887,1.1502385139465332,1.1795449256896973,1.5475753545761108,1.3722224235534668
17924.419066189213,1.1508861780166626,1.1797068119049072,1.5477372407913208,1.3720605373382568
17924.42106625154,1.1495908498764038,1.1803544759750366,1.5490325689315796,1.3714128732681274
17924.423066313866,1.1487812995910645,1.180840253829956,1.54887056350708,1.370603322982788
17924.425066376192,1.1494289636611938,1.1798686981201172,1.5483849048614502,1.3710891008377075
17924.42706643852,1.1495908498764038,1.1798686981201172,1.54887056350708,1.3722224235534668
17924.429066500845,1.1487812995910645,1.1801925897598267,1.5493563413619995,1.3709272146224976
17924.43106656317,1.1495908498764038,1.180840253829956,1.5491944551467896,1.3714128732681274
17924.433066625497,1.1495908498764038,1.181164026260376,1.5493563413619995,1.370765209197998
17924.435066687824,1.1500766277313232,1.181164026260376,1.549680233001709,1.371736764907837
17924.43706675015,1.1508861780166626,1.180840253829956,1.550004005432129,1.3712509870529175
17924.439066812476,1.151371955871582,1.1803544759750366,1.5504897832870483,1.3722224235534668
17924.441066874802,1.1512099504470825,1.1814879179000854,1.5504897832870483,1.3718986511230469
17924.44306693713,1.151371955871582,1.1814879179000854,1.5503278970718384,1.3710891008377075
17924.445066999455,1.1520196199417114,1.180840253829956,1.5509754419326782,1.3720605373382568
17924.44706706178,1.1521815061569214,1.181002140045166,1.5508135557174683,1.3718986511230469
17924.449067124107,1.1512099504470825,1.1805163621902466,1.5501658916473389,1.370765209197998
17924.45106718643,1.1521815061569214,1.1800307035446167,1.5508135557174683,1.3722224235534668
17924.453067248756,1.1528291702270508,1.1803544759750366,1.551946997642517,1.3722224235534668
17924.455067311083,1.1528291702270508,1.1805163621902466,1.5525946617126465,1.3725463151931763
17924.45706737341,1.1534768342971802,1.181002140045166,1.552108883857727,1.3736796379089355
17924.459067435735,1.1541244983673096,1.1803544759750366,1.552108883857727,1.3730320930480957
17924.46106749806,1.1531529426574707,1.181164026260376,1.5524327754974365,1.3720605373382568
17924.463067560388,1.1523433923721313,1.1821355819702148,1.5529184341430664,1.3730320930480957
17924.465067622714,1.1525052785873413,1.1814879179000854,1.552270770072937,1.3731939792633057
17924.46706768504,1.1523433923721313,1.1805163621902466,1.5525946617126465,1.3727082014083862
17924.469067747366,1.1520196199417114,1.180678367614746,1.5532423257827759,1.3722224235534668
17924.471067809693,1.1526671648025513,1.1813260316848755,1.5527565479278564,1.3725463151931763
17924.47306787202,1.1538006067276,1.1822974681854248,1.5534042119979858,1.3723844289779663
17924.475067934345,1.1538006067276,1.1818116903305054,1.5535660982131958,1.3723844289779663
17924.47706799667,1.1536387205123901,1.1821355819702148,1.5540518760681152,1.3728700876235962
17924.479068058998,1.1546101570129395,1.1816498041152954,1.5546995401382446,1.3736796379089355
17924.481068121324,1.1542863845825195,1.1819735765457153,1.5548614263534546,1.3731939792633057
17924.48306818365,1.15396249294281,1.1816498041152954,1.5545376539230347,1.3728700876235962
17924.485068245976,1.15396249294281,1.1816498041152954,1.5548614263534546,1.3735177516937256
17924.487068308303,1.1542863845825195,1.1818116903305054,1.555832862854004,1.374003529548645
17924.489068370625,1.1529910564422607,1.1821355819702148,1.5561567544937134,1.3735177516937256
17924.49106843295,1.1544482707977295,1.1824593544006348,1.555670976638794,1.3733558654785156
17924.493068495278,1.1557435989379883,1.1822974681854248,1.555670976638794,1.3735177516937256
17924.495068557604,1.1563912630081177,1.1821355819702148,1.555509090423584,1.3735177516937256
17924.49706861993,1.1565531492233276,1.1818116903305054,1.5561567544937134,1.3733558654785156
17924.499068682257,1.157038927078247,1.1827832460403442,1.5563186407089233,1.374003529548645
17924.501068744583,1.1557435989379883,1.1827832460403442,1.5559948682785034,1.373841643333435
17924.50306880691,1.1547720432281494,1.1822974681854248,1.555670976638794,1.373841643333435
17924.505068869235,1.1542863845825195,1.1824593544006348,1.555185317993164,1.3728700876235962
17924.50706893156,1.1552578210830688,1.1822974681854248,1.555509090423584,1.3725463151931763
17924.509068993888,1.1544482707977295,1.1829451322555542,1.555832862854004,1.3723844289779663
17924.511069056214,1.1544482707977295,1.1822974681854248,1.5550233125686646,1.3728700876235962
17924.51306911854,1.1546101570129395,1.1827832460403442,1.5550233125686646,1.374003529548645
17924.515069180867,1.1555817127227783,1.1822974681854248,1.5546995401382446,1.374327301979065
17924.517069243193,1.1557435989379883,1.1826212406158447,1.555670976638794,1.3736796379089355
17924.51906930552,1.1560673713684082,1.1819735765457153,1.5561567544937134,1.374003529548645
17924.521069367845,1.1557435989379883,1.1818116903305054,1.555832862854004,1.3736796379089355
17924.52306943017,1.1544482707977295,1.1821355819702148,1.5550233125686646,1.374003529548645
17924.525069492498,1.1529910564422607,1.1818116903305054,1.555185317993164,1.3733558654785156
17924.527069554824,1.1528291702270508,1.1824593544006348,1.5550233125686646,1.3735177516937256
17924.529069617147,1.1521815061569214,1.1832689046859741,1.5542137622833252,1.3733558654785156
17924.531069679473,1.1533148288726807,1.1827832460403442,1.5550233125686646,1.374327301979065
17924.5330697418,1.1544482707977295,1.1822974681854248,1.555347204208374,1.3733558654785156
17924.535069804126,1.15396249294281,1.1821355819702148,1.5543756484985352,1.3731939792633057
17924.537069866452,1.1534768342971802,1.1822974681854248,1.5537279844284058,1.3728700876235962
17924.53906992878,1.1544482707977295,1.1819735765457153,1.5546995401382446,1.3735177516937256
17924.541069991104,1.1529910564422607,1.1829451322555542,1.5535660982131958,1.3733558654785156
17924.54307005343,1.151857614517212,1.1837546825408936,1.551946997642517,1.3736796379089355
17924.545070115757,1.1520196199417114,1.1831070184707642,1.552270770072937,1.3733558654785156
17924.547070178083,1.1529910564422607,1.1821355819702148,1.552270770072937,1.3727082014083862
17924.54907024041,1.151695728302002,1.1819735765457153,1.5529184341430664,1.3723844289779663
17924.551070302736,1.1526671648025513,1.1816498041152954,1.5532423257827759,1.3727082014083862
17924.553070365062,1.1531529426574707,1.1814879179000854,1.552270770072937,1.3723844289779663
17924.55507042739,1.1534768342971802,1.1824593544006348,1.5517851114273071,1.3727082014083862
17924.557070489715,1.1531529426574707,1.1826212406158447,1.5525946617126465,1.3728700876235962
17924.55907055204,1.1531529426574707,1.1824593544006348,1.5529184341430664,1.374003529548645
17924.561070614367,1.1525052785873413,1.1814879179000854,1.5525946617126465,1.3725463151931763
17924.563070676693,1.151371955871582,1.1816498041152954,1.5517851114273071,1.3712509870529175
17924.56507073902,1.1508861780166626,1.1816498041152954,1.552270770072937,1.3720605373382568
17924.567070801346,1.1505622863769531,1.181164026260376,1.551946997642517,1.3720605373382568
17924.56907086367,1.1505622863769531,1.1813260316848755,1.552270770072937,1.3720605373382568
17924.571070925995,1.1507242918014526,1.1819735765457153,1.5511374473571777,1.3731939792633057
17924.57307098832,1.1510480642318726,1.1818116903305054,1.5516231060028076,1.371736764907837
17924.575071050647,1.1507242918014526,1.1816498041152954,1.5529184341430664,1.3715747594833374
17924.577071112973,1.151533842086792,1.1813260316848755,1.5532423257827759,1.3710891008377075
17924.5790711753,1.1523433923721313,1.1813260316848755,1.5524327754974365,1.3714128732681274
17924.581071237626,1.1512099504470825,1.1818116903305054,1.5517851114273071,1.371736764907837
17924.583071299952,1.151695728302002,1.1819735765457153,1.5511374473571777,1.3714128732681274
17924.58507136228,1.151857614517212,1.1819735765457153,1.552270770072937,1.371736764907837
17924.587071424605,1.1512099504470825,1.1818116903305054,1.5527565479278564,1.371736764907837
17924.58907148693,1.1502385139465332,1.1814879179000854,1.5530803203582764,1.3714128732681274
17924.591071549257,1.1512099504470825,1.1801925897598267,1.552270770072937,1.3720605373382568
17924.593071611584,1.1523433923721313,1.180840253829956,1.5535660982131958,1.3714128732681274
17924.59507167391,1.151533842086792,1.181002140045166,1.5534042119979858,1.3725463151931763
17924.597071736236,1.151695728302002,1.1816498041152954,1.5532423257827759,1.3720605373382568
17924.599071798562,1.1529910564422607,1.1818116903305054,1.5530803203582764,1.3718986511230469
17924.60107186089,1.1521815061569214,1.1824593544006348,1.5532423257827759,1.3709272146224976
17924.603071923215,1.151533842086792,1.1816498041152954,1.5530803203582764,1.3718986511230469
17924.60507198554,1.151371955871582,1.1813260316848755,1.5534042119979858,1.371736764907837
17924.607072047867,1.1510480642318726,1.181164026260376,1.5530803203582764,1.3709272146224976
17924.60907211019,1.1497527360916138,1.181164026260376,1.5532423257827759,1.3709272146224976
17924.611072172516,1.1507242918014526,1.181002140045166,1.5530803203582764,1.3715747594833374
17924.613072234843,1.1521815061569214,1.180840253829956,1.5535660982131958,1.3710891008377075
17924.61507229717,1.1525052785873413,1.181002140045166,1.5529184341430664,1.3715747594833374
17924.617072359495,1.1521815061569214,1.1813260316848755,1.5529184341430664,1.3718986511230469
17924.61907242182,1.1534768342971802,1.1814879179000854,1.5535660982131958,1.3723844289779663
17924.621072484148,1.151695728302002,1.1819735765457153,1.5537279844284058,1.371736764907837
17924.623072546474,1.1510480642318726,1.1813260316848755,1.5537279844284058,1.3723844289779663
17924.6250726088,1.1510480642318726,1.1813260316848755,1.5538899898529053,1.3722224235534668
17924.627072671126,1.1523433923721313,1.180678367614746,1.5540518760681152,1.3715747594833374
17924.629072733453,1.151371955871582,1.181164026260376,1.5534042119979858,1.3709272146224976
17924.63107279578,1.151533842086792,1.1814879179000854,1.5534042119979858,1.3712509870529175
17924.633072858105,1.1526671648025513,1.181164026260376,1.5537279844284058,1.371736764907837
17924.63507292043,1.1526671648025513,1.180840253829956,1.5540518760681152,1.3709272146224976
17924.637072982758,1.1525052785873413,1.180840253829956,1.5548614263534546,1.3714128732681274
17924.639073045084,1.1528291702270508,1.1821355819702148,1.5548614263534546,1.3720605373382568
17924.64107310741,1.1520196199417114,1.1824593544006348,1.5548614263534546,1.3718986511230469
17924.643073169736,1.1520196199417114,1.1818116903305054,1.5545376539230347,1.3720605373382568
17924.645073232063,1.1520196199417114,1.1803544759750366,1.5548614263534546,1.3722224235534668
17924.647073294385,1.1525052785873413,1.1805163621902466,1.5548614263534546,1.3723844289779663
17924.64907335671,1.1520196199417114,1.181164026260376,1.5540518760681152,1.3720605373382568
17924.651073419038,1.1534768342971802,1.1814879179000854,1.555185317993164,1.3728700876235962
17924.653073481364,1.1541244983673096,1.181164026260376,1.555670976638794,1.3736796379089355
17924.65507354369,1.1541244983673096,1.1814879179000854,1.5548614263534546,1.373841643333435
17924.657073606017,1.1541244983673096,1.181164026260376,1.5540518760681152,1.373841643333435
17924.659073668343,1.1544482707977295,1.1813260316848755,1.5530803203582764,1.374003529548645
17924.66107373067,1.154934048652649,1.1813260316848755,1.5540518760681152,1.3722224235534668
17924.663073792995,1.15396249294281,1.1813260316848755,1.5548614263534546,1.3715747594833374
17924.66507385532,1.1538006067276,1.180840253829956,1.5548614263534546,1.3723844289779663
17924.667073917648,1.1550959348678589,1.181164026260376,1.5550233125686646,1.3723844289779663
17924.669073979974,1.1538006067276,1.1805163621902466,1.5546995401382446,1.371736764907837
17924.6710740423,1.15396249294281,1.180840253829956,1.5546995401382446,1.3720605373382568
17924.673074104627,1.1541244983673096,1.180840253829956,1.5548614263534546,1.3730320930480957
17924.675074166953,1.1531529426574707,1.181002140045166,1.5546995401382446,1.3718986511230469
17924.67707422928,1.1531529426574707,1.180678367614746,1.5543756484985352,1.3722224235534668
17924.679074291606,1.1550959348678589,1.181002140045166,1.5542137622833252,1.3720605373382568
17924.68107435393,1.1542863845825195,1.1805163621902466,1.5540518760681152,1.371736764907837
17924.683074416258,1.1536387205123901,1.1797068119049072,1.5543756484985352,1.370765209197998
17924.685074478584,1.1538006067276,1.1798686981201172,1.555185317993164,1.3712509870529175
17924.687074540907,1.1541244983673096,1.1798686981201172,1.5545376539230347,1.3715747594833374
17924.689074603233,1.1528291702270508,1.180840253829956,1.5546995401382446,1.3710891008377075
17924.69107466556,1.1538006067276,1.1813260316848755,1.5548614263534546,1.3715747594833374
17924.693074727886,1.1538006067276,1.181164026260376,1.5546995401382446,1.3712509870529175
17924.695074790212,1.1533148288726807,1.180840253829956,1.5546995401382446,1.3709272146224976
17924.69707485254,1.1538006067276,1.1801925897598267,1.5548614263534546,1.3714128732681274
17924.699074914864,1.1552578210830688,1.1803544759750366,1.5548614263534546,1.3715747594833374
17924.70107497719,1.154934048652649,1.1803544759750366,1.555347204208374,1.370765209197998
17924.703075039517,1.1533148288726807,1.1801925897598267,1.5538899898529053,1.3701175451278687
17924.705075101843,1.1531529426574707,1.1800307035446167,1.5540518760681152,1.3697937726974487
17924.70707516417,1.1534768342971802,1.1805163621902466,1.5550233125686646,1.3704414367675781
17924.709075226496,1.1525052785873413,1.181002140045166,1.5559948682785034,1.3701175451278687
17924.711075288822,1.1534768342971802,1.1801925897598267,1.5563186407089233,1.370603322982788
17924.71307535115,1.15396249294281,1.1801925897598267,1.5563186407089233,1.3709272146224976
17924.715075413475,1.1541244983673096,1.1801925897598267,1.555509090423584,1.3709272146224976
17924.7170754758,1.15396249294281,1.1805163621902466,1.5546995401382446,1.3712509870529175
17924.719075538127,1.1547720432281494,1.1801925897598267,1.555832862854004,1.3718986511230469
17924.721075600453,1.1541244983673096,1.180840253829956,1.5564805269241333,1.3715747594833374
17924.72307566278,1.1541244983673096,1.1800307035446167,1.5569663047790527,1.3702795505523682
17924.725075725106,1.1538006067276,1.1801925897598267,1.5571281909942627,1.3712509870529175
17924.72707578743,1.1541244983673096,1.1801925897598267,1.5571281909942627,1.371736764907837
17924.729075849755,1.1534768342971802,1.1803544759750366,1.5574520826339722,1.3710891008377075
17924.73107591208,1.1542863845825195,1.180678367614746,1.5572901964187622,1.370603322982788
17924.733075974407,1.1547720432281494,1.181002140045166,1.5568044185638428,1.3712509870529175
17924.735076036734,1.154934048652649,1.1813260316848755,1.5572901964187622,1.3714128732681274
17924.73707609906,1.1547720432281494,1.181002140045166,1.5569663047790527,1.3715747594833374
17924.739076161386,1.1552578210830688,1.180678367614746,1.5563186407089233,1.3720605373382568
17924.741076223712,1.1552578210830688,1.1805163621902466,1.5568044185638428,1.371736764907837
17924.74307628604,1.1541244983673096,1.1801925897598267,1.5564805269241333,1.370765209197998
17924.745076348365,1.1542863845825195,1.1798686981201172,1.5569663047790527,1.370765209197998
17924.74707641069,1.1541244983673096,1.1800307035446167,1.557775855064392,1.3704414367675781
17924.749076473017,1.1525052785873413,1.1803544759750366,1.5571281909942627,1.3701175451278687
17924.751076535344,1.1533148288726807,1.1803544759750366,1.5559948682785034,1.370603322982788
17924.75307659767,1.1542863845825195,1.1803544759750366,1.5561567544937134,1.3710891008377075
17924.755076659996,1.1542863845825195,1.180840253829956,1.5564805269241333,1.3702795505523682
17924.757076722322,1.1541244983673096,1.180678367614746,1.5563186407089233,1.370765209197998
17924.75907678465,1.1552578210830688,1.1801925897598267,1.5561567544937134,1.3712509870529175
17924.761076846975,1.15396249294281,1.1797068119049072,1.5568044185638428,1.370603322982788
17924.7630769093,1.1521815061569214,1.1800307035446167,1.5559948682785034,1.3709272146224976
17924.765076971627,1.1523433923721313,1.180678367614746,1.555347204208374,1.3712509870529175
17924.76707703395,1.1529910564422607,1.180678367614746,1.5559948682785034,1.3712509870529175
17924.769077096276,1.1523433923721313,1.180678367614746,1.5561567544937134,1.3702795505523682
17924.771077158603,1.1528291702270508,1.1795449256896973,1.5563186407089233,1.3701175451278687
17924.77307722093,1.1534768342971802,1.1793830394744873,1.5561567544937134,1.3704414367675781
17924.775077283255,1.1541244983673096,1.1792210340499878,1.555832862854004,1.3704414367675781
17924.77707734558,1.1541244983673096,1.1793830394744873,1.5548614263534546,1.3710891008377075
17924.779077407908,1.15396249294281,1.1798686981201172,1.555185317993164,1.3704414367675781
17924.781077470234,1.1536387205123901,1.1803544759750366,1.5559948682785034,1.3697937726974487
17924.78307753256,1.1520196199417114,1.180840253829956,1.5561567544937134,1.3699556589126587
17924.785077594886,1.1531529426574707,1.180678367614746,1.5564805269241333,1.3704414367675781
17924.787077657213,1.1538006067276,1.1800307035446167,1.555832862854004,1.3699556589126587
17924.78907771954,1.1534768342971802,1.1803544759750366,1.555832862854004,1.3691461086273193
17924.791077781865,1.1542863845825195,1.1797068119049072,1.555670976638794,1.3701175451278687
17924.79307784419,1.154934048652649,1.1798686981201172,1.5561567544937134,1.3702795505523682
17924.795077906518,1.1547720432281494,1.181002140045166,1.555832862854004,1.370765209197998
17924.797077968844,1.1546101570129395,1.180840253829956,1.555509090423584,1.370603322982788
17924.79907803117,1.1550959348678589,1.181002140045166,1.5563186407089233,1.3704414367675781
17924.801078093496,1.1547720432281494,1.181002140045166,1.557937741279602,1.3697937726974487
17924.803078155823,1.15396249294281,1.180678367614746,1.557775855064392,1.3696318864822388
17924.805078218145,1.1542863845825195,1.180840253829956,1.5572901964187622,1.3697937726974487
17924.80707828047,1.15396249294281,1.180678367614746,1.5566425323486328,1.3693079948425293
17924.809078342798,1.1533148288726807,1.1798686981201172,1.5559948682785034,1.3696318864822388
17924.811078405124,1.15396249294281,1.1801925897598267,1.5564805269241333,1.3691461086273193
17924.81307846745,1.1546101570129395,1.1813260316848755,1.5569663047790527,1.3699556589126587
17924.815078529777,1.1546101570129395,1.180678367614746,1.5574520826339722,1.3699556589126587
17924.817078592103,1.1550959348678589,1.180678367614746,1.557775855064392,1.3701175451278687
17924.81907865443,1.1554197072982788,1.181164026260376,1.5574520826339722,1.3701175451278687
17924.821078716755,1.1542863845825195,1.180678367614746,1.5576139688491821,1.3699556589126587
17924.82307877908,1.1533148288726807,1.1805163621902466,1.5576139688491821,1.3691461086273193
17924.825078841408,1.1536387205123901,1.181164026260376,1.557937741279602,1.3699556589126587
17924.827078903734,1.1528291702270508,1.181164026260376,1.5572901964187622,1.3697937726974487
17924.82907896606,1.1525052785873413,1.181164026260376,1.5571281909942627,1.3693079948425293
17924.831079028387,1.154934048652649,1.181002140045166,1.5569663047790527,1.3699556589126587
17924.833079090713,1.1552578210830688,1.1813260316848755,1.5571281909942627,1.3693079948425293
17924.83507915304,1.1547720432281494,1.181164026260376,1.5574520826339722,1.3693079948425293
17924.837079215366,1.154934048652649,1.1814879179000854,1.557937741279602,1.3702795505523682
17924.83907927769,1.1557435989379883,1.1813260316848755,1.5571281909942627,1.3701175451278687
17924.841079340018,1.1547720432281494,1.1803544759750366,1.557775855064392,1.3688222169876099
17924.843079402344,1.15396249294281,1.1797068119049072,1.557937741279602,1.3696318864822388
17924.845079464667,1.15396249294281,1.1797068119049072,1.557937741279602,1.3696318864822388
17924.847079526993,1.1547720432281494,1.180678367614746,1.5576139688491821,1.3701175451278687
17924.84907958932,1.1541244983673096,1.181002140045166,1.5580997467041016,1.3691461086273193
17924.851079651646,1.15396249294281,1.1813260316848755,1.5572901964187622,1.370603322982788
17924.853079713972,1.1541244983673096,1.181002140045166,1.5569663047790527,1.3702795505523682
17924.8550797763,1.1542863845825195,1.1805163621902466,1.5568044185638428,1.3696318864822388
17924.857079838624,1.1546101570129395,1.1798686981201172,1.5566425323486328,1.3697937726974487
17924.85907990095,1.1560673713684082,1.180840253829956,1.5566425323486328,1.3694698810577393
17924.861079963277,1.1554197072982788,1.1803544759750366,1.5571281909942627,1.3691461086273193
17924.863080025603,1.1552578210830688,1.1801925897598267,1.5564805269241333,1.3689842224121094
17924.86508008793,1.1554197072982788,1.1805163621902466,1.5576139688491821,1.3694698810577393
17924.867080150256,1.1554197072982788,1.181164026260376,1.5582616329193115,1.3693079948425293
17924.869080212582,1.1544482707977295,1.180840253829956,1.5584235191345215,1.3694698810577393
17924.87108027491,1.1552578210830688,1.1800307035446167,1.558909296989441,1.3704414367675781
17924.873080337235,1.1563912630081177,1.1798686981201172,1.5597188472747803,1.3697937726974487
17924.87508039956,1.1554197072982788,1.1803544759750366,1.558909296989441,1.3697937726974487
17924.877080461887,1.1557435989379883,1.180678367614746,1.558747410774231,1.3694698810577393
17924.879080524213,1.1565531492233276,1.1816498041152954,1.558747410774231,1.3701175451278687
17924.88108058654,1.1557435989379883,1.1818116903305054,1.557937741279602,1.3694698810577393
17924.883080648866,1.1550959348678589,1.1805163621902466,1.5580997467041016,1.3691461086273193
17924.88508071119,1.1550959348678589,1.1805163621902466,1.558747410774231,1.3688222169876099
17924.887080773515,1.1559054851531982,1.1800307035446167,1.5584235191345215,1.36817467212677
17924.88908083584,1.1546101570129395,1.180678367614746,1.5593950748443604,1.3686603307724
17924.891080898167,1.1560673713684082,1.181002140045166,1.5597188472747803,1.3689842224121094
17924.893080960494,1.157200813293457,1.1813260316848755,1.5597188472747803,1.3693079948425293
17924.89508102282,1.157200813293457,1.1814879179000854,1.5598807334899902,1.3691461086273193
17924.897081085146,1.157362699508667,1.1803544759750366,1.5597188472747803,1.3696318864822388
17924.899081147472,1.1576865911483765,1.180678367614746,1.5603665113449097,1.3702795505523682
17924.9010812098,1.1567150354385376,1.1814879179000854,1.5598807334899902,1.3694698810577393
17924.903081272125,1.1562293767929077,1.181164026260376,1.5605283975601196,1.3691461086273193
17924.90508133445,1.1562293767929077,1.1813260316848755,1.5603665113449097,1.3691461086273193
17924.907081396777,1.1562293767929077,1.180840253829956,1.5598807334899902,1.3691461086273193
17924.909081459104,1.1554197072982788,1.180678367614746,1.5597188472747803,1.3689842224121094
17924.91108152143,1.154934048652649,1.180840253829956,1.5582616329193115,1.3697937726974487
17924.913081583756,1.1560673713684082,1.1805163621902466,1.5584235191345215,1.3693079948425293
17924.915081646082,1.1560673713684082,1.1805163621902466,1.5590711832046509,1.3696318864822388
17924.91708170841,1.1562293767929077,1.1803544759750366,1.5597188472747803,1.3688222169876099
17924.919081770735,1.1565531492233276,1.1803544759750366,1.5597188472747803,1.3696318864822388
17924.92108183306,1.1555817127227783,1.1814879179000854,1.5598807334899902,1.3689842224121094
17924.923081895387,1.1546101570129395,1.1813260316848755,1.5600426197052002,1.3688222169876099
17924.92508195771,1.1547720432281494,1.1816498041152954,1.5602046251296997,1.36833655834198
17924.927082020036,1.1555817127227783,1.1816498041152954,1.5598807334899902,1.3680126667022705
17924.929082082363,1.154934048652649,1.1805163621902466,1.5585854053497314,1.36833655834198
17924.93108214469,1.1554197072982788,1.180678367614746,1.5580997467041016,1.36849844455719
17924.933082207015,1.1559054851531982,1.1801925897598267,1.5584235191345215,1.3686603307724
17924.93508226934,1.1560673713684082,1.1800307035446167,1.5593950748443604,1.3691461086273193
17924.937082331668,1.1559054851531982,1.1795449256896973,1.5592330694198608,1.3689842224121094
17924.939082393994,1.1565531492233276,1.1798686981201172,1.558909296989441,1.3693079948425293
17924.94108245632,1.1560673713684082,1.1803544759750366,1.5584235191345215,1.36833655834198
17924.943082518646,1.1550959348678589,1.1805163621902466,1.5584235191345215,1.3676888942718506
17924.945082580973,1.1552578210830688,1.1813260316848755,1.5580997467041016,1.36849844455719
17924.9470826433,1.1563912630081177,1.1803544759750366,1.5574520826339722,1.3680126667022705
17924.949082705625,1.1546101570129395,1.1797068119049072,1.557937741279602,1.3676888942718506
17924.95108276795,1.1562293767929077,1.1790591478347778,1.5582616329193115,1.3693079948425293
17924.953082830278,1.157038927078247,1.1795449256896973,1.5582616329193115,1.3693079948425293
17924.955082892604,1.157362699508667,1.1793830394744873,1.5585854053497314,1.3678507804870605
17924.95708295493,1.1563912630081177,1.178573489189148,1.558909296989441,1.36817467212677
17924.959083017256,1.1567150354385376,1.1790591478347778,1.5580997467041016,1.3691461086273193
17924.961083079583,1.1563912630081177,1.1788972616195679,1.5580997467041016,1.3689842224121094
17924.96308314191,1.1554197072982788,1.1790591478347778,1.5582616329193115,1.36833655834198
17924.96508320423,1.1555817127227783,1.1792210340499878,1.558747410774231,1.36817467212677
17924.967083266558,1.1563912630081177,1.178735375404358,1.5595569610595703,1.3678507804870605
17924.969083328884,1.1550959348678589,1.1788972616195679,1.5602046251296997,1.3667173385620117
17924.97108339121,1.1554197072982788,1.1792210340499878,1.5595569610595703,1.3673650026321411
17924.973083453537,1.1563912630081177,1.1792210340499878,1.5597188472747803,1.3680126667022705
17924.975083515863,1.1563912630081177,1.1788972616195679,1.5595569610595703,1.3673650026321411
17924.97708357819,1.1565531492233276,1.1788972616195679,1.5600426197052002,1.3678507804870605
17924.979083640515,1.1576865911483765,1.1795449256896973,1.558909296989441,1.36849844455719
17924.98108370284,1.157524585723877,1.1798686981201172,1.5598807334899902,1.36817467212677
17924.983083765168,1.1565531492233276,1.1801925897598267,1.5597188472747803,1.36849844455719
17924.985083827494,1.1565531492233276,1.1795449256896973,1.5597188472747803,1.3673650026321411
17924.98708388982,1.1563912630081177,1.1792210340499878,1.5595569610595703,1.3670412302017212
17924.989083952147,1.1562293767929077,1.1784114837646484,1.5595569610595703,1.365260124206543
17924.991084014473,1.1563912630081177,1.1784114837646484,1.5590711832046509,1.3663935661315918
17924.9930840768,1.157524585723877,1.178735375404358,1.558909296989441,1.3675270080566406
17924.995084139126,1.157524585723877,1.1784114837646484,1.558909296989441,1.3680126667022705
17924.99708420145,1.1578484773635864,1.1784114837646484,1.558909296989441,1.3668793439865112
17924.999084263778,1.1584961414337158,1.1782495975494385,1.5598807334899902,1.3670412302017212
17925.001084326104,1.157038927078247,1.178735375404358,1.5602046251296997,1.3676888942718506
17925.003084388427,1.1563912630081177,1.1795449256896973,1.5602046251296997,1.3676888942718506
17925.005084450753,1.1567150354385376,1.1795449256896973,1.5595569610595703,1.3676888942718506
17925.00708451308,1.1568769216537476,1.1790591478347778,1.5597188472747803,1.3676888942718506
17925.009084575406,1.1559054851531982,1.1790591478347778,1.5590711832046509,1.3668793439865112
17925.011084637732,1.1562293767929077,1.1790591478347778,1.5593950748443604,1.3673650026321411
17925.01308470006,1.1567150354385376,1.178573489189148,1.557775855064392,1.3668793439865112
17925.015084762385,1.1567150354385376,1.178735375404358,1.558909296989441,1.3665554523468018
17925.01708482471,1.1559054851531982,1.178573489189148,1.5595569610595703,1.3663935661315918
17925.019084887037,1.157038927078247,1.1790591478347778,1.5595569610595703,1.3672031164169312
17925.021084949363,1.157524585723877,1.178735375404358,1.5597188472747803,1.3672031164169312
17925.02308501169,1.157038927078247,1.1784114837646484,1.5592330694198608,1.3670412302017212
17925.025085074016,1.1576865911483765,1.178735375404358,1.5597188472747803,1.3665554523468018
17925.027085136342,1.1580103635787964,1.1790591478347778,1.5600426197052002,1.3667173385620117
17925.02908519867,1.1559054851531982,1.1788972616195679,1.5603665113449097,1.3657459020614624
17925.031085260995,1.1563912630081177,1.1792210340499878,1.5600426197052002,1.3667173385620117
17925.03308532332,1.1580103635787964,1.1792210340499878,1.5605283975601196,1.3675270080566406
17925.035085385647,1.1581722497940063,1.1790591478347778,1.561176061630249,1.3680126667022705
17925.037085447973,1.1583342552185059,1.1800307035446167,1.5605283975601196,1.3675270080566406
17925.0390855103,1.1599533557891846,1.1793830394744873,1.5606902837753296,1.3676888942718506
17925.041085572626,1.1594675779342651,1.1792210340499878,1.5603665113449097,1.3672031164169312
17925.04308563495,1.1594675779342651,1.1797068119049072,1.5606902837753296,1.3673650026321411
17925.045085697275,1.159629464149475,1.1793830394744873,1.561014175415039,1.3670412302017212
17925.0470857596,1.1588199138641357,1.1795449256896973,1.5619856119155884,1.3672031164169312
17925.049085821927,1.1588199138641357,1.1797068119049072,1.5619856119155884,1.3665554523468018
17925.051085884254,1.1601152420043945,1.1795449256896973,1.5623095035552979,1.3670412302017212
17925.05308594658,1.160762906074524,1.1790591478347778,1.5626332759857178,1.3675270080566406
17925.055086008906,1.1602771282196045,1.178573489189148,1.5623095035552979,1.3676888942718506
17925.057086071232,1.1594675779342651,1.1784114837646484,1.5626332759857178,1.3678507804870605
17925.05908613356,1.160439133644104,1.1788972616195679,1.5626332759857178,1.3686603307724
17925.061086195885,1.1599533557891846,1.1793830394744873,1.5626332759857178,1.3675270080566406
17925.06308625821,1.1581722497940063,1.1800307035446167,1.5616618394851685,1.3678507804870605
17925.065086320537,1.1589818000793457,1.1800307035446167,1.5624713897705078,1.3670412302017212
17925.067086382864,1.1602771282196045,1.1803544759750366,1.5624713897705078,1.3678507804870605
17925.06908644519,1.1588199138641357,1.1803544759750366,1.5629571676254272,1.3673650026321411
17925.071086507516,1.1589818000793457,1.1797068119049072,1.5626332759857178,1.3673650026321411
17925.073086569842,1.160601019859314,1.1793830394744873,1.5624713897705078,1.3673650026321411
17925.07508663217,1.160762906074524,1.1790591478347778,1.5624713897705078,1.3676888942718506
17925.077086694495,1.1602771282196045,1.1788972616195679,1.5614999532699585,1.3680126667022705
17925.07908675682,1.1610867977142334,1.1788972616195679,1.5618237257003784,1.36817467212677
17925.081086819147,1.1602771282196045,1.1797068119049072,1.5618237257003784,1.3675270080566406
17925.08308688147,1.1588199138641357,1.1793830394744873,1.5614999532699585,1.3678507804870605
17925.085086943796,1.1580103635787964,1.1797068119049072,1.5614999532699585,1.3675270080566406
17925.087087006123,1.1583342552185059,1.1797068119049072,1.561014175415039,1.3673650026321411
17925.08908706845,1.1578484773635864,1.1798686981201172,1.561014175415039,1.3667173385620117
17925.091087130775,1.1580103635787964,1.1792210340499878,1.561337947845459,1.3672031164169312
17925.0930871931,1.1586580276489258,1.1792210340499878,1.5618237257003784,1.3667173385620117
17925.095087255428,1.1581722497940063,1.178735375404358,1.561337947845459,1.3660697937011719
17925.097087317754,1.157200813293457,1.1790591478347778,1.5605283975601196,1.3665554523468018
17925.09908738008,1.1580103635787964,1.1795449256896973,1.5598807334899902,1.3668793439865112
17925.101087442406,1.1583342552185059,1.1798686981201172,1.5603665113449097,1.3665554523468018
17925.103087504733,1.157200813293457,1.1784114837646484,1.5614999532699585,1.3672031164169312
17925.10508756706,1.1563912630081177,1.1784114837646484,1.560852289199829,1.3680126667022705
17925.107087629385,1.1567150354385376,1.178573489189148,1.560852289199829,1.3675270080566406
17925.10908769171,1.1560673713684082,1.1788972616195679,1.561014175415039,1.3676888942718506
17925.111087754038,1.1557435989379883,1.1792210340499878,1.5600426197052002,1.3676888942718506
17925.113087816364,1.1565531492233276,1.178573489189148,1.558909296989441,1.36833655834198
17925.11508787869,1.157038927078247,1.1788972616195679,1.5585854053497314,1.3672031164169312
17925.117087941017,1.1560673713684082,1.1792210340499878,1.5590711832046509,1.3663935661315918
17925.119088003343,1.1562293767929077,1.1798686981201172,1.5597188472747803,1.3668793439865112
17925.12108806567,1.1554197072982788,1.1797068119049072,1.5597188472747803,1.3673650026321411
17925.12308812799,1.154934048652649,1.1805163621902466,1.5590711832046509,1.3676888942718506
17925.125088190318,1.154934048652649,1.180840253829956,1.5592330694198608,1.3676888942718506
17925.127088252644,1.1552578210830688,1.1803544759750366,1.5590711832046509,1.3672031164169312
17925.12908831497,1.1552578210830688,1.1795449256896973,1.5584235191345215,1.3665554523468018
17925.131088377297,1.1559054851531982,1.1793830394744873,1.5576139688491821,1.3672031164169312
17925.133088439623,1.1559054851531982,1.1798686981201172,1.558909296989441,1.3673650026321411
17925.13508850195,1.1552578210830688,1.1793830394744873,1.5592330694198608,1.3675270080566406
17925.137088564275,1.1552578210830688,1.1793830394744873,1.5593950748443604,1.3678507804870605
17925.1390886266,1.1563912630081177,1.1800307035446167,1.5598807334899902,1.36817467212677
17925.141088688928,1.1560673713684082,1.1800307035446167,1.5598807334899902,1.3676888942718506
17925.143088751254,1.1555817127227783,1.180678367614746,1.5600426197052002,1.3668793439865112
17925.14508881358,1.1555817127227783,1.1801925897598267,1.5598807334899902,1.3676888942718506
17925.147088875907,1.1559054851531982,1.180840253829956,1.5592330694198608,1.3680126667022705
17925.149088938233,1.1555817127227783,1.1803544759750366,1.558747410774231,1.3668793439865112
17925.15108900056,1.1557435989379883,1.180678367614746,1.558747410774231,1.3673650026321411
17925.153089062886,1.1563912630081177,1.180678367614746,1.5597188472747803,1.3680126667022705
17925.15508912521,1.1563912630081177,1.1805163621902466,1.5602046251296997,1.3680126667022705
17925.157089187538,1.1567150354385376,1.1814879179000854,1.5600426197052002,1.3680126667022705
17925.159089249864,1.1581722497940063,1.181164026260376,1.5606902837753296,1.3693079948425293
17925.16108931219,1.1588199138641357,1.1800307035446167,1.5605283975601196,1.3686603307724
17925.163089374513,1.157200813293457,1.1798686981201172,1.561176061630249,1.3676888942718506
17925.16508943684,1.1578484773635864,1.180678367614746,1.5619856119155884,1.3686603307724
17925.167089499166,1.1581722497940063,1.1813260316848755,1.5626332759857178,1.3691461086273193
17925.169089561492,1.157200813293457,1.1805163621902466,1.562147617340088,1.3693079948425293
17925.17108962382,1.1584961414337158,1.180840253829956,1.5616618394851685,1.370603322982788
17925.173089686145,1.159629464149475,1.1813260316848755,1.5627951622009277,1.3697937726974487
17925.17508974847,1.1597914695739746,1.1813260316848755,1.5634428262710571,1.3694698810577393
17925.177089810797,1.1599533557891846,1.1813260316848755,1.5634428262710571,1.3694698810577393
17925.179089873123,1.1602771282196045,1.1819735765457153,1.5624713897705078,1.3689842224121094
17925.18108993545,1.1602771282196045,1.1826212406158447,1.5634428262710571,1.3694698810577393
17925.183089997776,1.1597914695739746,1.1822974681854248,1.5637667179107666,1.3696318864822388
17925.185090060102,1.1599533557891846,1.181164026260376,1.5636048316955566,1.3704414367675781
17925.18709012243,1.1599533557891846,1.180678367614746,1.564252495765686,1.3702795505523682
17925.189090184755,1.1591438055038452,1.180678367614746,1.5640904903411865,1.3699556589126587
17925.19109024708,1.159629464149475,1.180678367614746,1.5636048316955566,1.3691461086273193
17925.193090309407,1.160439133644104,1.1805163621902466,1.5623095035552979,1.3693079948425293
17925.195090371733,1.1612486839294434,1.180840253829956,1.5629571676254272,1.3689842224121094
17925.19709043406,1.1610867977142334,1.181164026260376,1.5636048316955566,1.3699556589126587
17925.199090496386,1.160762906074524,1.181164026260376,1.5632809400558472,1.3696318864822388
17925.20109055871,1.1612486839294434,1.1805163621902466,1.5627951622009277,1.3697937726974487
17925.203090621035,1.1593056917190552,1.180840253829956,1.5632809400558472,1.3696318864822388
17925.20509068336,1.1586580276489258,1.181164026260376,1.5631190538406372,1.3697937726974487
17925.207090745687,1.1591438055038452,1.1814879179000854,1.5632809400558472,1.3689842224121094
17925.209090808014,1.1576865911483765,1.1814879179000854,1.5626332759857178,1.36833655834198
17925.21109087034,1.1580103635787964,1.181164026260376,1.561176061630249,1.3688222169876099
17925.213090932666,1.1588199138641357,1.1801925897598267,1.561014175415039,1.3689842224121094
17925.215090994992,1.1581722497940063,1.178735375404358,1.560852289199829,1.3693079948425293
17925.21709105732,1.157524585723877,1.1790591478347778,1.5597188472747803,1.3691461086273193
17925.219091119645,1.1580103635787964,1.1792210340499878,1.5597188472747803,1.3688222169876099
17925.22109118197,1.1568769216537476,1.1792210340499878,1.5606902837753296,1.3673650026321411
17925.223091244297,1.1560673713684082,1.1790591478347778,1.5600426197052002,1.3660697937011719
17925.225091306624,1.1557435989379883,1.1792210340499878,1.558747410774231,1.3657459020614624
17925.22709136895,1.1552578210830688,1.178735375404358,1.5582616329193115,1.3663935661315918
17925.229091431276,1.15396249294281,1.1792210340499878,1.5580997467041016,1.3675270080566406
17925.231091493602,1.1547720432281494,1.1788972616195679,1.5569663047790527,1.3672031164169312
17925.23309155593,1.1557435989379883,1.1779258251190186,1.5566425323486328,1.3665554523468018
17925.235091618255,1.1552578210830688,1.1780877113342285,1.557775855064392,1.3668793439865112
17925.23709168058,1.154934048652649,1.1780877113342285,1.5580997467041016,1.3667173385620117
17925.239091742907,1.1552578210830688,1.1782495975494385,1.5580997467041016,1.3667173385620117
17925.24109180523,1.1542863845825195,1.1782495975494385,1.5568044185638428,1.3662316799163818
17925.243091867556,1.1536387205123901,1.178573489189148,1.5559948682785034,1.3663935661315918
17925.245091929883,1.1533148288726807,1.1782495975494385,1.5563186407089233,1.3662316799163818
17925.24709199221,1.1528291702270508,1.1779258251190186,1.5569663047790527,1.3670412302017212
17925.249092054535,1.151857614517212,1.1779258251190186,1.5559948682785034,1.3668793439865112
17925.25109211686,1.1521815061569214,1.177763819694519,1.555832862854004,1.3663935661315918
17925.253092179188,1.1528291702270508,1.177763819694519,1.555509090423584,1.3665554523468018
17925.255092241514,1.1533148288726807,1.178573489189148,1.555185317993164,1.3659077882766724
17925.25709230384,1.1534768342971802,1.1784114837646484,1.555670976638794,1.3667173385620117
17925.259092366166,1.1538006067276,1.1779258251190186,1.555185317993164,1.3673650026321411
17925.261092428493,1.1534768342971802,1.1779258251190186,1.555185317993164,1.3662316799163818
17925.26309249082,1.1526671648025513,1.1774400472640991,1.555185317993164,1.3662316799163818
17925.265092553145,1.1533148288726807,1.177763819694519,1.555347204208374,1.3657459020614624
17925.26709261547,1.1529910564422607,1.1772781610488892,1.555185317993164,1.3672031164169312
17925.269092677798,1.1523433923721313,1.1779258251190186,1.5561567544937134,1.3668793439865112
17925.271092740124,1.1523433923721313,1.177763819694519,1.5566425323486328,1.3675270080566406
17925.27309280245,1.1529910564422607,1.1769542694091797,1.5563186407089233,1.3672031164169312
17925.275092864777,1.1534768342971802,1.1779258251190186,1.5559948682785034,1.3675270080566406
17925.277092927103,1.1544482707977295,1.178735375404358,1.555832862854004,1.3672031164169312
17925.27909298943,1.1550959348678589,1.1793830394744873,1.5559948682785034,1.3676888942718506
17925.28109305175,1.1542863845825195,1.1795449256896973,1.5566425323486328,1.3673650026321411
17925.283093114078,1.1531529426574707,1.1788972616195679,1.5563186407089233,1.3670412302017212
17925.285093176404,1.1533148288726807,1.178735375404358,1.5572901964187622,1.3673650026321411
17925.28709323873,1.1538006067276,1.178573489189148,1.5576139688491821,1.3668793439865112
17925.289093301057,1.1542863845825195,1.1782495975494385,1.5585854053497314,1.3665554523468018
17925.291093363383,1.1550959348678589,1.178735375404358,1.558747410774231,1.3686603307724
17925.29309342571,1.1565531492233276,1.1798686981201172,1.5584235191345215,1.3689842224121094
17925.295093488035,1.1557435989379883,1.1795449256896973,1.558909296989441,1.36833655834198
17925.29709355036,1.1555817127227783,1.1795449256896973,1.5585854053497314,1.3686603307724
17925.299093612688,1.1563912630081177,1.1792210340499878,1.5582616329193115,1.3686603307724
17925.301093675014,1.1560673713684082,1.1790591478347778,1.557937741279602,1.36849844455719
17925.30309373734,1.1552578210830688,1.178735375404358,1.5580997467041016,1.36849844455719
17925.305093799667,1.1559054851531982,1.1792210340499878,1.5592330694198608,1.3688222169876099
17925.307093861993,1.1563912630081177,1.1793830394744873,1.5597188472747803,1.3691461086273193
17925.30909392432,1.1559054851531982,1.1798686981201172,1.5592330694198608,1.3702795505523682
17925.311093986646,1.1565531492233276,1.1803544759750366,1.5600426197052002,1.3701175451278687
17925.313094048972,1.1576865911483765,1.1803544759750366,1.5598807334899902,1.3697937726974487
17925.315094111298,1.1581722497940063,1.1805163621902466,1.561014175415039,1.3701175451278687
17925.317094173624,1.1580103635787964,1.1800307035446167,1.561176061630249,1.3693079948425293
17925.31909423595,1.1586580276489258,1.1795449256896973,1.560852289199829,1.3694698810577393
17925.321094298273,1.157362699508667,1.1800307035446167,1.5606902837753296,1.3694698810577393
17925.3230943606,1.157200813293457,1.1793830394744873,1.5602046251296997,1.3694698810577393
17925.325094422926,1.1576865911483765,1.178573489189148,1.5605283975601196,1.3688222169876099
17925.327094485252,1.1567150354385376,1.1793830394744873,1.558909296989441,1.3689842224121094
17925.32909454758,1.1563912630081177,1.1798686981201172,1.5595569610595703,1.3696318864822388
17925.331094609905,1.1567150354385376,1.1792210340499878,1.5595569610595703,1.3701175451278687
17925.33309467223,1.1580103635787964,1.1797068119049072,1.5593950748443604,1.3699556589126587
17925.335094734557,1.157524585723877,1.1805163621902466,1.5593950748443604,1.3697937726974487
17925.337094796883,1.157524585723877,1.1803544759750366,1.558747410774231,1.3697937726974487
17925.33909485921,1.1588199138641357,1.1800307035446167,1.5592330694198608,1.3704414367675781
17925.341094921536,1.1583342552185059,1.1797068119049072,1.5593950748443604,1.3697937726974487
17925.343094983862,1.1568769216537476,1.1788972616195679,1.5595569610595703,1.3686603307724
17925.34509504619,1.1568769216537476,1.1800307035446167,1.5597188472747803,1.3693079948425293
17925.347095108515,1.1567150354385376,1.1803544759750366,1.5597188472747803,1.3689842224121094
17925.34909517084,1.1562293767929077,1.1800307035446167,1.5585854053497314,1.36817467212677
17925.351095233167,1.1563912630081177,1.1798686981201172,1.5580997467041016,1.3691461086273193
17925.353095295493,1.157038927078247,1.1797068119049072,1.5584235191345215,1.3689842224121094
17925.35509535782,1.1578484773635864,1.1803544759750366,1.5580997467041016,1.3691461086273193
17925.357095420146,1.157200813293457,1.1803544759750366,1.557775855064392,1.3697937726974487
17925.35909548247,1.157200813293457,1.1801925897598267,1.5584235191345215,1.3693079948425293
17925.361095544795,1.1559054851531982,1.1801925897598267,1.558747410774231,1.3689842224121094
17925.36309560712,1.1557435989379883,1.1800307035446167,1.558909296989441,1.3686603307724
17925.365095669447,1.1565531492233276,1.1800307035446167,1.5580997467041016,1.3694698810577393
17925.367095731774,1.1565531492233276,1.1803544759750366,1.5576139688491821,1.3697937726974487
17925.3690957941,1.1554197072982788,1.1805163621902466,1.557775855064392,1.3693079948425293
17925.371095856426,1.1555817127227783,1.1797068119049072,1.557937741279602,1.3693079948425293
17925.373095918752,1.1568769216537476,1.1800307035446167,1.5561567544937134,1.3694698810577393
17925.37509598108,1.1563912630081177,1.1800307035446167,1.5566425323486328,1.3699556589126587
17925.377096043405,1.1557435989379883,1.1790591478347778,1.5574520826339722,1.3694698810577393
17925.37909610573,1.1562293767929077,1.1798686981201172,1.5572901964187622,1.370765209197998
17925.381096168057,1.1565531492233276,1.1801925897598267,1.5563186407089233,1.3701175451278687
17925.383096230384,1.1557435989379883,1.1790591478347778,1.5566425323486328,1.3701175451278687
17925.38509629271,1.1562293767929077,1.1793830394744873,1.5564805269241333,1.3702795505523682
17925.387096355036,1.1565531492233276,1.1795449256896973,1.5569663047790527,1.3696318864822388
17925.389096417362,1.1554197072982788,1.1797068119049072,1.5568044185638428,1.3691461086273193
17925.39109647969,1.1555817127227783,1.1797068119049072,1.5566425323486328,1.3702795505523682
17925.393096542015,1.157038927078247,1.1795449256896973,1.5566425323486328,1.3702795505523682
17925.39509660434,1.1567150354385376,1.1801925897598267,1.5568044185638428,1.370765209197998
17925.397096666667,1.1567150354385376,1.1800307035446167,1.5568044185638428,1.3709272146224976
17925.39909672899,1.1584961414337158,1.1800307035446167,1.5569663047790527,1.3702795505523682
17925.401096791316,1.1580103635787964,1.1797068119049072,1.5580997467041016,1.370765209197998
17925.403096853643,1.1565531492233276,1.1795449256896973,1.557775855064392,1.3693079948425293
17925.40509691597,1.1568769216537476,1.178735375404358,1.5584235191345215,1.3696318864822388
17925.407096978295,1.1576865911483765,1.178735375404358,1.5593950748443604,1.3699556589126587
17925.40909704062,1.157524585723877,1.1792210340499878,1.558747410774231,1.3696318864822388
17925.411097102948,1.1583342552185059,1.1797068119049072,1.558909296989441,1.3712509870529175
17925.413097165274,1.1593056917190552,1.1798686981201172,1.558747410774231,1.370603322982788
17925.4150972276,1.1589818000793457,1.1798686981201172,1.5584235191345215,1.3709272146224976
17925.417097289926,1.1591438055038452,1.1795449256896973,1.5585854053497314,1.3712509870529175
17925.419097352253,1.160601019859314,1.1801925897598267,1.5582616329193115,1.371736764907837
17925.42109741458,1.1597914695739746,1.180840253829956,1.5582616329193115,1.371736764907837
17925.423097476905,1.1581722497940063,1.180678367614746,1.5580997467041016,1.3710891008377075
17925.42509753923,1.1583342552185059,1.1803544759750366,1.558747410774231,1.3704414367675781
17925.427097601558,1.1588199138641357,1.1797068119049072,1.558909296989441,1.3704414367675781
17925.429097663884,1.1586580276489258,1.1797068119049072,1.5580997467041016,1.370765209197998
17925.43109772621,1.1586580276489258,1.1798686981201172,1.557937741279602,1.3715747594833374
17925.433097788537,1.1594675779342651,1.1795449256896973,1.5576139688491821,1.370765209197998
17925.435097850863,1.1588199138641357,1.1797068119049072,1.5571281909942627,1.3697937726974487
17925.43709791319,1.1589818000793457,1.1805163621902466,1.5571281909942627,1.3699556589126587
17925.43909797551,1.1597914695739746,1.1816498041152954,1.557937741279602,1.3710891008377075
17925.441098037838,1.1586580276489258,1.181164026260376,1.5576139688491821,1.370765209197998
17925.443098100164,1.157200813293457,1.1803544759750366,1.5580997467041016,1.3701175451278687
17925.44509816249,1.157362699508667,1.1798686981201172,1.557775855064392,1.3701175451278687
17925.447098224817,1.1567150354385376,1.1795449256896973,1.5572901964187622,1.3709272146224976
17925.449098287143,1.1560673713684082,1.1800307035446167,1.5572901964187622,1.3702795505523682
17925.45109834947,1.157200813293457,1.1792210340499878,1.5563186407089233,1.3710891008377075
17925.453098411796,1.1578484773635864,1.1793830394744873,1.5564805269241333,1.3714128732681274
17925.45509847412,1.157362699508667,1.1790591478347778,1.5574520826339722,1.3704414367675781
17925.457098536448,1.157038927078247,1.1795449256896973,1.5571281909942627,1.3696318864822388
17925.459098598774,1.157362699508667,1.1800307035446167,1.5569663047790527,1.3702795505523682
17925.4610986611,1.1559054851531982,1.1800307035446167,1.5568044185638428,1.3701175451278687
17925.463098723427,1.15396249294281,1.1801925897598267,1.5559948682785034,1.3704414367675781
17925.465098785753,1.1542863845825195,1.1798686981201172,1.555509090423584,1.3693079948425293
17925.46709884808,1.1550959348678589,1.1790591478347778,1.555347204208374,1.3694698810577393
17925.469098910406,1.1542863845825195,1.1795449256896973,1.555185317993164,1.3693079948425293
17925.471098972732,1.1541244983673096,1.1795449256896973,1.5550233125686646,1.3701175451278687
17925.473099035058,1.1552578210830688,1.1790591478347778,1.5548614263534546,1.3699556589126587
17925.475099097384,1.1560673713684082,1.1792210340499878,1.5546995401382446,1.3699556589126587
17925.47709915971,1.1559054851531982,1.1788972616195679,1.5538899898529053,1.3689842224121094
17925.479099222033,1.1563912630081177,1.1780877113342285,1.5545376539230347,1.3696318864822388
17925.48109928436,1.1559054851531982,1.178573489189148,1.555347204208374,1.3689842224121094
17925.483099346686,1.1550959348678589,1.1792210340499878,1.555347204208374,1.3691461086273193
17925.485099409012,1.1563912630081177,1.178735375404358,1.5550233125686646,1.3693079948425293
17925.48709947134,1.1563912630081177,1.1790591478347778,1.5550233125686646,1.3694698810577393
17925.489099533665,1.1550959348678589,1.1790591478347778,1.5548614263534546,1.3697937726974487
17925.49109959599,1.1552578210830688,1.178735375404358,1.5543756484985352,1.3697937726974487
17925.493099658317,1.1568769216537476,1.1792210340499878,1.5543756484985352,1.3694698810577393
17925.495099720643,1.1565531492233276,1.1790591478347778,1.5550233125686646,1.3688222169876099
17925.49709978297,1.1565531492233276,1.1782495975494385,1.5546995401382446,1.3696318864822388
17925.499099845296,1.1565531492233276,1.178573489189148,1.5550233125686646,1.3702795505523682
17925.501099907622,1.1559054851531982,1.178735375404358,1.5550233125686646,1.3694698810577393
17925.50309996995,1.1557435989379883,1.1782495975494385,1.5548614263534546,1.36849844455719
17925.505100032275,1.1559054851531982,1.1788972616195679,1.5548614263534546,1.3693079948425293
17925.5071000946,1.1565531492233276,1.1782495975494385,1.5543756484985352,1.3696318864822388
17925.509100156927,1.1565531492233276,1.1779258251190186,1.5538899898529053,1.3691461086273193
17925.511100219253,1.1565531492233276,1.1774400472640991,1.5542137622833252,1.3696318864822388
17925.51310028158,1.1565531492233276,1.177601933479309,1.5543756484985352,1.3702795505523682
17925.515100343906,1.1567150354385376,1.1779258251190186,1.5543756484985352,1.3702795505523682
17925.517100406232,1.1567150354385376,1.1782495975494385,1.5545376539230347,1.370765209197998
17925.519100468555,1.1576865911483765,1.1780877113342285,1.555670976638794,1.3704414367675781
17925.52110053088,1.157524585723877,1.1779258251190186,1.5568044185638428,1.3696318864822388
17925.523100593207,1.157200813293457,1.1769542694091797,1.5564805269241333,1.3689842224121094
17925.525100655534,1.157524585723877,1.1771161556243896,1.555509090423584,1.36849844455719
17925.52710071786,1.157200813293457,1.1780877113342285,1.555185317993164,1.3696318864822388
17925.529100780186,1.1567150354385376,1.1771161556243896,1.555670976638794,1.3688222169876099
17925.531100842512,1.1576865911483765,1.1771161556243896,1.5563186407089233,1.36849844455719
17925.53310090484,1.1584961414337158,1.1774400472640991,1.5566425323486328,1.3694698810577393
17925.535100967165,1.1580103635787964,1.1780877113342285,1.5564805269241333,1.3701175451278687
17925.53710102949,1.1580103635787964,1.1784114837646484,1.5559948682785034,1.3699556589126587
17925.539101091817,1.1588199138641357,1.178573489189148,1.555832862854004,1.3714128732681274
17925.541101154144,1.1578484773635864,1.1790591478347778,1.555832862854004,1.3704414367675781
17925.54310121647,1.157038927078247,1.178735375404358,1.555670976638794,1.3699556589126587
17925.545101278796,1.1567150354385376,1.1780877113342285,1.555509090423584,1.3697937726974487
17925.547101341122,1.157038927078247,1.1779258251190186,1.5566425323486328,1.3694698810577393
17925.54910140345,1.1562293767929077,1.178573489189148,1.5572901964187622,1.3699556589126587
17925.551101465775,1.157362699508667,1.1790591478347778,1.5564805269241333,1.370765209197998
17925.5531015281,1.1588199138641357,1.1792210340499878,1.5563186407089233,1.3714128732681274
17925.555101590428,1.1580103635787964,1.1797068119049072,1.5572901964187622,1.3712509870529175
17925.55710165275,1.1581722497940063,1.1797068119049072,1.5564805269241333,1.370603322982788
17925.559101715076,1.1586580276489258,1.1797068119049072,1.5563186407089233,1.3704414367675781
17925.561101777403,1.1588199138641357,1.1788972616195679,1.5559948682785034,1.3699556589126587
17925.56310183973,1.1580103635787964,1.1784114837646484,1.5561567544937134,1.3699556589126587
17925.565101902055,1.1578484773635864,1.1790591478347778,1.5559948682785034,1.3701175451278687
17925.56710196438,1.1580103635787964,1.1788972616195679,1.555509090423584,1.3702795505523682
17925.569102026708,1.157038927078247,1.1793830394744873,1.5564805269241333,1.3694698810577393
17925.571102089034,1.1576865911483765,1.1790591478347778,1.557775855064392,1.370765209197998
17925.57310215136,1.1588199138641357,1.1793830394744873,1.557937741279602,1.370765209197998
17925.575102213686,1.1589818000793457,1.1797068119049072,1.5572901964187622,1.3722224235534668
17925.577102276013,1.1588199138641357,1.1797068119049072,1.5563186407089233,1.3715747594833374
17925.57910233834,1.1589818000793457,1.1797068119049072,1.555832862854004,1.370765209197998
17925.581102400665,1.1583342552185059,1.1792210340499878,1.5566425323486328,1.3710891008377075
17925.58310246299,1.157038927078247,1.1788972616195679,1.5561567544937134,1.3715747594833374
17925.585102525318,1.157524585723877,1.1792210340499878,1.5566425323486328,1.3714128732681274
17925.587102587644,1.1576865911483765,1.1792210340499878,1.5566425323486328,1.371736764907837
17925.58910264997,1.1567150354385376,1.1792210340499878,1.555509090423584,1.371736764907837
17925.591102712297,1.157362699508667,1.178735375404358,1.5543756484985352,1.3725463151931763
17925.593102774623,1.1580103635787964,1.1784114837646484,1.555832862854004,1.3715747594833374
17925.59510283695,1.157524585723877,1.1780877113342285,1.555347204208374,1.3712509870529175
17925.59710289927,1.157524585723877,1.1784114837646484,1.555347204208374,1.3715747594833374
17925.599102961598,1.1578484773635864,1.1779258251190186,1.5545376539230347,1.3715747594833374
17925.601103023924,1.1578484773635864,1.178735375404358,1.5546995401382446,1.3699556589126587
17925.60310308625,1.1567150354385376,1.1788972616195679,1.5550233125686646,1.3718986511230469
17925.605103148577,1.1567150354385376,1.1793830394744873,1.555185317993164,1.3720605373382568
17925.607103210903,1.1580103635787964,1.1790591478347778,1.555185317993164,1.3715747594833374
17925.60910327323,1.157038927078247,1.1784114837646484,1.5548614263534546,1.3710891008377075
17925.611103335556,1.157200813293457,1.178573489189148,1.555347204208374,1.3715747594833374
17925.61310339788,1.1580103635787964,1.1792210340499878,1.5542137622833252,1.3714128732681274
17925.615103460208,1.1583342552185059,1.178735375404358,1.5546995401382446,1.3712509870529175
17925.617103522534,1.1581722497940063,1.1782495975494385,1.5542137622833252,1.3720605373382568
17925.61910358486,1.1584961414337158,1.1784114837646484,1.5550233125686646,1.3718986511230469
17925.621103647187,1.1576865911483765,1.178573489189148,1.5543756484985352,1.370765209197998
17925.623103709513,1.157200813293457,1.1779258251190186,1.5532423257827759,1.3702795505523682
17925.62510377184,1.1580103635787964,1.177601933479309,1.5534042119979858,1.370765209197998
17925.627103834166,1.1584961414337158,1.1779258251190186,1.5543756484985352,1.3712509870529175
17925.629103896492,1.1576865911483765,1.1784114837646484,1.5542137622833252,1.3704414367675781
17925.631103958818,1.157038927078247,1.1784114837646484,1.5543756484985352,1.371736764907837
17925.633104021144,1.1578484773635864,1.1780877113342285,1.5545376539230347,1.3714128732681274
17925.63510408347,1.1583342552185059,1.178573489189148,1.5542137622833252,1.3715747594833374
17925.637104145793,1.1588199138641357,1.1779258251190186,1.5545376539230347,1.371736764907837
17925.63910420812,1.1599533557891846,1.177601933479309,1.5548614263534546,1.3710891008377075
17925.641104270446,1.1597914695739746,1.178735375404358,1.5546995401382446,1.370765209197998
17925.643104332772,1.1588199138641357,1.1784114837646484,1.5545376539230347,1.3710891008377075
17925.6451043951,1.1593056917190552,1.1771161556243896,1.5532423257827759,1.3712509870529175
17925.647104457425,1.1588199138641357,1.1772781610488892,1.5538899898529053,1.370765209197998
17925.64910451975,1.157200813293457,1.177601933479309,1.5543756484985352,1.3697937726974487
17925.651104582077,1.157524585723877,1.1779258251190186,1.5543756484985352,1.370765209197998
17925.653104644403,1.1589818000793457,1.1782495975494385,1.5542137622833252,1.3709272146224976
17925.65510470673,1.1578484773635864,1.177763819694519,1.5538899898529053,1.370603322982788
17925.657104769056,1.157038927078247,1.177601933479309,1.5530803203582764,1.370603322982788
17925.659104831382,1.1584961414337158,1.177763819694519,1.5524327754974365,1.3718986511230469
17925.66110489371,1.1581722497940063,1.1779258251190186,1.5534042119979858,1.3712509870529175
17925.663104956035,1.157200813293457,1.178735375404358,1.5545376539230347,1.3709272146224976
17925.66510501836,1.1580103635787964,1.1782495975494385,1.5546995401382446,1.370765209197998
17925.667105080687,1.1583342552185059,1.1780877113342285,1.5543756484985352,1.370765209197998
17925.669105143013,1.1568769216537476,1.178735375404358,1.5548614263534546,1.370603322982788
17925.67110520534,1.157362699508667,1.1788972616195679,1.5545376539230347,1.3704414367675781
17925.673105267666,1.1588199138641357,1.1788972616195679,1.5543756484985352,1.3715747594833374
17925.675105329992,1.1588199138641357,1.1780877113342285,1.5550233125686646,1.3715747594833374
17925.677105392315,1.1588199138641357,1.178573489189148,1.5548614263534546,1.3715747594833374
17925.67910545464,1.160439133644104,1.178573489189148,1.5545376539230347,1.3714128732681274
17925.681105516967,1.1588199138641357,1.1795449256896973,1.555185317993164,1.3704414367675781
17925.683105579294,1.1576865911483765,1.1790591478347778,1.5545376539230347,1.3701175451278687
17925.68510564162,1.1578484773635864,1.1790591478347778,1.5546995401382446,1.3709272146224976
17925.687105703946,1.1578484773635864,1.1797068119049072,1.5542137622833252,1.3709272146224976
17925.689105766272,1.157038927078247,1.1795449256896973,1.5543756484985352,1.3718986511230469
17925.6911058286,1.1565531492233276,1.1782495975494385,1.5543756484985352,1.3715747594833374
17925.693105890925,1.1583342552185059,1.1790591478347778,1.555832862854004,1.3718986511230469
17925.69510595325,1.1589818000793457,1.1793830394744873,1.555670976638794,1.3723844289779663
17925.697106015577,1.1583342552185059,1.1792210340499878,1.555832862854004,1.3723844289779663
17925.699106077904,1.1594675779342651,1.178735375404358,1.555670976638794,1.3725463151931763
17925.70110614023,1.159629464149475,1.178573489189148,1.555832862854004,1.3720605373382568
17925.703106202556,1.1586580276489258,1.1788972616195679,1.555185317993164,1.3715747594833374
17925.705106264882,1.1589818000793457,1.178735375404358,1.555185317993164,1.371736764907837
17925.70710632721,1.1591438055038452,1.1792210340499878,1.555509090423584,1.3720605373382568
17925.709106389535,1.1584961414337158,1.1784114837646484,1.555670976638794,1.3720605373382568
17925.71110645186,1.1591438055038452,1.1782495975494385,1.555832862854004,1.3727082014083862
17925.713106514188,1.1589818000793457,1.1792210340499878,1.555670976638794,1.3733558654785156
17925.715106576514,1.1588199138641357,1.1793830394744873,1.555347204208374,1.3733558654785156
17925.717106638836,1.1594675779342651,1.1792210340499878,1.555347204208374,1.3728700876235962
17925.719106701163,1.160439133644104,1.1790591478347778,1.555347204208374,1.3723844289779663
17925.72110676349,1.160601019859314,1.1790591478347778,1.555509090423584,1.3722224235534668
17925.723106825815,1.1593056917190552,1.178735375404358,1.555670976638794,1.3720605373382568
17925.72510688814,1.159629464149475,1.1788972616195679,1.5563186407089233,1.3722224235534668
17925.727106950468,1.159629464149475,1.1780877113342285,1.555347204208374,1.3720605373382568
17925.729107012794,1.1599533557891846,1.1782495975494385,1.555185317993164,1.3720605373382568
17925.73110707512,1.1594675779342651,1.1782495975494385,1.555347204208374,1.3723844289779663
17925.733107137446,1.1601152420043945,1.1780877113342285,1.555509090423584,1.3736796379089355
17925.735107199773,1.159629464149475,1.1790591478347778,1.5550233125686646,1.3736796379089355
17925.7371072621,1.1602771282196045,1.1790591478347778,1.5548614263534546,1.3735177516937256
17925.739107324425,1.1612486839294434,1.1790591478347778,1.5564805269241333,1.3730320930480957
17925.74110738675,1.1609247922897339,1.1792210340499878,1.5569663047790527,1.3720605373382568
17925.743107449078,1.1597914695739746,1.1788972616195679,1.5561567544937134,1.3727082014083862
17925.745107511404,1.1599533557891846,1.1788972616195679,1.555832862854004,1.3736796379089355
17925.74710757373,1.1599533557891846,1.1790591478347778,1.5568044185638428,1.3733558654785156
17925.749107636057,1.1581722497940063,1.1792210340499878,1.5574520826339722,1.3725463151931763
17925.751107698383,1.159629464149475,1.1793830394744873,1.5563186407089233,1.3730320930480957
17925.75310776071,1.1602771282196045,1.1795449256896973,1.5550233125686646,1.3728700876235962
17925.75510782303,1.1594675779342651,1.1795449256896973,1.555509090423584,1.3725463151931763
17925.757107885358,1.1591438055038452,1.1792210340499878,1.555670976638794,1.3728700876235962
17925.759107947684,1.1591438055038452,1.1795449256896973,1.5546995401382446,1.3727082014083862
17925.76110801001,1.1589818000793457,1.1795449256896973,1.5546995401382446,1.3725463151931763
17925.763108072337,1.1586580276489258,1.1784114837646484,1.555670976638794,1.3727082014083862
17925.765108134663,1.1594675779342651,1.1780877113342285,1.555347204208374,1.3730320930480957
17925.76710819699,1.1594675779342651,1.1782495975494385,1.5550233125686646,1.3723844289779663
17925.769108259316,1.1593056917190552,1.178573489189148,1.5545376539230347,1.3712509870529175
17925.77110832164,1.1583342552185059,1.1779258251190186,1.5546995401382446,1.3710891008377075
17925.773108383968,1.1591438055038452,1.1782495975494385,1.5542137622833252,1.3722224235534668
17925.775108446294,1.1580103635787964,1.177601933479309,1.5542137622833252,1.3725463151931763
17925.77710850862,1.1581722497940063,1.177601933479309,1.5542137622833252,1.3727082014083862
17925.779108570947,1.1581722497940063,1.178573489189148,1.5538899898529053,1.3727082014083862
17925.781108633273,1.1578484773635864,1.178573489189148,1.5537279844284058,1.3712509870529175
17925.7831086956,1.1563912630081177,1.1772781610488892,1.5534042119979858,1.3709272146224976
17925.785108757926,1.1565531492233276,1.1780877113342285,1.5540518760681152,1.3710891008377075
17925.787108820252,1.1563912630081177,1.1782495975494385,1.5535660982131958,1.3709272146224976
17925.789108882578,1.1555817127227783,1.1772781610488892,1.5530803203582764,1.3710891008377075
17925.791108944904,1.1554197072982788,1.1771161556243896,1.5530803203582764,1.3714128732681274
17925.79310900723,1.1562293767929077,1.1779258251190186,1.552270770072937,1.3710891008377075
17925.795109069553,1.1567150354385376,1.1772781610488892,1.552108883857727,1.3712509870529175
17925.79710913188,1.1560673713684082,1.1771161556243896,1.5516231060028076,1.3704414367675781
17925.799109194206,1.1567150354385376,1.177763819694519,1.552108883857727,1.3714128732681274
17925.801109256532,1.1568769216537476,1.1779258251190186,1.552108883857727,1.3720605373382568
17925.80310931886,1.1547720432281494,1.177763819694519,1.5512993335723877,1.371736764907837
17925.805109381185,1.1544482707977295,1.1779258251190186,1.5514612197875977,1.3710891008377075
17925.80710944351,1.1544482707977295,1.1782495975494385,1.552270770072937,1.3701175451278687
17925.809109505837,1.1547720432281494,1.1779258251190186,1.5524327754974365,1.3701175451278687
17925.811109568163,1.1554197072982788,1.1779258251190186,1.5511374473571777,1.3704414367675781
17925.81310963049,1.1563912630081177,1.178573489189148,1.5511374473571777,1.3704414367675781
17925.815109692816,1.1557435989379883,1.1782495975494385,1.5512993335723877,1.370765209197998
17925.817109755142,1.1559054851531982,1.1772781610488892,1.5508135557174683,1.370603322982788
17925.81910981747,1.1568769216537476,1.177763819694519,1.5514612197875977,1.3712509870529175
17925.821109879795,1.1562293767929077,1.177601933479309,1.5508135557174683,1.370603322982788
17925.82310994212,1.1552578210830688,1.1769542694091797,1.5516231060028076,1.3714128732681274
17925.825110004447,1.1559054851531982,1.1771161556243896,1.5530803203582764,1.3712509870529175
17925.827110066773,1.1563912630081177,1.177601933479309,1.5529184341430664,1.370603322982788
17925.8291101291,1.1547720432281494,1.178735375404358,1.5517851114273071,1.370603322982788
17925.831110191426,1.1547720432281494,1.178573489189148,1.5514612197875977,1.3712509870529175
17925.833110253752,1.1563912630081177,1.177763819694519,1.5529184341430664,1.370603322982788
17925.835110316075,1.157038927078247,1.1782495975494385,1.5527565479278564,1.370765209197998
17925.8371103784,1.157524585723877,1.178735375404358,1.5532423257827759,1.3715747594833374
17925.839110440727,1.1583342552185059,1.178573489189148,1.5542137622833252,1.3720605373382568
17925.841110503054,1.157362699508667,1.1788972616195679,1.5532423257827759,1.3720605373382568
17925.84311056538,1.1559054851531982,1.1790591478347778,1.5537279844284058,1.3715747594833374
17925.845110627706,1.1565531492233276,1.178573489189148,1.5538899898529053,1.3712509870529175
17925.847110690032,1.1576865911483765,1.178573489189148,1.5538899898529053,1.371736764907837
17925.84911075236,1.1562293767929077,1.1784114837646484,1.5542137622833252,1.3714128732681274
17925.851110814685,1.1567150354385376,1.1780877113342285,1.5546995401382446,1.3712509870529175
17925.85311087701,1.1584961414337158,1.177763819694519,1.555347204208374,1.371736764907837
17925.855110939337,1.1589818000793457,1.177763819694519,1.5546995401382446,1.3722224235534668
17925.857111001664,1.1591438055038452,1.1782495975494385,1.5546995401382446,1.3720605373382568
17925.85911106399,1.1599533557891846,1.1788972616195679,1.5546995401382446,1.3730320930480957
17925.861111126316,1.1591438055038452,1.1788972616195679,1.5543756484985352,1.3727082014083862
17925.863111188643,1.1578484773635864,1.1784114837646484,1.5548614263534546,1.371736764907837
17925.86511125097,1.1584961414337158,1.1784114837646484,1.5550233125686646,1.3722224235534668
17925.867111313295,1.1588199138641357,1.178735375404358,1.555185317993164,1.3723844289779663
17925.86911137562,1.1581722497940063,1.1790591478347778,1.5542137622833252,1.3725463151931763
17925.871111437948,1.1576865911483765,1.178735375404358,1.5532423257827759,1.3727082014083862
17925.873111500274,1.1589818000793457,1.178573489189148,1.5545376539230347,1.3723844289779663
17925.875111562596,1.1589818000793457,1.1798686981201172,1.555185317993164,1.3727082014083862
17925.877111624923,1.1584961414337158,1.1797068119049072,1.555509090423584,1.3725463151931763
17925.87911168725,1.1583342552185059,1.1792210340499878,1.5546995401382446,1.3728700876235962
17925.881111749575,1.1583342552185059,1.1792210340499878,1.5542137622833252,1.3718986511230469
17925.8831118119,1.1576865911483765,1.1788972616195679,1.5543756484985352,1.3720605373382568
17925.885111874228,1.1581722497940063,1.1792210340499878,1.5540518760681152,1.3720605373382568
17925.887111936554,1.157200813293457,1.1790591478347778,1.5545376539230347,1.3714128732681274
17925.88911199888,1.1568769216537476,1.1788972616195679,1.5548614263534546,1.3712509870529175
17925.891112061207,1.1568769216537476,1.1782495975494385,1.5548614263534546,1.3720605373382568
17925.893112123533,1.1576865911483765,1.1784114837646484,1.5545376539230347,1.3718986511230469
17925.89511218586,1.157362699508667,1.1788972616195679,1.5543756484985352,1.371736764907837
17925.897112248185,1.1568769216537476,1.1790591478347778,1.5542137622833252,1.3718986511230469
17925.89911231051,1.1576865911483765,1.178735375404358,1.5550233125686646,1.3714128732681274
17925.901112372838,1.1578484773635864,1.1792210340499878,1.5548614263534546,1.371736764907837
17925.903112435164,1.1565531492233276,1.1780877113342285,1.5543756484985352,1.3715747594833374
17925.90511249749,1.1563912630081177,1.177763819694519,1.5534042119979858,1.3714128732681274
17925.907112559817,1.1554197072982788,1.1784114837646484,1.5535660982131958,1.3714128732681274
17925.909112622143,1.1554197072982788,1.1784114837646484,1.5529184341430664,1.3712509870529175
