0,1,2,3,4
15088.916599574119,0.9405601024627686,1.0572999715805054,1.1774400472640991,1.4318068027496338
15088.918599634178,0.9407219886779785,1.0581095218658447,1.1767923831939697,1.432778239250183
15088.92059969424,0.9420173168182373,1.0576237440109253,1.177601933479309,1.4324544668197632
15088.9225997543,0.942179262638092,1.0574618577957153,1.177763819694519,1.4319686889648438
15088.92459981436,0.9416934847831726,1.0571380853652954,1.1769542694091797,1.4322925806045532
15088.926599874421,0.9426649808883667,1.0574618577957153,1.1780877113342285,1.4324544668197632
15088.928599934481,0.9416934847831726,1.0574618577957153,1.1784114837646484,1.4316449165344238
15088.93059999454,0.9407219886779785,1.0577857494354248,1.178573489189148,1.4321305751800537
15088.932600054603,0.941207766532898,1.0577857494354248,1.177601933479309,1.4322925806045532
15088.934600114662,0.9416934847831726,1.0574618577957153,1.177601933479309,1.4311591386795044
15088.936600174722,0.9408839344978333,1.0571380853652954,1.1779258251190186,1.430349588394165
15088.938600234784,0.9416934847831726,1.056814193725586,1.1784114837646484,1.4314830303192139
15088.940600294844,0.9428268671035767,1.0572999715805054,1.1788972616195679,1.4321305751800537
15088.942600354905,0.9431506991386414,1.056976079940796,1.1790591478347778,1.4324544668197632
15088.944600414965,0.9428268671035767,1.056814193725586,1.178573489189148,1.4329402446746826
15088.946600475025,0.9429888129234314,1.0576237440109253,1.1780877113342285,1.4343974590301514
15088.948600535086,0.9428268671035767,1.0581095218658447,1.178573489189148,1.433749794960022
15088.950600595146,0.942503035068512,1.0587571859359741,1.1790591478347778,1.433911681175232
15088.952600655206,0.9431506991386414,1.0577857494354248,1.1801925897598267,1.433749794960022
15088.954600715268,0.943474531173706,1.0577857494354248,1.1805163621902466,1.4332640171051025
15088.956600775327,0.943474531173706,1.0579476356506348,1.1805163621902466,1.433749794960022
15088.958600835387,0.9452555775642395,1.0581095218658447,1.181002140045166,1.4345593452453613
15088.960600895449,0.9459032416343689,1.0582714080810547,1.1805163621902466,1.4347212314605713
15088.962600955509,0.9455794095993042,1.0581095218658447,1.181002140045166,1.4347212314605713
15088.96460101557,0.9446079134941101,1.0579476356506348,1.181002140045166,1.4348831176757812
15088.96660107563,0.9455794095993042,1.0579476356506348,1.1813260316848755,1.4352070093154907
15088.96860113569,0.9450936913490295,1.0587571859359741,1.1819735765457153,1.434073567390442
15088.970601195751,0.9446079134941101,1.0582714080810547,1.1816498041152954,1.4352070093154907
15088.972601255811,0.9459032416343689,1.0587571859359741,1.1816498041152954,1.4355307817459106
15088.974601315871,0.9465509057044983,1.0584334135055542,1.1827832460403442,1.4356927871704102
15088.976601375933,0.9455794095993042,1.0582714080810547,1.1826212406158447,1.4353688955307007
15088.978601435992,0.9455794095993042,1.0582714080810547,1.1822974681854248,1.4348831176757812
15088.980601496052,0.947036623954773,1.0582714080810547,1.1826212406158447,1.4356927871704102
15088.982601556114,0.9473604559898376,1.0585952997207642,1.1834309101104736,1.43601655960083
15088.984601616174,0.9478462338447571,1.0585952997207642,1.184402346611023,1.4363404512405396
15088.986601676235,0.9491415023803711,1.0585952997207642,1.1840784549713135,1.4373118877410889
15088.988601736295,0.9486557841300964,1.0585952997207642,1.184564232826233,1.437150001525879
15088.990601796355,0.9473604559898376,1.0576237440109253,1.1848881244659424,1.4377976655960083
15088.992601856417,0.9471985697746277,1.0572999715805054,1.1847261190414429,1.4369879961013794
15088.994601916476,0.9483319520950317,1.0582714080810547,1.1839165687561035,1.43601655960083
15088.996601976538,0.9486557841300964,1.0585952997207642,1.1848881244659424,1.4363404512405396
15088.998602036598,0.9496272802352905,1.0584334135055542,1.1858595609664917,1.4373118877410889
15089.000602096658,0.9509226083755493,1.059080958366394,1.1863453388214111,1.4373118877410889
15089.00260215672,0.9507606625556946,1.059080958366394,1.1860214471817017,1.4373118877410889
15089.004602216779,0.9510844945907593,1.0594048500061035,1.1861833333969116,1.4374737739562988
15089.006602276839,0.9512463808059692,1.0595667362213135,1.1869930028915405,1.4386072158813477
15089.0086023369,0.9505987763404846,1.060052514076233,1.1869930028915405,1.4382833242416382
15089.01060239696,0.9502749443054199,1.0597286224365234,1.1863453388214111,1.4373118877410889
15089.01260245702,0.9507606625556946,1.0597286224365234,1.186507225036621,1.4374737739562988
15089.014602517082,0.9510844945907593,1.059890627861023,1.186830997467041,1.4377976655960083
15089.016602577141,0.9505987763404846,1.059890627861023,1.1869930028915405,1.4377976655960083
15089.018602637203,0.9510844945907593,1.059890627861023,1.186669111251831,1.4382833242416382
15089.020602697263,0.9527036547660828,1.0597286224365234,1.1869930028915405,1.4384453296661377
15089.022602757323,0.952541708946228,1.059890627861023,1.1869930028915405,1.4382833242416382
15089.024602817384,0.9517321586608887,1.059080958366394,1.186669111251831,1.4384453296661377
15089.026602877444,0.9528655409812927,1.058919072151184,1.1858595609664917,1.4382833242416382
15089.028602937504,0.9520559906959534,1.058919072151184,1.1860214471817017,1.4376356601715088
15089.030602997565,0.9502749443054199,1.0585952997207642,1.186669111251831,1.4379595518112183
15089.032603057625,0.9510844945907593,1.0577857494354248,1.186669111251831,1.4377976655960083
15089.034603117685,0.9517321586608887,1.0581095218658447,1.1858595609664917,1.4374737739562988
15089.036603177747,0.9499511122703552,1.0579476356506348,1.1858595609664917,1.4366642236709595
15089.038603237806,0.9499511122703552,1.059080958366394,1.1853737831115723,1.4373118877410889
15089.040603297868,0.9505987763404846,1.059080958366394,1.1852118968963623,1.4374737739562988
15089.042603357928,0.9501129984855652,1.0582714080810547,1.1840784549713135,1.4379595518112183
15089.044603417988,0.9497891664505005,1.0579476356506348,1.1839165687561035,1.4377976655960083
15089.04660347805,0.9501129984855652,1.0577857494354248,1.1832689046859741,1.4379595518112183
15089.04860353811,0.9496272802352905,1.0574618577957153,1.1837546825408936,1.4373118877410889
15089.05060359817,0.9499511122703552,1.0572999715805054,1.1839165687561035,1.4366642236709595
15089.05260365823,0.9504368305206299,1.0571380853652954,1.1829451322555542,1.43617844581604
15089.05460371829,0.9502749443054199,1.0572999715805054,1.1821355819702148,1.43617844581604
15089.05660377835,0.9493034482002258,1.056976079940796,1.1827832460403442,1.43601655960083
15089.058603838412,0.9496272802352905,1.056328535079956,1.1824593544006348,1.4365023374557495
15089.060603898472,0.9499511122703552,1.056814193725586,1.1826212406158447,1.43601655960083
15089.062603958533,0.9496272802352905,1.056814193725586,1.1824593544006348,1.43617844581604
15089.064604018593,0.9496272802352905,1.0561665296554565,1.181164026260376,1.43601655960083
15089.066604078653,0.9494653344154358,1.0560046434402466,1.1816498041152954,1.43617844581604
15089.068604138714,0.9483319520950317,1.056490421295166,1.1821355819702148,1.4358546733856201
15089.070604198774,0.9478462338447571,1.056652307510376,1.1824593544006348,1.4353688955307007
15089.072604258836,0.9489796161651611,1.056652307510376,1.1824593544006348,1.4358546733856201
15089.074604318896,0.9483319520950317,1.0560046434402466,1.181164026260376,1.4366642236709595
15089.076604378955,0.9475224018096924,1.0555188655853271,1.181002140045166,1.4366642236709595
15089.078604439017,0.9481700658798218,1.0551950931549072,1.1819735765457153,1.43617844581604
15089.080604499077,0.9488176703453064,1.0551950931549072,1.1816498041152954,1.4352070093154907
15089.082604559137,0.948008120059967,1.0556808710098267,1.1814879179000854,1.4355307817459106
15089.084604619198,0.9484938979148865,1.0555188655853271,1.180678367614746,1.4353688955307007
15089.086604679258,0.9497891664505005,1.0545474290847778,1.1803544759750366,1.4356927871704102
15089.088604739318,0.9497891664505005,1.0542235374450684,1.181002140045166,1.4355307817459106
15089.09060479938,0.9484938979148865,1.0543855428695679,1.181164026260376,1.4358546733856201
15089.09260485944,0.9483319520950317,1.0548712015151978,1.181002140045166,1.4368261098861694
15089.0946049195,0.9481700658798218,1.0548712015151978,1.1814879179000854,1.43601655960083
15089.09660497956,0.947036623954773,1.0551950931549072,1.1822974681854248,1.4363404512405396
15089.09860503962,0.9481700658798218,1.0545474290847778,1.1819735765457153,1.4369879961013794
15089.100605099682,0.9494653344154358,1.0545474290847778,1.1826212406158447,1.4369879961013794
15089.102605159742,0.9496272802352905,1.0548712015151978,1.1821355819702148,1.4358546733856201
15089.104605219802,0.9497891664505005,1.0551950931549072,1.1819735765457153,1.4352070093154907
15089.106605279863,0.951408326625824,1.0550332069396973,1.1824593544006348,1.4355307817459106
15089.108605339923,0.9499511122703552,1.0547093152999878,1.1819735765457153,1.43601655960083
15089.110605399983,0.9484938979148865,1.0547093152999878,1.1818116903305054,1.4355307817459106
15089.112605460045,0.9494653344154358,1.0545474290847778,1.1819735765457153,1.4355307817459106
15089.114605520104,0.9505987763404846,1.0547093152999878,1.1821355819702148,1.4348831176757812
15089.116605580166,0.9499511122703552,1.0545474290847778,1.1827832460403442,1.433911681175232
15089.118605640226,0.9491415023803711,1.0553569793701172,1.1829451322555542,1.4350451231002808
15089.120605700286,0.9499511122703552,1.0553569793701172,1.1831070184707642,1.4358546733856201
15089.122605760347,0.9502749443054199,1.0556808710098267,1.1827832460403442,1.4358546733856201
15089.124605820407,0.9493034482002258,1.0553569793701172,1.1834309101104736,1.4355307817459106
15089.126605880469,0.9507606625556946,1.0555188655853271,1.1832689046859741,1.43617844581604
15089.128605940528,0.9501129984855652,1.0551950931549072,1.1834309101104736,1.4363404512405396
15089.130606000588,0.9491415023803711,1.0548712015151978,1.1835927963256836,1.4355307817459106
15089.13260606065,0.9494653344154358,1.0550332069396973,1.1827832460403442,1.4353688955307007
15089.13460612071,0.9493034482002258,1.0545474290847778,1.1819735765457153,1.4353688955307007
15089.13660618077,0.9488176703453064,1.0540616512298584,1.1827832460403442,1.4348831176757812
15089.138606240831,0.9502749443054199,1.0545474290847778,1.1837546825408936,1.4350451231002808
15089.14060630089,0.9512463808059692,1.0543855428695679,1.184402346611023,1.4353688955307007
15089.14260636095,0.9510844945907593,1.0538997650146484,1.1839165687561035,1.43601655960083
15089.144606421012,0.9507606625556946,1.0537378787994385,1.1832689046859741,1.4356927871704102
15089.146606481072,0.9512463808059692,1.0529283285140991,1.184402346611023,1.4365023374557495
15089.148606541134,0.9501129984855652,1.0527663230895996,1.184240460395813,1.4350451231002808
15089.150606601193,0.9494653344154358,1.0529283285140991,1.1832689046859741,1.4352070093154907
15089.152606661253,0.9497891664505005,1.0537378787994385,1.1831070184707642,1.4350451231002808
15089.154606721315,0.9502749443054199,1.0537378787994385,1.1834309101104736,1.4348831176757812
15089.156606781375,0.9488176703453064,1.0535759925842285,1.1837546825408936,1.433911681175232
15089.158606841434,0.9497891664505005,1.0535759925842285,1.1829451322555542,1.4355307817459106
15089.160606901496,0.9507606625556946,1.0537378787994385,1.1826212406158447,1.4352070093154907
15089.162606961556,0.9505987763404846,1.0535759925842285,1.1826212406158447,1.4356927871704102
15089.164607021616,0.9504368305206299,1.0526044368743896,1.1827832460403442,1.43617844581604
15089.166607081677,0.9512463808059692,1.0516330003738403,1.1831070184707642,1.43617844581604
15089.168607141737,0.9502749443054199,1.0524425506591797,1.1834309101104736,1.4355307817459106
15089.170607201799,0.9489796161651611,1.0521186590194702,1.1832689046859741,1.4366642236709595
15089.172607261859,0.9494653344154358,1.0526044368743896,1.1832689046859741,1.43617844581604
15089.174607321918,0.9510844945907593,1.0535759925842285,1.1829451322555542,1.4356927871704102
15089.17660738198,0.9499511122703552,1.0521186590194702,1.1834309101104736,1.4356927871704102
15089.17860744204,0.9502749443054199,1.0522806644439697,1.1837546825408936,1.4350451231002808
15089.1806075021,0.9507606625556946,1.0524425506591797,1.1831070184707642,1.4342354536056519
15089.182607562161,0.9502749443054199,1.0529283285140991,1.1831070184707642,1.4352070093154907
15089.184607622221,0.9505987763404846,1.0514711141586304,1.1832689046859741,1.4348831176757812
15089.18660768228,0.9518940448760986,1.0514711141586304,1.1837546825408936,1.4352070093154907
15089.188607742342,0.9507606625556946,1.0522806644439697,1.1839165687561035,1.4350451231002808
15089.190607802402,0.9507606625556946,1.053252100944519,1.1837546825408936,1.4353688955307007
15089.192607862464,0.9512463808059692,1.053252100944519,1.1835927963256836,1.4356927871704102
15089.194607922524,0.9504368305206299,1.0522806644439697,1.1829451322555542,1.4353688955307007
15089.196607982583,0.9493034482002258,1.0513091087341309,1.1839165687561035,1.4347212314605713
15089.198608042645,0.9507606625556946,1.050823450088501,1.1835927963256836,1.4352070093154907
15089.200608102705,0.9517321586608887,1.0503376722335815,1.184564232826233,1.4350451231002808
15089.202608162766,0.9518940448760986,1.050823450088501,1.1839165687561035,1.4356927871704102
15089.204608222826,0.9520559906959534,1.050823450088501,1.1834309101104736,1.4358546733856201
15089.206608282886,0.9531893730163574,1.0513091087341309,1.1822974681854248,1.4358546733856201
15089.208608342948,0.9517321586608887,1.0504995584487915,1.1824593544006348,1.4353688955307007
15089.210608403007,0.9517321586608887,1.051147222518921,1.1832689046859741,1.4348831176757812
15089.212608463067,0.9507606625556946,1.0513091087341309,1.1834309101104736,1.4356927871704102
15089.214608523129,0.9517321586608887,1.051147222518921,1.1826212406158447,1.4353688955307007
15089.216608583189,0.9512463808059692,1.0516330003738403,1.1824593544006348,1.4352070093154907
15089.218608643248,0.9515702128410339,1.050985336303711,1.1839165687561035,1.43617844581604
15089.22060870331,0.9523798227310181,1.050823450088501,1.184240460395813,1.4363404512405396
15089.22260876337,0.9527036547660828,1.0496900081634521,1.1839165687561035,1.4356927871704102
15089.224608823431,0.9528655409812927,1.0496900081634521,1.1835927963256836,1.43601655960083
15089.226608883491,0.9541608691215515,1.0493662357330322,1.1826212406158447,1.4363404512405396
15089.228608943551,0.9536750912666321,1.0501757860183716,1.1837546825408936,1.43617844581604
15089.230609003613,0.9517321586608887,1.050985336303711,1.1826212406158447,1.4358546733856201
15089.232609063672,0.9518940448760986,1.050823450088501,1.1827832460403442,1.4366642236709595
15089.234609123732,0.9527036547660828,1.0503376722335815,1.1829451322555542,1.4368261098861694
15089.236609183794,0.9515702128410339,1.050013780593872,1.1831070184707642,1.4355307817459106
15089.238609243854,0.9523798227310181,1.0496900081634521,1.1822974681854248,1.43617844581604
15089.240609303914,0.952541708946228,1.0503376722335815,1.1821355819702148,1.4368261098861694
15089.242609363975,0.952541708946228,1.0503376722335815,1.1829451322555542,1.437150001525879
15089.244609424035,0.9536750912666321,1.0501757860183716,1.1826212406158447,1.4379595518112183
15089.246609484097,0.9546465873718262,1.0495281219482422,1.1819735765457153,1.4369879961013794
15089.248609544156,0.9535132050514221,1.0503376722335815,1.1822974681854248,1.4356927871704102
15089.250609604216,0.9523798227310181,1.0492042303085327,1.1829451322555542,1.4368261098861694
15089.252609664278,0.952541708946228,1.050013780593872,1.1824593544006348,1.437150001525879
15089.254609724338,0.9531893730163574,1.0504995584487915,1.1819735765457153,1.437150001525879
15089.2566097844,0.9517321586608887,1.0503376722335815,1.1821355819702148,1.4363404512405396
15089.258609844459,0.9528655409812927,1.0504995584487915,1.1819735765457153,1.4363404512405396
15089.260609904519,0.9541608691215515,1.0501757860183716,1.1822974681854248,1.4368261098861694
15089.26260996458,0.9543227553367615,1.049851894378662,1.1819735765457153,1.4369879961013794
15089.26461002464,0.9535132050514221,1.0490423440933228,1.1822974681854248,1.4368261098861694
15089.2666100847,0.9541608691215515,1.0485565662384033,1.1827832460403442,1.4368261098861694
15089.268610144762,0.9543227553367615,1.0493662357330322,1.1818116903305054,1.4366642236709595
15089.270610204821,0.9539989233016968,1.049851894378662,1.181002140045166,1.437150001525879
15089.272610264881,0.9538370370864868,1.0501757860183716,1.1816498041152954,1.4363404512405396
15089.274610324943,0.9541608691215515,1.0501757860183716,1.1818116903305054,1.43601655960083
15089.276610385003,0.9533512592315674,1.0501757860183716,1.180678367614746,1.43601655960083
15089.278610445064,0.9538370370864868,1.0495281219482422,1.1797068119049072,1.4376356601715088
15089.280610505124,0.9543227553367615,1.0496900081634521,1.180678367614746,1.4379595518112183
15089.282610565184,0.9548085331916809,1.0496900081634521,1.1814879179000854,1.4377976655960083
15089.284610625245,0.9544847011566162,1.0493662357330322,1.181164026260376,1.4377976655960083
15089.286610685305,0.9546465873718262,1.0496900081634521,1.1803544759750366,1.4377976655960083
15089.288610745365,0.9544847011566162,1.050013780593872,1.181164026260376,1.4382833242416382
15089.290610805427,0.9544847011566162,1.050013780593872,1.181002140045166,1.4381214380264282
15089.292610865486,0.9544847011566162,1.0496900081634521,1.181164026260376,1.4387691020965576
15089.294610925546,0.9546465873718262,1.0493662357330322,1.1814879179000854,1.439254879951477
15089.296610985608,0.9536750912666321,1.0493662357330322,1.180840253829956,1.4389309883117676
15089.298611045668,0.9541608691215515,1.049851894378662,1.1801925897598267,1.4389309883117676
15089.30061110573,0.9561038017272949,1.0501757860183716,1.1797068119049072,1.4389309883117676
15089.30261116579,0.9561038017272949,1.0496900081634521,1.1801925897598267,1.4384453296661377
15089.304611225849,0.9549704194068909,1.0485565662384033,1.1800307035446167,1.439254879951477
15089.30661128591,0.9562657475471497,1.0487185716629028,1.1797068119049072,1.439740538597107
15089.30861134597,0.9551323652267456,1.0496900081634521,1.1797068119049072,1.4382833242416382
15089.31061140603,0.9549704194068909,1.0501757860183716,1.1793830394744873,1.4382833242416382
15089.312611466092,0.9556180834770203,1.0496900081634521,1.1788972616195679,1.4402263164520264
15089.314611526152,0.9552942514419556,1.0503376722335815,1.178735375404358,1.4402263164520264
15089.316611586211,0.9541608691215515,1.0495281219482422,1.1798686981201172,1.4389309883117676
15089.318611646273,0.9552942514419556,1.0496900081634521,1.1798686981201172,1.4400644302368164
15089.320611706333,0.9561038017272949,1.0501757860183716,1.1792210340499878,1.4403882026672363
15089.322611766394,0.9564276337623596,1.0496900081634521,1.1793830394744873,1.4407120943069458
15089.324611826454,0.9564276337623596,1.0490423440933228,1.1797068119049072,1.4413597583770752
15089.326611886514,0.9578848481178284,1.0495281219482422,1.1790591478347778,1.4415216445922852
15089.328611946576,0.9557799696922302,1.0496900081634521,1.178735375404358,1.4411978721618652
15089.330612006635,0.9549704194068909,1.0488804578781128,1.1782495975494385,1.4408739805221558
15089.332612066697,0.9557799696922302,1.0480709075927734,1.178735375404358,1.4405502080917358
15089.334612126757,0.9565895795822144,1.047908902168274,1.1792210340499878,1.4400644302368164
15089.336612186817,0.9557799696922302,1.0480709075927734,1.178735375404358,1.439740538597107
15089.338612246878,0.9572372436523438,1.0488804578781128,1.178573489189148,1.4410358667373657
15089.340612306938,0.9578848481178284,1.0483946800231934,1.177763819694519,1.4411978721618652
15089.342612366998,0.9580467939376831,1.0482327938079834,1.1780877113342285,1.4413597583770752
15089.34461242706,0.957075297832489,1.0488804578781128,1.1772781610488892,1.4416835308074951
15089.34661248712,0.9585325121879578,1.0487185716629028,1.1771161556243896,1.4408739805221558
15089.348612547179,0.9573991298675537,1.0480709075927734,1.1774400472640991,1.4407120943069458
15089.35061260724,0.957075297832489,1.0487185716629028,1.1769542694091797,1.4407120943069458
15089.3526126673,0.9575610160827637,1.0487185716629028,1.1769542694091797,1.4410358667373657
15089.354612727362,0.9582086801528931,1.047747015953064,1.1769542694091797,1.4411978721618652
15089.356612787422,0.9573991298675537,1.047747015953064,1.1763066053390503,1.4411978721618652
15089.358612847482,0.9588563442230225,1.0470993518829346,1.1764686107635498,1.4420074224472046
15089.360612907543,0.9588563442230225,1.0470993518829346,1.1763066053390503,1.4423311948776245
15089.362612967603,0.9591801762580872,1.047261357307434,1.1769542694091797,1.441845417022705
15089.364613027663,0.9586944580078125,1.0469374656677246,1.1766304969787598,1.441845417022705
15089.366613087725,0.9593421220779419,1.047747015953064,1.1764686107635498,1.4424930810928345
15089.368613147784,0.9590182900428772,1.0482327938079834,1.1761447191238403,1.4421693086624146
15089.370613207844,0.9585325121879578,1.047747015953064,1.1761447191238403,1.4416835308074951
15089.372613267906,0.9588563442230225,1.047423243522644,1.1764686107635498,1.4423311948776245
15089.374613327966,0.9596659541130066,1.0469374656677246,1.1763066053390503,1.4424930810928345
15089.376613388027,0.9591801762580872,1.0469374656677246,1.1771161556243896,1.4424930810928345
15089.378613448087,0.9593421220779419,1.0470993518829346,1.1772781610488892,1.4436265230178833
15089.380613508147,0.9595040082931519,1.047261357307434,1.1766304969787598,1.4424930810928345
15089.382613568208,0.9598278403282166,1.0470993518829346,1.1759828329086304,1.4420074224472046
15089.384613628268,0.9603135585784912,1.0464516878128052,1.1759828329086304,1.442816972732544
15089.38661368833,0.9619327187538147,1.0470993518829346,1.1750112771987915,1.442816972732544
15089.38861374839,0.9606373906135559,1.0464516878128052,1.1759828329086304,1.4423311948776245
15089.39061380845,0.9599897265434265,1.047261357307434,1.1764686107635498,1.4424930810928345
15089.39261386851,0.9599897265434265,1.047261357307434,1.1763066053390503,1.4436265230178833
15089.39461392857,0.9596659541130066,1.0464516878128052,1.1759828329086304,1.4437884092330933
15089.39661398863,0.9588563442230225,1.0464516878128052,1.1761447191238403,1.4433027505874634
15089.398614048692,0.9607993364334106,1.0458040237426758,1.1767923831939697,1.4434646368026733
15089.400614108752,0.9620946049690247,1.0461279153823853,1.1764686107635498,1.4431407451629639
15089.402614168812,0.9620946049690247,1.0466136932373047,1.1769542694091797,1.4436265230178833
15089.404614228873,0.9622565507888794,1.0461279153823853,1.1772781610488892,1.4433027505874634
15089.406614288933,0.9629042148590088,1.0461279153823853,1.1774400472640991,1.4436265230178833
15089.408614348995,0.9619327187538147,1.0464516878128052,1.177763819694519,1.442655086517334
15089.410614409055,0.9603135585784912,1.0466136932373047,1.1769542694091797,1.442655086517334
15089.412614469114,0.9612850546836853,1.0461279153823853,1.1759828329086304,1.442978858947754
15089.414614529176,0.9620946049690247,1.0459660291671753,1.1759828329086304,1.442978858947754
15089.416614589236,0.9603135585784912,1.0458040237426758,1.1761447191238403,1.442978858947754
15089.418614649296,0.96160888671875,1.0456421375274658,1.175658941268921,1.442816972732544
15089.420614709357,0.9625803828239441,1.0458040237426758,1.1759828329086304,1.4421693086624146
15089.422614769417,0.962742269039154,1.0462898015975952,1.1771161556243896,1.4421693086624146
15089.424614829477,0.9622565507888794,1.0459660291671753,1.1763066053390503,1.442978858947754
15089.426614889539,0.9629042148590088,1.0462898015975952,1.1759828329086304,1.4431407451629639
15089.428614949598,0.9612850546836853,1.0459660291671753,1.1759828329086304,1.4421693086624146
15089.43061500966,0.960475504398346,1.0462898015975952,1.1758209466934204,1.442655086517334
15089.43261506972,0.9609612226486206,1.0462898015975952,1.1763066053390503,1.442816972732544
15089.43461512978,0.9625803828239441,1.0459660291671753,1.1767923831939697,1.442978858947754
15089.436615189841,0.9622565507888794,1.0459660291671753,1.1771161556243896,1.4423311948776245
15089.438615249901,0.9619327187538147,1.045318365097046,1.1769542694091797,1.4424930810928345
15089.44061530996,0.962742269039154,1.045156478881836,1.1759828329086304,1.441845417022705
15089.442615370022,0.9625803828239441,1.0446707010269165,1.175497055053711,1.4424930810928345
15089.444615430082,0.9625803828239441,1.0446707010269165,1.175658941268921,1.4431407451629639
15089.446615490142,0.9632280468940735,1.045156478881836,1.175658941268921,1.4434646368026733
15089.448615550204,0.962742269039154,1.045318365097046,1.1758209466934204,1.442816972732544
15089.450615610263,0.9620946049690247,1.0458040237426758,1.175658941268921,1.4434646368026733
15089.452615670325,0.9625803828239441,1.0459660291671753,1.1758209466934204,1.4433027505874634
15089.454615730385,0.9629042148590088,1.0461279153823853,1.1759828329086304,1.4434646368026733
15089.456615790445,0.9624184370040894,1.0456421375274658,1.1763066053390503,1.4434646368026733
15089.458615850506,0.9637137651443481,1.0454802513122559,1.1766304969787598,1.4437884092330933
15089.460615910566,0.9629042148590088,1.0459660291671753,1.1761447191238403,1.4442741870880127
15089.462615970628,0.9617708325386047,1.0459660291671753,1.1764686107635498,1.4439502954483032
15089.464616030687,0.9612850546836853,1.0459660291671753,1.1767923831939697,1.444921851158142
15089.466616090747,0.9633899331092834,1.045318365097046,1.1759828329086304,1.445245623588562
15089.468616150809,0.962742269039154,1.0449944734573364,1.1759828329086304,1.4444360733032227
15089.470616210869,0.9629042148590088,1.0448325872421265,1.1758209466934204,1.4439502954483032
15089.472616270928,0.9625803828239441,1.0456421375274658,1.175335168838501,1.4431407451629639
15089.47461633099,0.9625803828239441,1.0462898015975952,1.1759828329086304,1.4433027505874634
15089.47661639105,0.9611231684684753,1.0466136932373047,1.1766304969787598,1.4434646368026733
15089.47861645111,0.962742269039154,1.0469374656677246,1.1758209466934204,1.4444360733032227
15089.480616511171,0.9640375971794128,1.0464516878128052,1.1759828329086304,1.445245623588562
15089.482616571231,0.9640375971794128,1.0458040237426758,1.1766304969787598,1.4462171792984009
15089.484616631293,0.9640375971794128,1.045156478881836,1.1764686107635498,1.4455695152282715
15089.486616691353,0.9643614292144775,1.0458040237426758,1.1758209466934204,1.445083737373352
15089.488616751412,0.9629042148590088,1.0459660291671753,1.175658941268921,1.4447599649429321
15089.490616811474,0.9625803828239441,1.0467755794525146,1.175497055053711,1.4454076290130615
15089.492616871534,0.9624184370040894,1.0469374656677246,1.175497055053711,1.4447599649429321
15089.494616931594,0.9630661010742188,1.0458040237426758,1.1759828329086304,1.445083737373352
15089.496616991655,0.9619327187538147,1.0462898015975952,1.1759828329086304,1.4439502954483032
15089.498617051715,0.9630661010742188,1.0459660291671753,1.1745256185531616,1.4441123008728027
15089.500617111775,0.9638757109642029,1.0459660291671753,1.1745256185531616,1.4439502954483032
15089.502617171836,0.9635518789291382,1.0449944734573364,1.1759828329086304,1.4441123008728027
15089.504617231896,0.9635518789291382,1.045156478881836,1.1761447191238403,1.4447599649429321
15089.506617291958,0.9648471474647522,1.0456421375274658,1.1761447191238403,1.4454076290130615
15089.508617352018,0.9637137651443481,1.0454802513122559,1.1763066053390503,1.4454076290130615
15089.510617412077,0.9632280468940735,1.0459660291671753,1.1761447191238403,1.4447599649429321
15089.512617472139,0.9625803828239441,1.0464516878128052,1.1767923831939697,1.4444360733032227
15089.514617532199,0.9633899331092834,1.0466136932373047,1.1771161556243896,1.4445979595184326
15089.51661759226,0.9625803828239441,1.0459660291671753,1.1767923831939697,1.4447599649429321
15089.51861765232,0.9638757109642029,1.0456421375274658,1.1764686107635498,1.445083737373352
15089.52061771238,0.9640375971794128,1.0461279153823853,1.175658941268921,1.4454076290130615
15089.52261777244,0.9630661010742188,1.0454802513122559,1.1763066053390503,1.445083737373352
15089.524617832501,0.9630661010742188,1.045318365097046,1.1763066053390503,1.444921851158142
15089.526617892561,0.9645233154296875,1.0458040237426758,1.1761447191238403,1.4457314014434814
15089.528617952623,0.9640375971794128,1.0458040237426758,1.175658941268921,1.445083737373352
15089.530618012683,0.9637137651443481,1.0462898015975952,1.175658941268921,1.4444360733032227
15089.532618072742,0.9635518789291382,1.0461279153823853,1.1750112771987915,1.4445979595184326
15089.534618132804,0.9635518789291382,1.0461279153823853,1.1745256185531616,1.4445979595184326
15089.536618192864,0.9620946049690247,1.0461279153823853,1.175173282623291,1.4439502954483032
15089.538618252926,0.962742269039154,1.0456421375274658,1.175658941268921,1.444921851158142
15089.540618312985,0.9638757109642029,1.0454802513122559,1.1758209466934204,1.4460551738739014
15089.542618373045,0.9641994833946228,1.0458040237426758,1.1758209466934204,1.4454076290130615
15089.544618433107,0.9632280468940735,1.0461279153823853,1.175335168838501,1.4439502954483032
15089.546618493167,0.9643614292144775,1.0469374656677246,1.1767923831939697,1.445245623588562
15089.548618553226,0.9629042148590088,1.047585129737854,1.1772781610488892,1.4444360733032227
15089.550618613288,0.9620946049690247,1.047261357307434,1.1779258251190186,1.4445979595184326
15089.552618673348,0.9625803828239441,1.0462898015975952,1.1772781610488892,1.4447599649429321
15089.554618733408,0.9629042148590088,1.0467755794525146,1.1763066053390503,1.4441123008728027
15089.55661879347,0.9617708325386047,1.0462898015975952,1.1761447191238403,1.4442741870880127
15089.558618853529,0.9632280468940735,1.0459660291671753,1.1763066053390503,1.4444360733032227
15089.56061891359,0.9638757109642029,1.0456421375274658,1.1772781610488892,1.4444360733032227
15089.56261897365,0.9633899331092834,1.045156478881836,1.1769542694091797,1.4447599649429321
15089.56461903371,0.9635518789291382,1.045156478881836,1.1764686107635498,1.4455695152282715
15089.566619093772,0.9643614292144775,1.045318365097046,1.1761447191238403,1.4455695152282715
15089.568619153832,0.9637137651443481,1.0462898015975952,1.1767923831939697,1.4447599649429321
15089.570619213891,0.9629042148590088,1.0466136932373047,1.1771161556243896,1.4447599649429321
15089.572619273953,0.9637137651443481,1.0459660291671753,1.1774400472640991,1.4441123008728027
15089.574619334013,0.9633899331092834,1.0462898015975952,1.1772781610488892,1.4439502954483032
15089.576619394073,0.9620946049690247,1.0458040237426758,1.177763819694519,1.4434646368026733
15089.578619454134,0.9625803828239441,1.0456421375274658,1.1769542694091797,1.4436265230178833
15089.580619514194,0.9637137651443481,1.0456421375274658,1.177601933479309,1.4441123008728027
15089.582619574256,0.9635518789291382,1.0458040237426758,1.1769542694091797,1.4437884092330933
15089.584619634315,0.9638757109642029,1.0454802513122559,1.1772781610488892,1.4441123008728027
15089.586619694375,0.9651709794998169,1.0449944734573364,1.1774400472640991,1.4444360733032227
15089.588619754437,0.9640375971794128,1.045318365097046,1.1769542694091797,1.4437884092330933
15089.590619814497,0.9633899331092834,1.0445088148117065,1.1761447191238403,1.4444360733032227
15089.592619874558,0.9635518789291382,1.044023036956787,1.177763819694519,1.4436265230178833
15089.594619934618,0.9635518789291382,1.044184923171997,1.177763819694519,1.4431407451629639
15089.596619994678,0.9624184370040894,1.044023036956787,1.1779258251190186,1.4437884092330933
15089.59862005474,0.9625803828239441,1.0448325872421265,1.1772781610488892,1.4447599649429321
15089.6006201148,0.9620946049690247,1.0448325872421265,1.1772781610488892,1.4444360733032227
15089.60262017486,0.962742269039154,1.0449944734573364,1.1779258251190186,1.4441123008728027
15089.60462023492,0.9637137651443481,1.0454802513122559,1.1771161556243896,1.4442741870880127
15089.60662029498,0.9648471474647522,1.0461279153823853,1.1771161556243896,1.444921851158142
15089.60862035504,0.9629042148590088,1.045156478881836,1.1780877113342285,1.4445979595184326
15089.610620415102,0.9624184370040894,1.044023036956787,1.1784114837646484,1.4444360733032227
15089.612620475162,0.9622565507888794,1.044346809387207,1.1780877113342285,1.4423311948776245
15089.614620535223,0.9632280468940735,1.0445088148117065,1.1774400472640991,1.4423311948776245
15089.616620595283,0.9620946049690247,1.0449944734573364,1.1771161556243896,1.441845417022705
15089.618620655343,0.9633899331092834,1.0446707010269165,1.1764686107635498,1.4424930810928345
15089.620620715405,0.9633899331092834,1.0448325872421265,1.1782495975494385,1.4431407451629639
15089.622620775464,0.9635518789291382,1.0446707010269165,1.1788972616195679,1.4434646368026733
15089.624620835524,0.962742269039154,1.045318365097046,1.1784114837646484,1.4434646368026733
15089.626620895586,0.9635518789291382,1.0456421375274658,1.1784114837646484,1.4437884092330933
15089.628620955646,0.9632280468940735,1.0449944734573364,1.1782495975494385,1.442816972732544
15089.630621015705,0.9629042148590088,1.045318365097046,1.1772781610488892,1.4423311948776245
15089.632621075767,0.9630661010742188,1.0448325872421265,1.177601933479309,1.442816972732544
15089.634621135827,0.962742269039154,1.045156478881836,1.1788972616195679,1.442978858947754
15089.636621195888,0.9617708325386047,1.0446707010269165,1.178573489189148,1.442655086517334
15089.638621255948,0.9637137651443481,1.0449944734573364,1.177763819694519,1.442816972732544
15089.640621316008,0.9638757109642029,1.045156478881836,1.177601933479309,1.442978858947754
15089.64262137607,0.9632280468940735,1.045156478881836,1.1779258251190186,1.4433027505874634
15089.64462143613,0.9638757109642029,1.0445088148117065,1.177601933479309,1.4434646368026733
15089.64662149619,0.9635518789291382,1.044346809387207,1.1774400472640991,1.4445979595184326
15089.64862155625,0.9622565507888794,1.044184923171997,1.178735375404358,1.4439502954483032
15089.65062161631,0.9619327187538147,1.0448325872421265,1.178735375404358,1.4445979595184326
15089.65262167637,0.962742269039154,1.045318365097046,1.1779258251190186,1.4441123008728027
15089.654621736432,0.9637137651443481,1.044184923171997,1.1774400472640991,1.442816972732544
15089.656621796492,0.9629042148590088,1.0446707010269165,1.177601933479309,1.442655086517334
15089.658621856554,0.9638757109642029,1.044346809387207,1.177601933479309,1.4436265230178833
15089.660621916613,0.9646852612495422,1.044346809387207,1.177601933479309,1.4434646368026733
15089.662621976673,0.9632280468940735,1.0448325872421265,1.1769542694091797,1.442978858947754
15089.664622036735,0.9624184370040894,1.0446707010269165,1.1772781610488892,1.4439502954483032
15089.666622096795,0.9633899331092834,1.044023036956787,1.177601933479309,1.4439502954483032
15089.668622156856,0.96144700050354,1.044023036956787,1.178573489189148,1.4413597583770752
15089.670622216916,0.9617708325386047,1.044023036956787,1.1779258251190186,1.4416835308074951
15089.672622276976,0.9630661010742188,1.0445088148117065,1.1772781610488892,1.442816972732544
15089.674622337037,0.962742269039154,1.0438611507415771,1.1771161556243896,1.442816972732544
15089.676622397097,0.9611231684684753,1.0436991453170776,1.1767923831939697,1.4423311948776245
15089.678622457157,0.962742269039154,1.044184923171997,1.1769542694091797,1.4437884092330933
15089.680622517219,0.9624184370040894,1.044023036956787,1.177601933479309,1.4436265230178833
15089.682622577278,0.9624184370040894,1.0446707010269165,1.1769542694091797,1.4437884092330933
15089.684622637338,0.9637137651443481,1.0446707010269165,1.1769542694091797,1.442816972732544
15089.6866226974,0.9648471474647522,1.045156478881836,1.1771161556243896,1.4431407451629639
15089.68862275746,0.9630661010742188,1.0448325872421265,1.1771161556243896,1.442655086517334
15089.690622817521,0.9619327187538147,1.0448325872421265,1.1772781610488892,1.442816972732544
15089.692622877581,0.9619327187538147,1.0435372591018677,1.1771161556243896,1.442655086517334
15089.69462293764,0.9625803828239441,1.0435372591018677,1.1782495975494385,1.4423311948776245
15089.696622997702,0.9617708325386047,1.044023036956787,1.178573489189148,1.4423311948776245
15089.698623057762,0.9629042148590088,1.0445088148117065,1.1782495975494385,1.4431407451629639
15089.700623117822,0.9633899331092834,1.044346809387207,1.1784114837646484,1.4434646368026733
15089.702623177884,0.9641994833946228,1.0449944734573364,1.1782495975494385,1.4441123008728027
15089.704623237943,0.9646852612495422,1.0446707010269165,1.178573489189148,1.445245623588562
15089.706623298003,0.9651709794998169,1.0449944734573364,1.1779258251190186,1.4454076290130615
15089.708623358065,0.9632280468940735,1.0448325872421265,1.1784114837646484,1.4437884092330933
15089.710623418125,0.9633899331092834,1.0445088148117065,1.1788972616195679,1.4441123008728027
15089.712623478186,0.9633899331092834,1.044184923171997,1.1782495975494385,1.4439502954483032
15089.714623538246,0.9635518789291382,1.044346809387207,1.1779258251190186,1.4437884092330933
15089.716623598306,0.9622565507888794,1.0448325872421265,1.1780877113342285,1.4436265230178833
15089.718623658368,0.9630661010742188,1.045318365097046,1.1782495975494385,1.4444360733032227
15089.720623718427,0.9635518789291382,1.0448325872421265,1.1784114837646484,1.4439502954483032
15089.722623778489,0.9637137651443481,1.044184923171997,1.178573489189148,1.4439502954483032
15089.724623838549,0.9637137651443481,1.0445088148117065,1.178573489189148,1.4439502954483032
15089.726623898609,0.9646852612495422,1.044184923171997,1.1788972616195679,1.4442741870880127
15089.728623958668,0.9638757109642029,1.044184923171997,1.1793830394744873,1.4434646368026733
15089.73062401873,0.9632280468940735,1.044346809387207,1.1790591478347778,1.4436265230178833
15089.73262407879,0.9637137651443481,1.0446707010269165,1.178735375404358,1.4431407451629639
15089.734624138851,0.9625803828239441,1.0445088148117065,1.178573489189148,1.442655086517334
15089.736624198911,0.9622565507888794,1.0446707010269165,1.178573489189148,1.4424930810928345
15089.738624258971,0.9641994833946228,1.044346809387207,1.1779258251190186,1.4433027505874634
15089.740624319033,0.9648471474647522,1.0435372591018677,1.1769542694091797,1.4436265230178833
15089.742624379092,0.9641994833946228,1.0436991453170776,1.177763819694519,1.4434646368026733
15089.744624439154,0.9641994833946228,1.044346809387207,1.177601933479309,1.4433027505874634
15089.746624499214,0.9651709794998169,1.0449944734573364,1.177763819694519,1.4444360733032227
15089.748624559274,0.9633899331092834,1.044346809387207,1.177601933479309,1.4444360733032227
15089.750624619335,0.9633899331092834,1.0436991453170776,1.177763819694519,1.4444360733032227
15089.752624679395,0.9633899331092834,1.0433753728866577,1.1772781610488892,1.4437884092330933
15089.754624739455,0.9633899331092834,1.044023036956787,1.1769542694091797,1.4431407451629639
15089.756624799516,0.962742269039154,1.0448325872421265,1.177763819694519,1.4433027505874634
15089.758624859576,0.9640375971794128,1.0445088148117065,1.1779258251190186,1.4437884092330933
15089.760624919636,0.9641994833946228,1.044346809387207,1.177601933479309,1.4437884092330933
15089.762624979698,0.9645233154296875,1.044023036956787,1.1774400472640991,1.4437884092330933
15089.764625039757,0.9640375971794128,1.044346809387207,1.1767923831939697,1.4445979595184326
15089.766625099819,0.9645233154296875,1.0436991453170776,1.1759828329086304,1.444921851158142
15089.768625159879,0.9633899331092834,1.044184923171997,1.1758209466934204,1.4436265230178833
15089.770625219939,0.9624184370040894,1.044346809387207,1.1761447191238403,1.442816972732544
15089.77262528,0.9619327187538147,1.0435372591018677,1.175658941268921,1.4433027505874634
15089.77462534006,0.9620946049690247,1.0436991453170776,1.175173282623291,1.4439502954483032
15089.77662540012,0.960475504398346,1.044023036956787,1.1759828329086304,1.4433027505874634
15089.778625460182,0.96160888671875,1.044023036956787,1.175658941268921,1.4439502954483032
15089.780625520241,0.96144700050354,1.044023036956787,1.175335168838501,1.4442741870880127
15089.782625580301,0.96144700050354,1.0436991453170776,1.175497055053711,1.4441123008728027
15089.784625640363,0.96160888671875,1.0433753728866577,1.1758209466934204,1.4439502954483032
15089.786625700423,0.9629042148590088,1.0435372591018677,1.1759828329086304,1.4433027505874634
15089.788625760484,0.9622565507888794,1.0436991453170776,1.175335168838501,1.4423311948776245
15089.790625820544,0.9612850546836853,1.0433753728866577,1.175497055053711,1.442978858947754
15089.792625880604,0.9607993364334106,1.0432134866714478,1.1758209466934204,1.4424930810928345
15089.794625940665,0.9606373906135559,1.0436991453170776,1.175497055053711,1.4434646368026733
15089.796626000725,0.9599897265434265,1.0433753728866577,1.175335168838501,1.4434646368026733
15089.798626060787,0.9620946049690247,1.0446707010269165,1.1748493909835815,1.4441123008728027
15089.800626120847,0.9632280468940735,1.0446707010269165,1.1738779544830322,1.4444360733032227
15089.802626180906,0.9632280468940735,1.044184923171997,1.1740398406982422,1.4441123008728027
15089.804626240968,0.9629042148590088,1.044184923171997,1.1745256185531616,1.4442741870880127
15089.806626301028,0.9640375971794128,1.044346809387207,1.1743637323379517,1.4439502954483032
15089.808626361088,0.9625803828239441,1.044346809387207,1.175335168838501,1.4424930810928345
15089.81062642115,0.9617708325386047,1.0438611507415771,1.1745256185531616,1.4431407451629639
15089.812626481209,0.9617708325386047,1.0438611507415771,1.1740398406982422,1.4436265230178833
15089.814626541269,0.96160888671875,1.0445088148117065,1.1748493909835815,1.4433027505874634
15089.81662660133,0.9596659541130066,1.0445088148117065,1.175497055053711,1.442978858947754
15089.81862666139,0.9611231684684753,1.044023036956787,1.175173282623291,1.4433027505874634
15089.820626721452,0.9620946049690247,1.0438611507415771,1.175173282623291,1.4441123008728027
15089.822626781512,0.96144700050354,1.0438611507415771,1.1746875047683716,1.4436265230178833
15089.824626841571,0.9620946049690247,1.044346809387207,1.1746875047683716,1.4442741870880127
15089.826626901633,0.9620946049690247,1.0445088148117065,1.175173282623291,1.4455695152282715
15089.828626961693,0.96144700050354,1.044346809387207,1.1750112771987915,1.4439502954483032
15089.830627021753,0.9620946049690247,1.0445088148117065,1.1746875047683716,1.4436265230178833
15089.832627081814,0.962742269039154,1.0448325872421265,1.1745256185531616,1.4439502954483032
15089.834627141874,0.9622565507888794,1.0445088148117065,1.1745256185531616,1.4439502954483032
15089.836627201934,0.9612850546836853,1.045156478881836,1.1738779544830322,1.4439502954483032
15089.838627261995,0.9622565507888794,1.0456421375274658,1.1738779544830322,1.445245623588562
15089.840627322055,0.9629042148590088,1.045318365097046,1.1742017269134521,1.4458932876586914
15089.842627382117,0.9624184370040894,1.0448325872421265,1.1743637323379517,1.4454076290130615
15089.844627442177,0.962742269039154,1.044184923171997,1.1740398406982422,1.445083737373352
15089.846627502237,0.9635518789291382,1.0449944734573364,1.1743637323379517,1.4454076290130615
15089.848627562298,0.9617708325386047,1.0454802513122559,1.1745256185531616,1.4444360733032227
15089.850627622358,0.96144700050354,1.045156478881836,1.1742017269134521,1.445245623588562
15089.85262768242,0.9620946049690247,1.0446707010269165,1.1737160682678223,1.4457314014434814
15089.85462774248,0.962742269039154,1.0449944734573364,1.1743637323379517,1.445245623588562
15089.85662780254,0.96160888671875,1.045156478881836,1.1750112771987915,1.4454076290130615
15089.858627862599,0.9622565507888794,1.0449944734573364,1.175497055053711,1.4465409517288208
15089.86062792266,0.9629042148590088,1.0454802513122559,1.1758209466934204,1.4463790655136108
15089.86262798272,0.9625803828239441,1.0467755794525146,1.175335168838501,1.4467028379440308
15089.864628042782,0.9624184370040894,1.0467755794525146,1.175658941268921,1.4457314014434814
15089.866628102842,0.9620946049690247,1.0461279153823853,1.175335168838501,1.4460551738739014
15089.868628162902,0.96144700050354,1.0458040237426758,1.1758209466934204,1.4458932876586914
15089.870628222963,0.9620946049690247,1.0458040237426758,1.1761447191238403,1.4457314014434814
15089.872628283023,0.9624184370040894,1.0454802513122559,1.1750112771987915,1.445245623588562
15089.874628343085,0.9622565507888794,1.0461279153823853,1.1758209466934204,1.444921851158142
15089.876628403144,0.9603135585784912,1.0467755794525146,1.175335168838501,1.444921851158142
15089.878628463204,0.9624184370040894,1.047423243522644,1.1750112771987915,1.4460551738739014
15089.880628523266,0.9630661010742188,1.0464516878128052,1.1748493909835815,1.4455695152282715
15089.882628583326,0.9617708325386047,1.0464516878128052,1.175335168838501,1.4458932876586914
15089.884628643385,0.9617708325386047,1.0470993518829346,1.175497055053711,1.4463790655136108
15089.886628703447,0.9633899331092834,1.0485565662384033,1.175497055053711,1.4460551738739014
15089.888628763507,0.9612850546836853,1.047423243522644,1.175335168838501,1.4455695152282715
15089.890628823567,0.9611231684684753,1.0467755794525146,1.1748493909835815,1.4455695152282715
15089.892628883628,0.96144700050354,1.047261357307434,1.1748493909835815,1.445245623588562
15089.894628943688,0.96144700050354,1.047585129737854,1.1745256185531616,1.4454076290130615
15089.89662900375,0.9603135585784912,1.0464516878128052,1.175497055053711,1.4444360733032227
15089.89862906381,0.96160888671875,1.0467755794525146,1.175173282623291,1.4458932876586914
15089.90062912387,0.9609612226486206,1.0469374656677246,1.175497055053711,1.4460551738739014
15089.902629183931,0.9611231684684753,1.0469374656677246,1.175335168838501,1.4455695152282715
15089.90462924399,0.96144700050354,1.0470993518829346,1.1745256185531616,1.4457314014434814
15089.90662930405,0.9622565507888794,1.0469374656677246,1.1742017269134521,1.4455695152282715
15089.908629364112,0.9607993364334106,1.0469374656677246,1.1745256185531616,1.4454076290130615
15089.910629424172,0.9606373906135559,1.0469374656677246,1.1735540628433228,1.4445979595184326
15089.912629484232,0.960475504398346,1.0464516878128052,1.1733921766281128,1.4447599649429321
15089.914629544293,0.9601516723632812,1.0469374656677246,1.1733921766281128,1.4454076290130615
15089.916629604353,0.9582086801528931,1.047585129737854,1.1745256185531616,1.4455695152282715
15089.918629664415,0.9596659541130066,1.0482327938079834,1.1745256185531616,1.4462171792984009
15089.920629724475,0.9606373906135559,1.0483946800231934,1.1743637323379517,1.4455695152282715
15089.922629784534,0.9611231684684753,1.047908902168274,1.1742017269134521,1.4458932876586914
15089.924629844596,0.9611231684684753,1.047908902168274,1.1735540628433228,1.4455695152282715
15089.926629904656,0.9609612226486206,1.0480709075927734,1.1735540628433228,1.4460551738739014
15089.928629964717,0.9591801762580872,1.0480709075927734,1.1730684041976929,1.4462171792984009
15089.930630024777,0.9590182900428772,1.0483946800231934,1.1740398406982422,1.4460551738739014
15089.932630084837,0.9588563442230225,1.047747015953064,1.1746875047683716,1.4454076290130615
15089.934630144899,0.9583706259727478,1.0483946800231934,1.1737160682678223,1.445245623588562
15089.936630204958,0.9575610160827637,1.0483946800231934,1.1737160682678223,1.445245623588562
15089.938630265018,0.9591801762580872,1.0483946800231934,1.1730684041976929,1.444921851158142
15089.94063032508,0.9588563442230225,1.0485565662384033,1.172096848487854,1.445245623588562
15089.94263038514,0.9591801762580872,1.0483946800231934,1.172096848487854,1.4457314014434814
15089.9446304452,0.9590182900428772,1.0488804578781128,1.172096848487854,1.445083737373352
15089.946630505261,0.9606373906135559,1.0490423440933228,1.1729063987731934,1.445245623588562
15089.94863056532,0.9590182900428772,1.0485565662384033,1.1732302904129028,1.4445979595184326
15089.950630625382,0.9583706259727478,1.0480709075927734,1.1738779544830322,1.4447599649429321
15089.952630685442,0.9585325121879578,1.0469374656677246,1.1727445125579834,1.445083737373352
15089.954630745502,0.9586944580078125,1.0480709075927734,1.1730684041976929,1.4457314014434814
15089.956630805564,0.9572372436523438,1.047908902168274,1.1733921766281128,1.445083737373352
15089.958630865623,0.9586944580078125,1.047747015953064,1.1733921766281128,1.445245623588562
15089.960630925683,0.9588563442230225,1.0483946800231934,1.1730684041976929,1.445245623588562
15089.962630985745,0.9586944580078125,1.0490423440933228,1.1730684041976929,1.4445979595184326
15089.964631045805,0.9588563442230225,1.0485565662384033,1.1725826263427734,1.4445979595184326
15089.966631105865,0.9588563442230225,1.0482327938079834,1.1725826263427734,1.4444360733032227
15089.968631165926,0.9580467939376831,1.0483946800231934,1.1727445125579834,1.444921851158142
15089.970631225986,0.957075297832489,1.0483946800231934,1.1729063987731934,1.4447599649429321
15089.972631286048,0.9573991298675537,1.0482327938079834,1.1733921766281128,1.4444360733032227
15089.974631346107,0.9583706259727478,1.0482327938079834,1.1742017269134521,1.4444360733032227
15089.976631406167,0.957075297832489,1.0480709075927734,1.1735540628433228,1.4441123008728027
15089.978631466229,0.9580467939376831,1.0485565662384033,1.1737160682678223,1.4441123008728027
15089.980631526289,0.9583706259727478,1.0492042303085327,1.1737160682678223,1.4447599649429321
15089.982631586348,0.9573991298675537,1.0485565662384033,1.1735540628433228,1.444921851158142
15089.98463164641,0.9577229619026184,1.0485565662384033,1.1730684041976929,1.4455695152282715
15089.98663170647,0.9595040082931519,1.0487185716629028,1.1737160682678223,1.444921851158142
15089.98863176653,0.9583706259727478,1.0485565662384033,1.1735540628433228,1.4444360733032227
15089.990631826591,0.9578848481178284,1.0485565662384033,1.1735540628433228,1.4441123008728027
15089.992631886651,0.957075297832489,1.0487185716629028,1.1740398406982422,1.4441123008728027
15089.994631946713,0.9580467939376831,1.0492042303085327,1.1745256185531616,1.4441123008728027
15089.996632006772,0.9578848481178284,1.0487185716629028,1.1737160682678223,1.4433027505874634
15089.998632066832,0.9590182900428772,1.049851894378662,1.1735540628433228,1.445083737373352
15090.000632126894,0.9590182900428772,1.0503376722335815,1.1740398406982422,1.444921851158142
15090.002632186954,0.9583706259727478,1.0495281219482422,1.1746875047683716,1.444921851158142
15090.004632247015,0.9572372436523438,1.0490423440933228,1.175658941268921,1.445245623588562
15090.006632307075,0.9580467939376831,1.0485565662384033,1.175497055053711,1.4447599649429321
15090.008632367135,0.956913411617279,1.0492042303085327,1.175173282623291,1.4442741870880127
15090.010632427196,0.9572372436523438,1.050013780593872,1.1742017269134521,1.445245623588562
15090.012632487256,0.957075297832489,1.0501757860183716,1.1748493909835815,1.445245623588562
15090.014632547316,0.9567514657974243,1.0496900081634521,1.175173282623291,1.444921851158142
15090.016632607378,0.9567514657974243,1.0493662357330322,1.1758209466934204,1.4442741870880127
15090.018632667437,0.9582086801528931,1.0495281219482422,1.175497055053711,1.4444360733032227
15090.020632727497,0.9582086801528931,1.0492042303085327,1.175335168838501,1.445245623588562
15090.022632787559,0.9580467939376831,1.0488804578781128,1.175335168838501,1.4454076290130615
15090.024632847619,0.9580467939376831,1.0488804578781128,1.175173282623291,1.4447599649429321
15090.02663290768,0.9591801762580872,1.0493662357330322,1.1750112771987915,1.4442741870880127
15090.02863296774,0.9575610160827637,1.049851894378662,1.1748493909835815,1.4439502954483032
15090.0306330278,0.9564276337623596,1.0506614446640015,1.1738779544830322,1.4442741870880127
15090.032633087862,0.9561038017272949,1.0506614446640015,1.1729063987731934,1.4447599649429321
15090.034633147921,0.9561038017272949,1.0495281219482422,1.1740398406982422,1.4442741870880127
15090.036633207981,0.9556180834770203,1.049851894378662,1.1750112771987915,1.4442741870880127
15090.038633268043,0.9577229619026184,1.050013780593872,1.1748493909835815,1.4441123008728027
15090.040633328103,0.9580467939376831,1.0496900081634521,1.1750112771987915,1.4436265230178833
15090.042633388162,0.9573991298675537,1.0504995584487915,1.1746875047683716,1.4431407451629639
15090.044633448224,0.9575610160827637,1.0504995584487915,1.1742017269134521,1.4434646368026733
15090.046633508284,0.9583706259727478,1.0501757860183716,1.1742017269134521,1.4444360733032227
15090.048633568345,0.9575610160827637,1.050013780593872,1.1733921766281128,1.442978858947754
15090.050633628405,0.9567514657974243,1.0487185716629028,1.1742017269134521,1.442978858947754
15090.052633688465,0.9564276337623596,1.047261357307434,1.1745256185531616,1.4433027505874634
15090.054633748527,0.9551323652267456,1.0483946800231934,1.175658941268921,1.4434646368026733
15090.056633808586,0.9546465873718262,1.049851894378662,1.1761447191238403,1.4436265230178833
15090.058633868648,0.9567514657974243,1.0496900081634521,1.175335168838501,1.4431407451629639
15090.060633928708,0.956913411617279,1.0492042303085327,1.175658941268921,1.4424930810928345
15090.062633988768,0.955941915512085,1.0483946800231934,1.175658941268921,1.441845417022705
15090.064634048827,0.9557799696922302,1.0487185716629028,1.1746875047683716,1.4410358667373657
15090.066634108889,0.9565895795822144,1.0492042303085327,1.1748493909835815,1.4410358667373657
15090.068634168949,0.9551323652267456,1.0492042303085327,1.1743637323379517,1.4405502080917358
15090.07063422901,0.9548085331916809,1.0493662357330322,1.175173282623291,1.4407120943069458
15090.07263428907,0.9551323652267456,1.0487185716629028,1.175658941268921,1.4415216445922852
15090.07463434913,0.9552942514419556,1.047908902168274,1.1743637323379517,1.4405502080917358
15090.076634409192,0.9543227553367615,1.0485565662384033,1.1740398406982422,1.4402263164520264
15090.078634469251,0.9564276337623596,1.0488804578781128,1.1742017269134521,1.4415216445922852
15090.080634529313,0.9564276337623596,1.0490423440933228,1.1745256185531616,1.441845417022705
15090.082634589373,0.9554561376571655,1.0493662357330322,1.1740398406982422,1.4416835308074951
15090.084634649433,0.9552942514419556,1.0495281219482422,1.1735540628433228,1.4421693086624146
15090.086634709494,0.955941915512085,1.0490423440933228,1.1740398406982422,1.4415216445922852
15090.088634769554,0.9546465873718262,1.049851894378662,1.1742017269134521,1.4403882026672363
15090.090634829614,0.9546465873718262,1.050013780593872,1.1735540628433228,1.4400644302368164
15090.092634889676,0.9552942514419556,1.0496900081634521,1.1737160682678223,1.4403882026672363
15090.094634949735,0.9549704194068909,1.0483946800231934,1.1743637323379517,1.4403882026672363
15090.096635009795,0.9538370370864868,1.0480709075927734,1.1748493909835815,1.4402263164520264
15090.098635069857,0.9552942514419556,1.047747015953064,1.1742017269134521,1.4408739805221558
15090.100635129917,0.9554561376571655,1.0487185716629028,1.1737160682678223,1.4411978721618652
15090.102635189978,0.9556180834770203,1.0492042303085327,1.1745256185531616,1.4416835308074951
15090.104635250038,0.955941915512085,1.0490423440933228,1.1742017269134521,1.4416835308074951
15090.106635310098,0.9567514657974243,1.0485565662384033,1.1743637323379517,1.4415216445922852
15090.10863537016,0.9551323652267456,1.0485565662384033,1.175335168838501,1.4399025440216064
15090.11063543022,0.9543227553367615,1.0488804578781128,1.1759828329086304,1.4403882026672363
15090.112635490279,0.9548085331916809,1.0488804578781128,1.175497055053711,1.4405502080917358
15090.11463555034,0.9551323652267456,1.049851894378662,1.175658941268921,1.4407120943069458
15090.1166356104,0.9541608691215515,1.0490423440933228,1.1748493909835815,1.4408739805221558
15090.11863567046,0.9552942514419556,1.050013780593872,1.1746875047683716,1.4410358667373657
15090.120635730522,0.9554561376571655,1.050823450088501,1.1743637323379517,1.4410358667373657
15090.122635790582,0.955941915512085,1.0504995584487915,1.1750112771987915,1.4411978721618652
15090.124635850643,0.9556180834770203,1.049851894378662,1.175497055053711,1.4421693086624146
15090.126635910703,0.957075297832489,1.0490423440933228,1.175335168838501,1.4423311948776245
15090.128635970763,0.9549704194068909,1.0490423440933228,1.1761447191238403,1.4411978721618652
15090.130636030824,0.9549704194068909,1.049851894378662,1.1764686107635498,1.4411978721618652
15090.132636090884,0.9548085331916809,1.0506614446640015,1.1761447191238403,1.4416835308074951
15090.134636150946,0.9551323652267456,1.050985336303711,1.1763066053390503,1.4403882026672363
15090.136636211006,0.9541608691215515,1.0506614446640015,1.1769542694091797,1.4403882026672363
15090.138636271065,0.9561038017272949,1.0506614446640015,1.1771161556243896,1.441845417022705
15090.140636331127,0.9565895795822144,1.0506614446640015,1.1772781610488892,1.4413597583770752
15090.142636391187,0.9561038017272949,1.0513091087341309,1.1766304969787598,1.4411978721618652
15090.144636451247,0.955941915512085,1.0514711141586304,1.1771161556243896,1.4413597583770752
15090.146636511308,0.9564276337623596,1.050823450088501,1.1766304969787598,1.4416835308074951
15090.148636571368,0.9539989233016968,1.050823450088501,1.1767923831939697,1.4415216445922852
15090.150636631428,0.9548085331916809,1.050985336303711,1.177601933479309,1.4407120943069458
15090.15263669149,0.9548085331916809,1.0506614446640015,1.177763819694519,1.4403882026672363
15090.15463675155,0.9541608691215515,1.050823450088501,1.1774400472640991,1.4408739805221558
15090.156636811611,0.9538370370864868,1.050823450088501,1.1766304969787598,1.4405502080917358
15090.15863687167,0.9543227553367615,1.050985336303711,1.1771161556243896,1.4423311948776245
15090.16063693173,0.9552942514419556,1.0513091087341309,1.177601933479309,1.442655086517334
15090.162636991792,0.955941915512085,1.0513091087341309,1.177763819694519,1.4423311948776245
15090.164637051852,0.9557799696922302,1.050823450088501,1.1772781610488892,1.4415216445922852
15090.166637111912,0.9562657475471497,1.0503376722335815,1.177601933479309,1.442816972732544
15090.168637171973,0.9551323652267456,1.0504995584487915,1.1767923831939697,1.4416835308074951
15090.170637232033,0.9548085331916809,1.0504995584487915,1.1767923831939697,1.4411978721618652
15090.172637292093,0.9554561376571655,1.0514711141586304,1.1774400472640991,1.4410358667373657
15090.174637352155,0.9549704194068909,1.0522806644439697,1.1769542694091797,1.441845417022705
15090.176637412214,0.9541608691215515,1.0521186590194702,1.1767923831939697,1.4408739805221558
15090.178637472276,0.9551323652267456,1.0513091087341309,1.1764686107635498,1.4420074224472046
15090.180637532336,0.9554561376571655,1.051147222518921,1.1767923831939697,1.4416835308074951
15090.182637592396,0.9556180834770203,1.050985336303711,1.1772781610488892,1.4416835308074951
15090.184637652457,0.9554561376571655,1.050823450088501,1.1771161556243896,1.4416835308074951
15090.186637712517,0.955941915512085,1.0504995584487915,1.177601933479309,1.441845417022705
15090.188637772579,0.9546465873718262,1.0514711141586304,1.1769542694091797,1.4411978721618652
15090.190637832638,0.9541608691215515,1.0516330003738403,1.1761447191238403,1.4405502080917358
15090.192637892698,0.9535132050514221,1.051147222518921,1.1759828329086304,1.4402263164520264
15090.194637952758,0.9541608691215515,1.0513091087341309,1.1767923831939697,1.4408739805221558
15090.19663801282,0.9531893730163574,1.0504995584487915,1.1769542694091797,1.4413597583770752
15090.19863807288,0.9544847011566162,1.0504995584487915,1.1767923831939697,1.4415216445922852
15090.200638132941,0.9548085331916809,1.0506614446640015,1.1769542694091797,1.4413597583770752
15090.202638193,0.9548085331916809,1.050985336303711,1.1764686107635498,1.4408739805221558
15090.20463825306,0.9548085331916809,1.0517948865890503,1.1763066053390503,1.4410358667373657
15090.206638313122,0.9551323652267456,1.0526044368743896,1.1764686107635498,1.4416835308074951
15090.208638373182,0.9533512592315674,1.0516330003738403,1.1771161556243896,1.4402263164520264
15090.210638433244,0.9522178769111633,1.0516330003738403,1.1772781610488892,1.4403882026672363
15090.212638493304,0.9520559906959534,1.0522806644439697,1.1764686107635498,1.4410358667373657
15090.214638553363,0.9528655409812927,1.0516330003738403,1.1766304969787598,1.4411978721618652
15090.216638613425,0.952541708946228,1.050823450088501,1.177601933479309,1.4405502080917358
15090.218638673485,0.9538370370864868,1.0506614446640015,1.1766304969787598,1.4415216445922852
15090.220638733545,0.9546465873718262,1.050985336303711,1.175658941268921,1.4415216445922852
15090.222638793606,0.9541608691215515,1.0513091087341309,1.175658941268921,1.4410358667373657
15090.224638853666,0.9539989233016968,1.0513091087341309,1.1761447191238403,1.4413597583770752
15090.226638913726,0.9544847011566162,1.0514711141586304,1.1764686107635498,1.4413597583770752
15090.228638973787,0.9523798227310181,1.0514711141586304,1.1769542694091797,1.4410358667373657
15090.230639033847,0.9518940448760986,1.0513091087341309,1.1772781610488892,1.4413597583770752
15090.232639093909,0.9531893730163574,1.051147222518921,1.177763819694519,1.4405502080917358
15090.234639153969,0.9541608691215515,1.0514711141586304,1.1772781610488892,1.4403882026672363
15090.236639214028,0.9523798227310181,1.0521186590194702,1.1766304969787598,1.439740538597107
15090.23863927409,0.9536750912666321,1.0522806644439697,1.1759828329086304,1.4405502080917358
15090.24063933415,0.9530274868011475,1.0522806644439697,1.1763066053390503,1.4413597583770752
15090.24263939421,0.952541708946228,1.0519567728042603,1.1761447191238403,1.441845417022705
15090.244639454271,0.952541708946228,1.0516330003738403,1.1764686107635498,1.4410358667373657
15090.246639514331,0.9535132050514221,1.050985336303711,1.1758209466934204,1.4416835308074951
15090.24863957439,0.9517321586608887,1.051147222518921,1.1763066053390503,1.4413597583770752
15090.250639634452,0.9518940448760986,1.0522806644439697,1.1764686107635498,1.4416835308074951
15090.252639694512,0.9515702128410339,1.0529283285140991,1.1763066053390503,1.4410358667373657
15090.254639754574,0.9512463808059692,1.0524425506591797,1.1766304969787598,1.4405502080917358
15090.256639814634,0.9510844945907593,1.0517948865890503,1.1763066053390503,1.4399025440216064
15090.258639874693,0.9530274868011475,1.0516330003738403,1.1763066053390503,1.4403882026672363
15090.260639934755,0.9528655409812927,1.0519567728042603,1.1763066053390503,1.4407120943069458
15090.262639994815,0.9523798227310181,1.0517948865890503,1.1766304969787598,1.4402263164520264
15090.264640054877,0.952541708946228,1.0521186590194702,1.1763066053390503,1.4410358667373657
15090.266640114936,0.9528655409812927,1.0517948865890503,1.1759828329086304,1.4410358667373657
15090.268640174996,0.951408326625824,1.0513091087341309,1.1759828329086304,1.4403882026672363
15090.270640235058,0.9517321586608887,1.0513091087341309,1.175173282623291,1.4403882026672363
15090.272640295118,0.9523798227310181,1.0516330003738403,1.175335168838501,1.4405502080917358
15090.274640355177,0.9518940448760986,1.0513091087341309,1.175497055053711,1.4403882026672363
15090.276640415239,0.9505987763404846,1.0516330003738403,1.1761447191238403,1.4411978721618652
15090.278640475299,0.9515702128410339,1.0517948865890503,1.1758209466934204,1.441845417022705
15090.280640535359,0.9518940448760986,1.0513091087341309,1.175335168838501,1.4411978721618652
15090.28264059542,0.9518940448760986,1.0516330003738403,1.1763066053390503,1.4408739805221558
15090.28464065548,0.9512463808059692,1.0537378787994385,1.1763066053390503,1.4411978721618652
15090.286640715542,0.952541708946228,1.053413987159729,1.1766304969787598,1.4413597583770752
15090.288640775601,0.9510844945907593,1.0526044368743896,1.1759828329086304,1.4415216445922852
15090.290640835661,0.9509226083755493,1.0527663230895996,1.1750112771987915,1.441845417022705
15090.292640895723,0.951408326625824,1.0522806644439697,1.175658941268921,1.4413597583770752
15090.294640955783,0.9512463808059692,1.0522806644439697,1.175497055053711,1.4416835308074951
15090.296641015842,0.9512463808059692,1.0526044368743896,1.175335168838501,1.4416835308074951
15090.298641075904,0.952541708946228,1.053413987159729,1.175335168838501,1.4416835308074951
15090.300641135964,0.9517321586608887,1.053413987159729,1.175497055053711,1.4411978721618652
15090.302641196024,0.9523798227310181,1.0526044368743896,1.1758209466934204,1.4420074224472046
15090.304641256085,0.9527036547660828,1.0526044368743896,1.175658941268921,1.4423311948776245
15090.306641316145,0.9539989233016968,1.0524425506591797,1.1758209466934204,1.442655086517334
15090.308641376207,0.9518940448760986,1.0527663230895996,1.175658941268921,1.441845417022705
15090.310641436266,0.951408326625824,1.053413987159729,1.1759828329086304,1.4416835308074951
15090.312641496326,0.9507606625556946,1.0527663230895996,1.175497055053711,1.441845417022705
15090.314641556388,0.9505987763404846,1.0527663230895996,1.175658941268921,1.441845417022705
15090.316641616448,0.9499511122703552,1.0527663230895996,1.1763066053390503,1.4411978721618652
15090.318641676507,0.9507606625556946,1.0527663230895996,1.1764686107635498,1.4421693086624146
15090.320641736569,0.9515702128410339,1.0522806644439697,1.1761447191238403,1.442978858947754
15090.322641796629,0.9517321586608887,1.0529283285140991,1.1759828329086304,1.442978858947754
15090.324641856689,0.9518940448760986,1.053252100944519,1.1763066053390503,1.442816972732544
15090.32664191675,0.9531893730163574,1.0537378787994385,1.1758209466934204,1.442816972732544
15090.32864197681,0.9507606625556946,1.0538997650146484,1.1759828329086304,1.4423311948776245
15090.330642036872,0.9505987763404846,1.0540616512298584,1.1758209466934204,1.4421693086624146
15090.332642096932,0.9507606625556946,1.0540616512298584,1.175335168838501,1.4424930810928345
15090.334642156991,0.9507606625556946,1.053252100944519,1.175173282623291,1.4424930810928345
15090.336642217053,0.9497891664505005,1.0537378787994385,1.1758209466934204,1.4433027505874634
15090.338642277113,0.9515702128410339,1.0537378787994385,1.1758209466934204,1.4439502954483032
15090.340642337174,0.9515702128410339,1.053252100944519,1.1746875047683716,1.4431407451629639
15090.342642397234,0.9509226083755493,1.053252100944519,1.1746875047683716,1.4431407451629639
15090.344642457294,0.9517321586608887,1.0538997650146484,1.1750112771987915,1.442816972732544
15090.346642517356,0.9527036547660828,1.0540616512298584,1.175173282623291,1.4423311948776245
15090.348642577415,0.951408326625824,1.0538997650146484,1.1759828329086304,1.4408739805221558
15090.350642637475,0.9509226083755493,1.0537378787994385,1.175497055053711,1.4413597583770752
15090.352642697537,0.9505987763404846,1.0540616512298584,1.175335168838501,1.4423311948776245
15090.354642757597,0.9502749443054199,1.0542235374450684,1.175658941268921,1.442816972732544
15090.356642817656,0.9501129984855652,1.0540616512298584,1.175173282623291,1.4423311948776245
15090.358642877718,0.9518940448760986,1.0538997650146484,1.175335168838501,1.4431407451629639
15090.360642937778,0.9512463808059692,1.0540616512298584,1.1750112771987915,1.4424930810928345
15090.36264299784,0.9510844945907593,1.0545474290847778,1.1745256185531616,1.4423311948776245
15090.3646430579,0.9510844945907593,1.0540616512298584,1.1748493909835815,1.4423311948776245
15090.366643117959,0.9522178769111633,1.0543855428695679,1.1740398406982422,1.442816972732544
15090.36864317802,0.9499511122703552,1.0538997650146484,1.1729063987731934,1.4431407451629639
15090.37064323808,0.9493034482002258,1.0551950931549072,1.1730684041976929,1.4424930810928345
15090.37264329814,0.9501129984855652,1.0545474290847778,1.1727445125579834,1.442655086517334
15090.374643358202,0.9499511122703552,1.0547093152999878,1.1729063987731934,1.4424930810928345
15090.376643418262,0.9486557841300964,1.0547093152999878,1.1725826263427734,1.442816972732544
15090.378643478321,0.9507606625556946,1.053413987159729,1.1727445125579834,1.442655086517334
15090.380643538383,0.9497891664505005,1.0535759925842285,1.1733921766281128,1.4431407451629639
15090.382643598443,0.9493034482002258,1.0537378787994385,1.1732302904129028,1.4436265230178833
15090.384643658505,0.9504368305206299,1.0538997650146484,1.1738779544830322,1.4441123008728027
15090.386643718564,0.951408326625824,1.0538997650146484,1.1738779544830322,1.442978858947754
15090.388643778624,0.9494653344154358,1.0537378787994385,1.1742017269134521,1.4423311948776245
15090.390643838686,0.9488176703453064,1.0537378787994385,1.1746875047683716,1.4423311948776245
15090.392643898746,0.9497891664505005,1.0538997650146484,1.1738779544830322,1.4431407451629639
15090.394643958807,0.9489796161651611,1.0542235374450684,1.1733921766281128,1.4434646368026733
15090.396644018867,0.9483319520950317,1.0527663230895996,1.1730684041976929,1.4424930810928345
15090.398644078927,0.9489796161651611,1.0529283285140991,1.171934962272644,1.4439502954483032
15090.400644138988,0.9484938979148865,1.0540616512298584,1.1727445125579834,1.4433027505874634
15090.402644199048,0.9493034482002258,1.0542235374450684,1.1729063987731934,1.4433027505874634
15090.404644259108,0.9504368305206299,1.0535759925842285,1.172096848487854,1.442816972732544
15090.40664431917,0.951408326625824,1.0537378787994385,1.171934962272644,1.4433027505874634
15090.40864437923,0.9494653344154358,1.0537378787994385,1.171773076057434,1.442655086517334
15090.41064443929,0.9494653344154358,1.053413987159729,1.1724207401275635,1.4436265230178833
15090.41264449935,0.9486557841300964,1.0538997650146484,1.1729063987731934,1.4441123008728027
15090.41464455941,0.9484938979148865,1.0547093152999878,1.1722588539123535,1.442816972732544
15090.416644619472,0.9476842880249023,1.0543855428695679,1.171934962272644,1.442816972732544
15090.418644679532,0.9484938979148865,1.0547093152999878,1.172096848487854,1.4442741870880127
15090.420644739592,0.9483319520950317,1.0545474290847778,1.172096848487854,1.4439502954483032
15090.422644799653,0.9483319520950317,1.0551950931549072,1.1722588539123535,1.4439502954483032
15090.424644859713,0.9494653344154358,1.0551950931549072,1.172096848487854,1.4437884092330933
15090.426644919773,0.9501129984855652,1.0545474290847778,1.1725826263427734,1.4439502954483032
15090.428644979835,0.9493034482002258,1.0543855428695679,1.1733921766281128,1.4434646368026733
15090.430645039894,0.9488176703453064,1.0543855428695679,1.1732302904129028,1.4436265230178833
15090.432645099954,0.9484938979148865,1.0543855428695679,1.1730684041976929,1.4434646368026733
15090.434645160016,0.9489796161651611,1.0545474290847778,1.1733921766281128,1.4441123008728027
15090.436645220076,0.9483319520950317,1.0551950931549072,1.1733921766281128,1.4436265230178833
15090.438645280137,0.9501129984855652,1.056328535079956,1.1737160682678223,1.4444360733032227
15090.440645340197,0.9505987763404846,1.0561665296554565,1.1732302904129028,1.4437884092330933
15090.442645400257,0.9505987763404846,1.056652307510376,1.1733921766281128,1.4442741870880127
15090.444645460318,0.9504368305206299,1.0558427572250366,1.1746875047683716,1.4444360733032227
15090.446645520378,0.951408326625824,1.0558427572250366,1.1746875047683716,1.4445979595184326
15090.448645580438,0.9499511122703552,1.0558427572250366,1.1738779544830322,1.4447599649429321
15090.4506456405,0.9501129984855652,1.0556808710098267,1.1732302904129028,1.445245623588562
15090.45264570056,0.9497891664505005,1.0555188655853271,1.1724207401275635,1.4447599649429321
15090.45464576062,0.9501129984855652,1.0561665296554565,1.1738779544830322,1.444921851158142
15090.456645820681,0.9497891664505005,1.0553569793701172,1.1740398406982422,1.445083737373352
15090.45864588074,0.9505987763404846,1.0558427572250366,1.1737160682678223,1.445245623588562
15090.460645940802,0.9502749443054199,1.0560046434402466,1.1735540628433228,1.445083737373352
15090.462646000862,0.9504368305206299,1.056328535079956,1.1735540628433228,1.445083737373352
15090.464646060922,0.9507606625556946,1.056328535079956,1.1733921766281128,1.4444360733032227
15090.466646120984,0.9517321586608887,1.056652307510376,1.1733921766281128,1.4445979595184326
15090.468646181043,0.9504368305206299,1.0561665296554565,1.1737160682678223,1.4439502954483032
15090.470646241105,0.9497891664505005,1.0558427572250366,1.1735540628433228,1.4437884092330933
15090.472646301165,0.9496272802352905,1.0547093152999878,1.1737160682678223,1.4437884092330933
15090.474646361225,0.9491415023803711,1.0547093152999878,1.1737160682678223,1.4439502954483032
15090.476646421286,0.9497891664505005,1.0547093152999878,1.1725826263427734,1.4439502954483032
15090.478646481346,0.9509226083755493,1.0545474290847778,1.172096848487854,1.444921851158142
15090.480646541406,0.9507606625556946,1.0551950931549072,1.172096848487854,1.444921851158142
15090.482646601467,0.9499511122703552,1.0560046434402466,1.1724207401275635,1.4447599649429321
15090.484646661527,0.9493034482002258,1.0555188655853271,1.1729063987731934,1.4441123008728027
15090.486646721587,0.9507606625556946,1.0550332069396973,1.1730684041976929,1.4437884092330933
15090.488646781649,0.9494653344154358,1.0551950931549072,1.1730684041976929,1.4441123008728027
15090.490646841708,0.9488176703453064,1.0551950931549072,1.1727445125579834,1.4442741870880127
15090.49264690177,0.9488176703453064,1.0555188655853271,1.1729063987731934,1.4442741870880127
15090.49464696183,0.9486557841300964,1.0545474290847778,1.172096848487854,1.4439502954483032
15090.49664702189,0.9475224018096924,1.0553569793701172,1.172096848487854,1.444921851158142
15090.498647081951,0.9488176703453064,1.0561665296554565,1.172096848487854,1.4463790655136108
15090.500647142011,0.9484938979148865,1.0560046434402466,1.171773076057434,1.445083737373352
15090.50264720207,0.9491415023803711,1.0551950931549072,1.1716111898422241,1.4444360733032227
15090.504647262132,0.9496272802352905,1.0551950931549072,1.171773076057434,1.444921851158142
15090.506647322192,0.9494653344154358,1.0560046434402466,1.1709635257720947,1.4442741870880127
15090.508647382252,0.9478462338447571,1.0560046434402466,1.1703158617019653,1.4439502954483032
15090.510647442314,0.9476842880249023,1.056814193725586,1.1706396341323853,1.4447599649429321
15090.512647502374,0.948008120059967,1.056490421295166,1.1708015203475952,1.445083737373352
15090.514647562435,0.9478462338447571,1.0558427572250366,1.1712872982025146,1.4444360733032227
15090.516647622495,0.9475224018096924,1.0555188655853271,1.1712872982025146,1.4431407451629639
15090.518647682555,0.9491415023803711,1.0548712015151978,1.171934962272644,1.4436265230178833
15090.520647742616,0.9489796161651611,1.0547093152999878,1.1714491844177246,1.4437884092330933
15090.522647802676,0.9484938979148865,1.0548712015151978,1.172096848487854,1.4447599649429321
15090.524647862738,0.9484938979148865,1.0553569793701172,1.172096848487854,1.4441123008728027
15090.526647922798,0.9496272802352905,1.0555188655853271,1.1722588539123535,1.4437884092330933
15090.528647982857,0.9473604559898376,1.0555188655853271,1.171773076057434,1.4431407451629639
15090.530648042917,0.9465509057044983,1.0548712015151978,1.1722588539123535,1.4433027505874634
15090.532648102979,0.9465509057044983,1.0556808710098267,1.1716111898422241,1.4437884092330933
15090.534648163039,0.946874737739563,1.0553569793701172,1.1722588539123535,1.4436265230178833
15090.5366482231,0.946874737739563,1.0556808710098267,1.171934962272644,1.4434646368026733
15090.53864828316,0.9484938979148865,1.0556808710098267,1.1708015203475952,1.4437884092330933
15090.54064834322,0.9494653344154358,1.0545474290847778,1.1714491844177246,1.4442741870880127
15090.542648403281,0.9483319520950317,1.0547093152999878,1.1724207401275635,1.4445979595184326
15090.544648463341,0.948008120059967,1.0550332069396973,1.1716111898422241,1.4454076290130615
15090.546648523403,0.9486557841300964,1.0556808710098267,1.171934962272644,1.445083737373352
15090.548648583463,0.9471985697746277,1.0556808710098267,1.171773076057434,1.4447599649429321
15090.550648643522,0.9476842880249023,1.0560046434402466,1.1725826263427734,1.4442741870880127
15090.552648703584,0.9481700658798218,1.056328535079956,1.1725826263427734,1.445083737373352
15090.554648763644,0.9473604559898376,1.0561665296554565,1.1724207401275635,1.4437884092330933
15090.556648823704,0.9471985697746277,1.0556808710098267,1.1724207401275635,1.4434646368026733
15090.558648883765,0.948008120059967,1.0553569793701172,1.172096848487854,1.4442741870880127
15090.560648943825,0.9481700658798218,1.0555188655853271,1.1729063987731934,1.444921851158142
15090.562649003885,0.9475224018096924,1.0548712015151978,1.1724207401275635,1.4441123008728027
15090.564649063946,0.9481700658798218,1.0547093152999878,1.172096848487854,1.444921851158142
15090.566649124006,0.9494653344154358,1.0553569793701172,1.172096848487854,1.4445979595184326
15090.568649184068,0.9471985697746277,1.0556808710098267,1.1714491844177246,1.4431407451629639
15090.570649244128,0.9476842880249023,1.0561665296554565,1.171773076057434,1.4433027505874634
15090.572649304188,0.9476842880249023,1.0558427572250366,1.1722588539123535,1.4433027505874634
15090.57464936425,0.9475224018096924,1.0553569793701172,1.171934962272644,1.442816972732544
15090.576649424309,0.9473604559898376,1.0556808710098267,1.171934962272644,1.442978858947754
15090.578649484369,0.9486557841300964,1.0560046434402466,1.1727445125579834,1.4436265230178833
15090.58064954443,0.9481700658798218,1.0556808710098267,1.171934962272644,1.4445979595184326
15090.58264960449,0.9476842880249023,1.0553569793701172,1.171934962272644,1.4454076290130615
15090.58464966455,0.9473604559898376,1.0550332069396973,1.1724207401275635,1.4441123008728027
15090.586649724612,0.9486557841300964,1.0561665296554565,1.1725826263427734,1.4433027505874634
15090.588649784671,0.9475224018096924,1.056328535079956,1.1727445125579834,1.442655086517334
15090.590649844733,0.9463890194892883,1.0561665296554565,1.1714491844177246,1.442978858947754
15090.592649904793,0.9462270736694336,1.0561665296554565,1.1712872982025146,1.4441123008728027
15090.594649964853,0.946874737739563,1.056976079940796,1.1714491844177246,1.4441123008728027
15090.596650024914,0.9467127919197083,1.056490421295166,1.1724207401275635,1.4436265230178833
15090.598650084974,0.9486557841300964,1.0555188655853271,1.1727445125579834,1.4433027505874634
15090.600650145036,0.9486557841300964,1.0555188655853271,1.1727445125579834,1.4423311948776245
15090.602650205095,0.948008120059967,1.0558427572250366,1.171934962272644,1.4431407451629639
15090.604650265155,0.9478462338447571,1.0561665296554565,1.171934962272644,1.442978858947754
15090.606650325217,0.9491415023803711,1.0556808710098267,1.1724207401275635,1.4433027505874634
15090.608650385277,0.9478462338447571,1.0560046434402466,1.1738779544830322,1.4441123008728027
15090.610650445336,0.9483319520950317,1.0558427572250366,1.1738779544830322,1.442978858947754
15090.612650505398,0.9476842880249023,1.056652307510376,1.1727445125579834,1.442978858947754
15090.614650565458,0.9465509057044983,1.0571380853652954,1.1732302904129028,1.4436265230178833
15090.616650625518,0.9455794095993042,1.056328535079956,1.1735540628433228,1.4436265230178833
15090.61865068558,0.9473604559898376,1.056490421295166,1.1730684041976929,1.4433027505874634
15090.620650745639,0.9475224018096924,1.056490421295166,1.1732302904129028,1.4442741870880127
15090.6226508057,0.9473604559898376,1.056652307510376,1.1737160682678223,1.4445979595184326
15090.62465086576,0.9484938979148865,1.0561665296554565,1.1735540628433228,1.4447599649429321
15090.62665092582,0.9493034482002258,1.056328535079956,1.1738779544830322,1.4433027505874634
15090.628650985882,0.9471985697746277,1.0558427572250366,1.1740398406982422,1.442655086517334
15090.630651045942,0.946874737739563,1.0558427572250366,1.1738779544830322,1.4434646368026733
15090.632651106002,0.946874737739563,1.0558427572250366,1.1740398406982422,1.442655086517334
15090.634651166063,0.946874737739563,1.0556808710098267,1.1735540628433228,1.4421693086624146
15090.636651226123,0.946874737739563,1.056814193725586,1.1733921766281128,1.4431407451629639
15090.638651286183,0.948008120059967,1.056814193725586,1.1737160682678223,1.4437884092330933
15090.640651346244,0.9491415023803711,1.0571380853652954,1.1737160682678223,1.4441123008728027
15090.642651406304,0.9481700658798218,1.056328535079956,1.1746875047683716,1.4442741870880127
15090.644651466366,0.9486557841300964,1.0561665296554565,1.1745256185531616,1.4437884092330933
15090.646651526426,0.9491415023803711,1.056652307510376,1.1737160682678223,1.4437884092330933
15090.648651586485,0.9483319520950317,1.056814193725586,1.1725826263427734,1.4437884092330933
15090.650651646547,0.9467127919197083,1.056328535079956,1.1727445125579834,1.4434646368026733
15090.652651706607,0.9465509057044983,1.056814193725586,1.1725826263427734,1.4439502954483032
15090.654651766667,0.9463890194892883,1.056976079940796,1.1733921766281128,1.442816972732544
15090.656651826728,0.9463890194892883,1.0556808710098267,1.1730684041976929,1.4431407451629639
15090.658651886788,0.9483319520950317,1.0553569793701172,1.1737160682678223,1.4437884092330933
15090.660651946848,0.948008120059967,1.0558427572250366,1.1735540628433228,1.4433027505874634
15090.66265200691,0.9471985697746277,1.056976079940796,1.1743637323379517,1.4437884092330933
15090.66465206697,0.9471985697746277,1.056652307510376,1.1740398406982422,1.4437884092330933
15090.66665212703,0.9475224018096924,1.056652307510376,1.1740398406982422,1.4436265230178833
15090.66865218709,0.9457413554191589,1.056652307510376,1.1733921766281128,1.4436265230178833
15090.67065224715,0.9462270736694336,1.0556808710098267,1.1737160682678223,1.4434646368026733
15090.672652307212,0.9475224018096924,1.0561665296554565,1.1737160682678223,1.4437884092330933
15090.674652367272,0.9476842880249023,1.056328535079956,1.1735540628433228,1.442816972732544
15090.676652427333,0.947036623954773,1.0561665296554565,1.1737160682678223,1.442978858947754
15090.678652487393,0.9483319520950317,1.0561665296554565,1.1740398406982422,1.4433027505874634
15090.680652547453,0.9481700658798218,1.0560046434402466,1.1737160682678223,1.4431407451629639
15090.682652607515,0.9478462338447571,1.0560046434402466,1.1737160682678223,1.4434646368026733
15090.684652667574,0.9473604559898376,1.0556808710098267,1.1730684041976929,1.4433027505874634
15090.686652727634,0.9489796161651611,1.0553569793701172,1.1733921766281128,1.442655086517334
15090.688652787696,0.9471985697746277,1.0543855428695679,1.1742017269134521,1.442816972732544
15090.690652847756,0.9463890194892883,1.0547093152999878,1.1738779544830322,1.442978858947754
15090.692652907815,0.9455794095993042,1.0553569793701172,1.1740398406982422,1.4424930810928345
15090.694652967877,0.9454175233840942,1.0553569793701172,1.1729063987731934,1.442816972732544
15090.696653027937,0.9455794095993042,1.0553569793701172,1.1724207401275635,1.441845417022705
15090.698653087999,0.9483319520950317,1.0555188655853271,1.1714491844177246,1.4420074224472046
15090.700653148058,0.9481700658798218,1.0556808710098267,1.1712872982025146,1.442655086517334
15090.702653208118,0.9476842880249023,1.0558427572250366,1.1716111898422241,1.442816972732544
15090.70465326818,0.9471985697746277,1.0558427572250366,1.1722588539123535,1.4415216445922852
15090.70665332824,0.9476842880249023,1.0560046434402466,1.1727445125579834,1.4416835308074951
15090.7086533883,0.9463890194892883,1.0558427572250366,1.1722588539123535,1.4420074224472046
15090.710653448361,0.9467127919197083,1.0561665296554565,1.171773076057434,1.4420074224472046
15090.71265350842,0.9462270736694336,1.0558427572250366,1.1716111898422241,1.4423311948776245
15090.71465356848,0.9462270736694336,1.0550332069396973,1.1725826263427734,1.4411978721618652
15090.716653628542,0.9457413554191589,1.0548712015151978,1.1724207401275635,1.4408739805221558
15090.718653688602,0.9475224018096924,1.0561665296554565,1.1716111898422241,1.4416835308074951
15090.720653748664,0.9475224018096924,1.0561665296554565,1.1714491844177246,1.4405502080917358
15090.722653808723,0.9465509057044983,1.0555188655853271,1.1714491844177246,1.4410358667373657
15090.724653868783,0.9473604559898376,1.0555188655853271,1.1714491844177246,1.4411978721618652
15090.726653928845,0.9483319520950317,1.0560046434402466,1.172096848487854,1.441845417022705
15090.728653988905,0.9460651874542236,1.0560046434402466,1.171934962272644,1.4421693086624146
15090.730654048966,0.9459032416343689,1.0560046434402466,1.172096848487854,1.4416835308074951
15090.732654109026,0.9465509057044983,1.056328535079956,1.1727445125579834,1.4416835308074951
15090.734654169086,0.9454175233840942,1.056328535079956,1.172096848487854,1.4413597583770752
15090.736654229147,0.9450936913490295,1.0561665296554565,1.171773076057434,1.4411978721618652
15090.738654289207,0.946874737739563,1.0558427572250366,1.1709635257720947,1.4411978721618652
15090.740654349267,0.9465509057044983,1.0556808710098267,1.1714491844177246,1.4411978721618652
15090.742654409329,0.9463890194892883,1.0561665296554565,1.1727445125579834,1.4415216445922852
15090.744654469388,0.9460651874542236,1.0548712015151978,1.1727445125579834,1.4424930810928345
15090.746654529448,0.9471985697746277,1.0547093152999878,1.1738779544830322,1.4423311948776245
15090.74865458951,0.9457413554191589,1.0545474290847778,1.1737160682678223,1.441845417022705
15090.75065464957,0.9454175233840942,1.0547093152999878,1.1725826263427734,1.441845417022705
15090.752654709631,0.9462270736694336,1.0540616512298584,1.1727445125579834,1.4421693086624146
15090.754654769691,0.946874737739563,1.0542235374450684,1.1733921766281128,1.442978858947754
15090.756654829751,0.9463890194892883,1.0555188655853271,1.1738779544830322,1.4421693086624146
15090.758654889813,0.947036623954773,1.0556808710098267,1.1733921766281128,1.4431407451629639
15090.760654949872,0.947036623954773,1.0556808710098267,1.1735540628433228,1.4424930810928345
15090.762655009932,0.9475224018096924,1.0558427572250366,1.1740398406982422,1.4420074224472046
15090.764655069994,0.948008120059967,1.0551950931549072,1.1738779544830322,1.4413597583770752
15090.766655130054,0.948008120059967,1.0555188655853271,1.1740398406982422,1.4411978721618652
15090.768655190113,0.9465509057044983,1.0556808710098267,1.1740398406982422,1.4416835308074951
15090.770655250175,0.9463890194892883,1.056328535079956,1.1746875047683716,1.4415216445922852
15090.772655310235,0.9471985697746277,1.056328535079956,1.1748493909835815,1.4420074224472046
15090.774655370296,0.947036623954773,1.056652307510376,1.1750112771987915,1.4423311948776245
15090.776655430356,0.9463890194892883,1.0556808710098267,1.175335168838501,1.4421693086624146
15090.778655490416,0.9475224018096924,1.056328535079956,1.175335168838501,1.4431407451629639
15090.780655550478,0.9476842880249023,1.056490421295166,1.175335168838501,1.442816972732544
15090.782655610537,0.9475224018096924,1.056652307510376,1.1761447191238403,1.4416835308074951
15090.784655670597,0.9491415023803711,1.0561665296554565,1.175173282623291,1.4421693086624146
15090.786655730659,0.9494653344154358,1.056490421295166,1.175335168838501,1.4421693086624146
15090.788655790719,0.9476842880249023,1.056976079940796,1.175497055053711,1.4420074224472046
15090.790655850778,0.9476842880249023,1.056490421295166,1.1759828329086304,1.4421693086624146
15090.79265591084,0.948008120059967,1.056976079940796,1.175658941268921,1.441845417022705
15090.7946559709,0.946874737739563,1.0572999715805054,1.175658941268921,1.4405502080917358
15090.796656030961,0.9465509057044983,1.056976079940796,1.175497055053711,1.4410358667373657
15090.798656091021,0.9493034482002258,1.0574618577957153,1.1761447191238403,1.441845417022705
15090.800656151081,0.9488176703453064,1.056490421295166,1.1764686107635498,1.4420074224472046
15090.802656211143,0.9476842880249023,1.056814193725586,1.1759828329086304,1.4416835308074951
15090.804656271202,0.9486557841300964,1.0572999715805054,1.1764686107635498,1.4420074224472046
15090.806656331264,0.9497891664505005,1.0574618577957153,1.1771161556243896,1.4416835308074951
15090.808656391324,0.9481700658798218,1.0576237440109253,1.1767923831939697,1.4415216445922852
15090.810656451384,0.9475224018096924,1.0576237440109253,1.1759828329086304,1.4415216445922852
15090.812656511445,0.948008120059967,1.0576237440109253,1.1769542694091797,1.4411978721618652
15090.814656571505,0.9475224018096924,1.0572999715805054,1.1769542694091797,1.4400644302368164
15090.816656631565,0.9471985697746277,1.0571380853652954,1.1772781610488892,1.4410358667373657
15090.818656691627,0.9489796161651611,1.0571380853652954,1.177601933479309,1.4416835308074951
15090.820656751686,0.9483319520950317,1.056814193725586,1.1771161556243896,1.4420074224472046
15090.822656811746,0.9481700658798218,1.056814193725586,1.1772781610488892,1.441845417022705
15090.824656871808,0.9488176703453064,1.0571380853652954,1.1774400472640991,1.4411978721618652
15090.826656931868,0.9488176703453064,1.0574618577957153,1.1766304969787598,1.4405502080917358
15090.82865699193,0.9476842880249023,1.0574618577957153,1.1769542694091797,1.4400644302368164
15090.830657051989,0.9478462338447571,1.056652307510376,1.1771161556243896,1.4400644302368164
15090.832657112049,0.9483319520950317,1.056976079940796,1.1780877113342285,1.439416766166687
15090.83465717211,0.9475224018096924,1.056814193725586,1.1788972616195679,1.4390928745269775
15090.83665723217,0.9465509057044983,1.0558427572250366,1.1780877113342285,1.439254879951477
15090.83865729223,0.9488176703453064,1.0560046434402466,1.1780877113342285,1.4386072158813477
15090.840657352292,0.9489796161651611,1.056328535079956,1.177601933479309,1.4386072158813477
15090.842657412351,0.9478462338447571,1.056328535079956,1.1771161556243896,1.439416766166687
15090.844657472411,0.9483319520950317,1.056976079940796,1.1771161556243896,1.4400644302368164
15090.846657532473,0.9488176703453064,1.0571380853652954,1.1782495975494385,1.439254879951477
15090.848657592533,0.946874737739563,1.056652307510376,1.178735375404358,1.439740538597107
15090.850657652594,0.9465509057044983,1.0558427572250366,1.1780877113342285,1.439254879951477
15090.852657712654,0.947036623954773,1.056328535079956,1.1780877113342285,1.439578652381897
15090.854657772714,0.9471985697746277,1.056490421295166,1.177763819694519,1.4387691020965576
15090.856657832775,0.9460651874542236,1.0572999715805054,1.1780877113342285,1.4386072158813477
15090.858657892835,0.9475224018096924,1.0572999715805054,1.1788972616195679,1.4390928745269775
15090.860657952897,0.9476842880249023,1.056328535079956,1.178573489189148,1.4386072158813477
15090.862658012957,0.9475224018096924,1.056328535079956,1.1784114837646484,1.4381214380264282
15090.864658073016,0.9471985697746277,1.0560046434402466,1.177763819694519,1.4386072158813477
15090.866658133076,0.9486557841300964,1.0555188655853271,1.177601933479309,1.4390928745269775
15090.868658193138,0.9471985697746277,1.0558427572250366,1.1784114837646484,1.4387691020965576
15090.870658253198,0.9473604559898376,1.056652307510376,1.178573489189148,1.4389309883117676
15090.87265831326,0.9478462338447571,1.0572999715805054,1.1790591478347778,1.4382833242416382
15090.87465837332,0.9475224018096924,1.0577857494354248,1.1784114837646484,1.4373118877410889
15090.876658433379,0.946874737739563,1.0571380853652954,1.178735375404358,1.4384453296661377
15090.87865849344,0.9483319520950317,1.056976079940796,1.1788972616195679,1.4390928745269775
15090.8806585535,0.9483319520950317,1.056976079940796,1.1788972616195679,1.439254879951477
15090.882658613562,0.9476842880249023,1.0571380853652954,1.1788972616195679,1.439578652381897
15090.884658673622,0.948008120059967,1.056976079940796,1.1784114837646484,1.4386072158813477
15090.886658733682,0.9496272802352905,1.0571380853652954,1.1788972616195679,1.4384453296661377
15090.888658793743,0.9488176703453064,1.0574618577957153,1.1790591478347778,1.4377976655960083
15090.890658853803,0.9486557841300964,1.056490421295166,1.1795449256896973,1.4386072158813477
15090.892658913863,0.9488176703453064,1.056490421295166,1.1800307035446167,1.4386072158813477
15090.894658973924,0.9476842880249023,1.0572999715805054,1.1803544759750366,1.4381214380264282
15090.896659033984,0.9481700658798218,1.0584334135055542,1.1805163621902466,1.4376356601715088
15090.898659094044,0.9504368305206299,1.0587571859359741,1.1801925897598267,1.4373118877410889
15090.900659154106,0.9496272802352905,1.0579476356506348,1.181164026260376,1.4379595518112183
15090.902659214165,0.9481700658798218,1.0576237440109253,1.1819735765457153,1.4384453296661377
15090.904659274227,0.9491415023803711,1.0572999715805054,1.180840253829956,1.4381214380264282
15090.906659334287,0.9496272802352905,1.0582714080810547,1.1813260316848755,1.4384453296661377
15090.908659394347,0.9491415023803711,1.0581095218658447,1.1814879179000854,1.4384453296661377
15090.910659454408,0.9494653344154358,1.0582714080810547,1.1831070184707642,1.4384453296661377
15090.912659514468,0.9494653344154358,1.0585952997207642,1.1831070184707642,1.4381214380264282
15090.914659574528,0.9486557841300964,1.0585952997207642,1.1818116903305054,1.4384453296661377
15090.91665963459,0.9481700658798218,1.0587571859359741,1.1818116903305054,1.4382833242416382
15090.91865969465,0.9496272802352905,1.0587571859359741,1.1822974681854248,1.4387691020965576
15090.920659754709,0.9504368305206299,1.0582714080810547,1.1827832460403442,1.4386072158813477
15090.92265981477,0.9497891664505005,1.0579476356506348,1.1831070184707642,1.4382833242416382
15090.92465987483,0.9502749443054199,1.0574618577957153,1.1835927963256836,1.4381214380264282
15090.926659934892,0.9505987763404846,1.0579476356506348,1.1827832460403442,1.4379595518112183
15090.928659994952,0.9493034482002258,1.0577857494354248,1.1827832460403442,1.4381214380264282
15090.930660055012,0.9481700658798218,1.0576237440109253,1.1824593544006348,1.4389309883117676
15090.932660115073,0.9481700658798218,1.0572999715805054,1.1821355819702148,1.4382833242416382
15090.934660175133,0.9484938979148865,1.0574618577957153,1.1818116903305054,1.4374737739562988
15090.936660235195,0.948008120059967,1.0577857494354248,1.1821355819702148,1.4365023374557495
15090.938660295255,0.9491415023803711,1.0576237440109253,1.1826212406158447,1.4373118877410889
15090.940660355314,0.9493034482002258,1.0576237440109253,1.1827832460403442,1.4379595518112183
15090.942660415376,0.9496272802352905,1.0572999715805054,1.1819735765457153,1.4374737739562988
15090.944660475436,0.9493034482002258,1.056328535079956,1.1819735765457153,1.437150001525879
15090.946660535496,0.9488176703453064,1.056976079940796,1.1821355819702148,1.43617844581604
15090.948660595557,0.9473604559898376,1.0572999715805054,1.1814879179000854,1.4356927871704102
15090.950660655617,0.9473604559898376,1.056814193725586,1.181002140045166,1.4356927871704102
15090.952660715677,0.9476842880249023,1.056328535079956,1.180678367614746,1.4363404512405396
15090.954660775738,0.9483319520950317,1.056814193725586,1.180840253829956,1.4356927871704102
15090.956660835798,0.947036623954773,1.0560046434402466,1.181164026260376,1.4358546733856201
15090.95866089586,0.9484938979148865,1.056490421295166,1.181164026260376,1.4353688955307007
15090.96066095592,0.9484938979148865,1.0561665296554565,1.181164026260376,1.4356927871704102
15090.96266101598,0.9483319520950317,1.0558427572250366,1.1813260316848755,1.4356927871704102
15090.964661076041,0.9484938979148865,1.056490421295166,1.1816498041152954,1.4358546733856201
15090.9666611361,0.9489796161651611,1.0560046434402466,1.1818116903305054,1.4355307817459106
15090.96866119616,0.9462270736694336,1.0561665296554565,1.1818116903305054,1.4358546733856201
15090.970661256222,0.947036623954773,1.0553569793701172,1.180840253829956,1.4366642236709595
15090.972661316282,0.9473604559898376,1.0556808710098267,1.181164026260376,1.437150001525879
15090.974661376342,0.9473604559898376,1.056490421295166,1.181002140045166,1.4365023374557495
15090.976661436403,0.9471985697746277,1.056814193725586,1.180840253829956,1.4368261098861694
15090.978661496463,0.9489796161651611,1.0574618577957153,1.1814879179000854,1.4366642236709595
15090.980661556525,0.9481700658798218,1.056976079940796,1.1816498041152954,1.43617844581604
15090.982661616585,0.9483319520950317,1.056328535079956,1.181002140045166,1.4353688955307007
15090.984661676644,0.9488176703453064,1.056490421295166,1.180678367614746,1.4358546733856201
15090.986661736706,0.9491415023803711,1.056976079940796,1.181002140045166,1.4363404512405396
15090.988661796766,0.9478462338447571,1.0574618577957153,1.1813260316848755,1.4356927871704102
15090.990661856826,0.9475224018096924,1.056328535079956,1.1818116903305054,1.4355307817459106
15090.992661916887,0.9475224018096924,1.056652307510376,1.1814879179000854,1.4358546733856201
15090.994661976947,0.948008120059967,1.056328535079956,1.1813260316848755,1.4358546733856201
15090.996662037007,0.948008120059967,1.056652307510376,1.1813260316848755,1.4353688955307007
15090.998662097069,0.9488176703453064,1.0574618577957153,1.1814879179000854,1.4358546733856201
15091.000662157128,0.9484938979148865,1.056814193725586,1.1818116903305054,1.4366642236709595
15091.00266221719,0.9489796161651611,1.0576237440109253,1.1816498041152954,1.4368261098861694
15091.00466227725,0.9493034482002258,1.0577857494354248,1.1819735765457153,1.4355307817459106
15091.00666233731,0.9494653344154358,1.0581095218658447,1.1824593544006348,1.4352070093154907
15091.008662397371,0.9488176703453064,1.0585952997207642,1.1822974681854248,1.4355307817459106
15091.010662457431,0.9484938979148865,1.0581095218658447,1.1824593544006348,1.4358546733856201
15091.012662517493,0.9489796161651611,1.0574618577957153,1.1831070184707642,1.43617844581604
15091.014662577552,0.9478462338447571,1.056814193725586,1.1829451322555542,1.4356927871704102
15091.016662637612,0.947036623954773,1.0571380853652954,1.1822974681854248,1.43601655960083
15091.018662697674,0.9488176703453064,1.0571380853652954,1.1822974681854248,1.4358546733856201
15091.020662757734,0.9494653344154358,1.0571380853652954,1.1827832460403442,1.4363404512405396
15091.022662817793,0.9488176703453064,1.0574618577957153,1.1821355819702148,1.4355307817459106
15091.024662877855,0.9494653344154358,1.0571380853652954,1.1822974681854248,1.43601655960083
15091.026662937915,0.9502749443054199,1.056976079940796,1.1827832460403442,1.43617844581604
15091.028662997975,0.9484938979148865,1.0572999715805054,1.1831070184707642,1.437150001525879
15091.030663058036,0.9481700658798218,1.0579476356506348,1.1839165687561035,1.43617844581604
15091.032663118096,0.9476842880249023,1.0581095218658447,1.1839165687561035,1.43617844581604
15091.034663178158,0.947036623954773,1.0577857494354248,1.1832689046859741,1.4355307817459106
15091.036663238217,0.9475224018096924,1.0581095218658447,1.1826212406158447,1.4363404512405396
15091.038663298277,0.9489796161651611,1.0585952997207642,1.1829451322555542,1.43601655960083
15091.040663358339,0.9489796161651611,1.0585952997207642,1.1831070184707642,1.43617844581604
15091.042663418399,0.9496272802352905,1.0579476356506348,1.1839165687561035,1.4365023374557495
15091.044663478458,0.9499511122703552,1.0574618577957153,1.1839165687561035,1.4374737739562988
15091.04666353852,0.9499511122703552,1.0579476356506348,1.1839165687561035,1.4365023374557495
15091.04866359858,0.9486557841300964,1.0584334135055542,1.184240460395813,1.4358546733856201
15091.05066365864,0.948008120059967,1.0584334135055542,1.184402346611023,1.4363404512405396
15091.052663718701,0.948008120059967,1.0577857494354248,1.184402346611023,1.43601655960083
15091.054663778761,0.9481700658798218,1.0576237440109253,1.1847261190414429,1.4356927871704102
15091.056663838823,0.9488176703453064,1.0571380853652954,1.184240460395813,1.4366642236709595
15091.058663898883,0.9499511122703552,1.0579476356506348,1.184564232826233,1.4368261098861694
15091.060663958942,0.9489796161651611,1.0584334135055542,1.1837546825408936,1.43617844581604
15091.062664019004,0.9494653344154358,1.0581095218658447,1.1837546825408936,1.4363404512405396
15091.064664079064,0.9502749443054199,1.0579476356506348,1.184564232826233,1.4369879961013794
15091.066664139125,0.9504368305206299,1.0579476356506348,1.1850500106811523,1.4368261098861694
15091.068664199185,0.9484938979148865,1.0577857494354248,1.184240460395813,1.4365023374557495
15091.070664259245,0.9488176703453064,1.0576237440109253,1.1837546825408936,1.4366642236709595
15091.072664319307,0.9494653344154358,1.0579476356506348,1.184402346611023,1.4358546733856201
15091.074664379366,0.9484938979148865,1.0584334135055542,1.1847261190414429,1.4350451231002808
15091.076664439426,0.9476842880249023,1.058919072151184,1.1839165687561035,1.43601655960083
15091.078664499488,0.9489796161651611,1.059080958366394,1.1840784549713135,1.4358546733856201
15091.080664559548,0.9484938979148865,1.0587571859359741,1.1837546825408936,1.4356927871704102
15091.082664619607,0.9486557841300964,1.0581095218658447,1.1847261190414429,1.4348831176757812
15091.084664679669,0.9494653344154358,1.056976079940796,1.1837546825408936,1.4358546733856201
15091.086664739729,0.9502749443054199,1.0576237440109253,1.1831070184707642,1.43601655960083
15091.08866479979,0.9494653344154358,1.0574618577957153,1.1827832460403442,1.4356927871704102
15091.09066485985,0.9489796161651611,1.0577857494354248,1.1835927963256836,1.43617844581604
15091.09266491991,0.9488176703453064,1.0582714080810547,1.1839165687561035,1.4358546733856201
15091.094664979972,0.9486557841300964,1.0581095218658447,1.1847261190414429,1.4352070093154907
15091.096665040031,0.9488176703453064,1.0579476356506348,1.1839165687561035,1.4345593452453613
15091.098665100091,0.9496272802352905,1.0581095218658447,1.1835927963256836,1.4345593452453613
15091.100665160153,0.9499511122703552,1.0585952997207642,1.1840784549713135,1.4355307817459106
15091.102665220213,0.9497891664505005,1.0582714080810547,1.1837546825408936,1.4358546733856201
15091.104665280272,0.9502749443054199,1.0582714080810547,1.1832689046859741,1.43601655960083
15091.106665340334,0.9496272802352905,1.0579476356506348,1.1840784549713135,1.4356927871704102
15091.108665400394,0.9481700658798218,1.0577857494354248,1.184402346611023,1.4347212314605713
15091.110665460455,0.9483319520950317,1.0576237440109253,1.1837546825408936,1.4350451231002808
15091.112665520515,0.9493034482002258,1.0579476356506348,1.1837546825408936,1.4355307817459106
15091.114665580575,0.948008120059967,1.0572999715805054,1.1839165687561035,1.4356927871704102
15091.116665640637,0.947036623954773,1.0574618577957153,1.1834309101104736,1.4366642236709595
15091.118665700697,0.9486557841300964,1.0579476356506348,1.1835927963256836,1.4363404512405396
15091.120665760756,0.9484938979148865,1.0582714080810547,1.1840784549713135,1.4353688955307007
15091.122665820818,0.9489796161651611,1.0579476356506348,1.1831070184707642,1.4352070093154907
15091.124665880878,0.9494653344154358,1.0584334135055542,1.1837546825408936,1.4350451231002808
15091.126665940938,0.9497891664505005,1.0585952997207642,1.1837546825408936,1.4353688955307007
15091.128666001,0.948008120059967,1.0579476356506348,1.1839165687561035,1.4352070093154907
15091.130666061059,0.9484938979148865,1.0574618577957153,1.1837546825408936,1.4355307817459106
15091.13266612112,0.9493034482002258,1.0574618577957153,1.184564232826233,1.4348831176757812
15091.13466618118,0.9484938979148865,1.0579476356506348,1.1850500106811523,1.4345593452453613
15091.13666624124,0.9481700658798218,1.0571380853652954,1.1847261190414429,1.4348831176757812
15091.138666301302,0.9496272802352905,1.0574618577957153,1.184402346611023,1.4355307817459106
15091.140666361362,0.9491415023803711,1.0571380853652954,1.184402346611023,1.4358546733856201
15091.142666421423,0.9488176703453064,1.0572999715805054,1.1840784549713135,1.4353688955307007
15091.144666481483,0.9496272802352905,1.0577857494354248,1.1837546825408936,1.4352070093154907
15091.146666541543,0.9501129984855652,1.0585952997207642,1.184402346611023,1.4348831176757812
15091.148666601604,0.9486557841300964,1.059080958366394,1.1848881244659424,1.4348831176757812
15091.150666661664,0.9488176703453064,1.0584334135055542,1.1850500106811523,1.4352070093154907
15091.152666721724,0.948008120059967,1.0581095218658447,1.1855357885360718,1.4353688955307007
15091.154666781786,0.9473604559898376,1.0577857494354248,1.1848881244659424,1.4347212314605713
15091.156666841845,0.9483319520950317,1.0582714080810547,1.184402346611023,1.4347212314605713
15091.158666901905,0.9494653344154358,1.0577857494354248,1.1848881244659424,1.4353688955307007
15091.160666961967,0.9493034482002258,1.0581095218658447,1.1853737831115723,1.4350451231002808
15091.162667022027,0.9488176703453064,1.0581095218658447,1.1847261190414429,1.4350451231002808
15091.164667082088,0.9491415023803711,1.0577857494354248,1.1856976747512817,1.4355307817459106
15091.166667142148,0.9502749443054199,1.0574618577957153,1.1858595609664917,1.4348831176757812
15091.168667202208,0.9489796161651611,1.0571380853652954,1.1847261190414429,1.4331021308898926
15091.17066726227,0.9488176703453064,1.0579476356506348,1.1852118968963623,1.4332640171051025
15091.17266732233,0.9483319520950317,1.0581095218658447,1.1855357885360718,1.434073567390442
15091.174667382389,0.9471985697746277,1.0584334135055542,1.1856976747512817,1.434073567390442
15091.17666744245,0.9476842880249023,1.0576237440109253,1.1856976747512817,1.4342354536056519
15091.17866750251,0.9489796161651611,1.056976079940796,1.1855357885360718,1.4342354536056519
15091.18066756257,0.9491415023803711,1.056490421295166,1.1855357885360718,1.4345593452453613
15091.182667622632,0.9493034482002258,1.056976079940796,1.1850500106811523,1.4345593452453613
15091.184667682692,0.9502749443054199,1.0576237440109253,1.1853737831115723,1.4343974590301514
15091.186667742753,0.9501129984855652,1.0577857494354248,1.1852118968963623,1.433587908744812
15091.188667802813,0.9486557841300964,1.0576237440109253,1.1848881244659424,1.4332640171051025
15091.190667862873,0.9491415023803711,1.0576237440109253,1.1848881244659424,1.4331021308898926
15091.192667922935,0.9491415023803711,1.0576237440109253,1.184402346611023,1.4332640171051025
15091.194667982994,0.9486557841300964,1.0577857494354248,1.184564232826233,1.433749794960022
15091.196668043056,0.9486557841300964,1.0574618577957153,1.1852118968963623,1.433587908744812
15091.198668103116,0.9497891664505005,1.0579476356506348,1.1855357885360718,1.4332640171051025
15091.200668163176,0.9496272802352905,1.0584334135055542,1.1850500106811523,1.4322925806045532
15091.202668223235,0.9489796161651611,1.0577857494354248,1.1855357885360718,1.4321305751800537
15091.204668283297,0.9496272802352905,1.0579476356506348,1.1850500106811523,1.4343974590301514
15091.206668343357,0.9497891664505005,1.0585952997207642,1.1855357885360718,1.4343974590301514
15091.208668403418,0.9489796161651611,1.0579476356506348,1.1856976747512817,1.4343974590301514
15091.210668463478,0.9496272802352905,1.0579476356506348,1.1853737831115723,1.4331021308898926
15091.212668523538,0.9499511122703552,1.056814193725586,1.1856976747512817,1.4331021308898926
15091.2146685836,0.9484938979148865,1.056814193725586,1.1861833333969116,1.433911681175232
15091.21666864366,0.9486557841300964,1.056490421295166,1.1869930028915405,1.4348831176757812
15091.218668703721,0.9507606625556946,1.0572999715805054,1.1873167753219604,1.4353688955307007
15091.22066876378,0.9504368305206299,1.056814193725586,1.186669111251831,1.4342354536056519
15091.22266882384,0.9499511122703552,1.0572999715805054,1.1863453388214111,1.434073567390442
15091.224668883902,0.9505987763404846,1.0571380853652954,1.186830997467041,1.4343974590301514
15091.226668943962,0.9504368305206299,1.056976079940796,1.1856976747512817,1.433587908744812
15091.228669004022,0.9488176703453064,1.0571380853652954,1.1856976747512817,1.4326163530349731
15091.230669064083,0.9484938979148865,1.056976079940796,1.186669111251831,1.4331021308898926
15091.232669124143,0.9488176703453064,1.0574618577957153,1.186669111251831,1.433587908744812
15091.234669184203,0.9486557841300964,1.0571380853652954,1.1869930028915405,1.432778239250183
15091.236669244265,0.9488176703453064,1.056976079940796,1.1869930028915405,1.433749794960022
15091.238669304325,0.9509226083755493,1.0572999715805054,1.1861833333969116,1.433749794960022
15091.240669364386,0.9504368305206299,1.0574618577957153,1.1863453388214111,1.4334259033203125
15091.242669424446,0.9505987763404846,1.0576237440109253,1.1871548891067505,1.4343974590301514
15091.244669484506,0.9510844945907593,1.056976079940796,1.1874786615371704,1.433749794960022
15091.246669544567,0.951408326625824,1.0576237440109253,1.18764066696167,1.432778239250183
15091.248669604627,0.9501129984855652,1.0577857494354248,1.1881263256072998,1.4326163530349731
15091.250669664687,0.9507606625556946,1.056652307510376,1.18764066696167,1.4324544668197632
15091.252669724749,0.9499511122703552,1.056652307510376,1.186830997467041,1.4331021308898926
15091.254669784808,0.9488176703453064,1.056976079940796,1.1869930028915405,1.4322925806045532
15091.256669844868,0.9494653344154358,1.056814193725586,1.1863453388214111,1.433587908744812
15091.25866990493,0.9507606625556946,1.056490421295166,1.1863453388214111,1.4329402446746826
15091.26066996499,0.9505987763404846,1.056328535079956,1.1858595609664917,1.432778239250183
15091.262670025051,0.9494653344154358,1.0574618577957153,1.1873167753219604,1.4324544668197632
15091.264670085111,0.9502749443054199,1.0581095218658447,1.18764066696167,1.4326163530349731
15091.26667014517,0.9510844945907593,1.0579476356506348,1.1869930028915405,1.4324544668197632
15091.268670205232,0.9494653344154358,1.0577857494354248,1.18764066696167,1.4321305751800537
15091.270670265292,0.9496272802352905,1.0572999715805054,1.1874786615371704,1.4324544668197632
15091.272670325354,0.9501129984855652,1.0572999715805054,1.1874786615371704,1.4326163530349731
15091.274670385414,0.9489796161651611,1.056814193725586,1.1863453388214111,1.4326163530349731
15091.276670445473,0.9488176703453064,1.056490421295166,1.1863453388214111,1.4332640171051025
15091.278670505535,0.9505987763404846,1.056328535079956,1.1861833333969116,1.4334259033203125
15091.280670565595,0.9505987763404846,1.056976079940796,1.1856976747512817,1.4331021308898926
15091.282670625655,0.9499511122703552,1.056652307510376,1.1861833333969116,1.4332640171051025
15091.284670685716,0.9502749443054199,1.056814193725586,1.186669111251831,1.4334259033203125
15091.286670745776,0.9507606625556946,1.056976079940796,1.186669111251831,1.4334259033203125
15091.288670805836,0.9501129984855652,1.056814193725586,1.1861833333969116,1.4324544668197632
15091.290670865897,0.9510844945907593,1.0560046434402466,1.186507225036621,1.4322925806045532
15091.292670925957,0.9509226083755493,1.0561665296554565,1.1860214471817017,1.4326163530349731
15091.294670986019,0.9496272802352905,1.0556808710098267,1.1861833333969116,1.4319686889648438
15091.296671046079,0.9501129984855652,1.0561665296554565,1.1860214471817017,1.4319686889648438
15091.298671106138,0.9509226083755493,1.056652307510376,1.1856976747512817,1.4316449165344238
15091.3006711662,0.9505987763404846,1.056490421295166,1.1863453388214111,1.4319686889648438
15091.30267122626,0.9509226083755493,1.056490421295166,1.186669111251831,1.4314830303192139
15091.30467128632,0.9512463808059692,1.056652307510376,1.186830997467041,1.4311591386795044
15091.306671346381,0.9510844945907593,1.056490421295166,1.186830997467041,1.4314830303192139
15091.308671406441,0.9501129984855652,1.056490421295166,1.1873167753219604,1.4318068027496338
15091.310671466501,0.9504368305206299,1.056490421295166,1.1873167753219604,1.4313210248947144
15091.312671526563,0.9502749443054199,1.056976079940796,1.1879644393920898,1.4318068027496338
15091.314671586622,0.9497891664505005,1.056490421295166,1.1874786615371704,1.4318068027496338
15091.316671646684,0.9504368305206299,1.056328535079956,1.1869930028915405,1.4314830303192139
15091.318671706744,0.9515702128410339,1.0561665296554565,1.186830997467041,1.4319686889648438
15091.320671766804,0.951408326625824,1.0571380853652954,1.1878025531768799,1.4321305751800537
15091.322671826865,0.9515702128410339,1.056652307510376,1.1873167753219604,1.4324544668197632
15091.324671886925,0.9517321586608887,1.056976079940796,1.1882882118225098,1.4322925806045532
15091.326671946987,0.9522178769111633,1.0576237440109253,1.1884502172470093,1.4321305751800537
15091.328672007046,0.9509226083755493,1.0574618577957153,1.1879644393920898,1.4318068027496338
15091.330672067106,0.9509226083755493,1.056976079940796,1.1881263256072998,1.4319686889648438
15091.332672127166,0.951408326625824,1.056652307510376,1.1882882118225098,1.4311591386795044
15091.334672187228,0.9505987763404846,1.0571380853652954,1.1892597675323486,1.4309972524642944
15091.336672247287,0.9512463808059692,1.0571380853652954,1.1884502172470093,1.4321305751800537
15091.338672307349,0.9528655409812927,1.056814193725586,1.1882882118225098,1.4331021308898926
15091.340672367409,0.9523798227310181,1.056976079940796,1.1887739896774292,1.4331021308898926
15091.342672427469,0.951408326625824,1.056652307510376,1.1887739896774292,1.4318068027496338
15091.34467248753,0.9522178769111633,1.056814193725586,1.1881263256072998,1.4326163530349731
15091.34667254759,0.9522178769111633,1.056976079940796,1.1882882118225098,1.4318068027496338
15091.348672607652,0.9504368305206299,1.0571380853652954,1.1881263256072998,1.4318068027496338
15091.350672667711,0.9504368305206299,1.0572999715805054,1.1886121034622192,1.4324544668197632
15091.352672727771,0.9509226083755493,1.0577857494354248,1.1887739896774292,1.4319686889648438
15091.354672787833,0.9507606625556946,1.0576237440109253,1.1886121034622192,1.4321305751800537
15091.356672847893,0.9505987763404846,1.0571380853652954,1.1878025531768799,1.4324544668197632
15091.358672907952,0.9523798227310181,1.0576237440109253,1.1890978813171387,1.4324544668197632
15091.360672968014,0.9523798227310181,1.058919072151184,1.1895835399627686,1.4332640171051025
15091.362673028074,0.9518940448760986,1.0579476356506348,1.1886121034622192,1.433911681175232
15091.364673088134,0.952541708946228,1.0574618577957153,1.1882882118225098,1.4331021308898926
15091.366673148195,0.9518940448760986,1.056976079940796,1.1881263256072998,1.4322925806045532
15091.368673208255,0.951408326625824,1.056976079940796,1.1886121034622192,1.4321305751800537
15091.370673268317,0.9512463808059692,1.0572999715805054,1.1881263256072998,1.432778239250183
15091.372673328377,0.9515702128410339,1.056976079940796,1.1874786615371704,1.4329402446746826
15091.374673388436,0.9501129984855652,1.0571380853652954,1.1869930028915405,1.4326163530349731
15091.376673448498,0.9502749443054199,1.0571380853652954,1.1879644393920898,1.432778239250183
15091.378673508558,0.951408326625824,1.0571380853652954,1.1886121034622192,1.4331021308898926
15091.380673568618,0.9515702128410339,1.0571380853652954,1.1884502172470093,1.4326163530349731
15091.38267362868,0.9520559906959534,1.0576237440109253,1.1884502172470093,1.4324544668197632
15091.384673688739,0.952541708946228,1.0579476356506348,1.1884502172470093,1.4329402446746826
15091.386673748799,0.9528655409812927,1.0576237440109253,1.18764066696167,1.432778239250183
15091.38867380886,0.9507606625556946,1.0571380853652954,1.186669111251831,1.4331021308898926
15091.39067386892,0.9504368305206299,1.056814193725586,1.1869930028915405,1.4331021308898926
15091.392673928982,0.9509226083755493,1.0574618577957153,1.1869930028915405,1.4331021308898926
15091.394673989042,0.9505987763404846,1.0571380853652954,1.1871548891067505,1.4322925806045532
15091.396674049101,0.9502749443054199,1.0571380853652954,1.1871548891067505,1.4324544668197632
15091.398674109163,0.9510844945907593,1.0572999715805054,1.1873167753219604,1.4324544668197632
15091.400674169223,0.9515702128410339,1.056976079940796,1.1873167753219604,1.4322925806045532
15091.402674229284,0.9509226083755493,1.0572999715805054,1.1871548891067505,1.4324544668197632
15091.404674289344,0.9520559906959534,1.056652307510376,1.1861833333969116,1.4324544668197632
15091.406674349404,0.9518940448760986,1.0561665296554565,1.1858595609664917,1.4322925806045532
15091.408674409466,0.9501129984855652,1.0571380853652954,1.1863453388214111,1.4329402446746826
15091.410674469525,0.9497891664505005,1.056976079940796,1.186830997467041,1.4321305751800537
15091.412674529585,0.9501129984855652,1.056490421295166,1.186830997467041,1.432778239250183
15091.414674589647,0.9497891664505005,1.056814193725586,1.1863453388214111,1.4324544668197632
15091.416674649707,0.9505987763404846,1.0571380853652954,1.1861833333969116,1.4326163530349731
15091.418674709766,0.9517321586608887,1.056490421295166,1.186830997467041,1.4324544668197632
15091.420674769828,0.9507606625556946,1.056976079940796,1.186507225036621,1.4321305751800537
15091.422674829888,0.9504368305206299,1.0576237440109253,1.1858595609664917,1.4319686889648438
15091.42467488995,0.9509226083755493,1.056490421295166,1.1861833333969116,1.4329402446746826
15091.42667495001,0.9510844945907593,1.0555188655853271,1.186830997467041,1.433749794960022
15091.42867501007,0.9504368305206299,1.0560046434402466,1.1860214471817017,1.4332640171051025
15091.43067507013,0.9504368305206299,1.056652307510376,1.1855357885360718,1.4326163530349731
15091.43267513019,0.9510844945907593,1.0571380853652954,1.1853737831115723,1.4321305751800537
15091.43467519025,0.9497891664505005,1.0571380853652954,1.1858595609664917,1.4318068027496338
15091.436675250312,0.9489796161651611,1.056976079940796,1.1853737831115723,1.4319686889648438
15091.438675310372,0.9499511122703552,1.0572999715805054,1.1861833333969116,1.4316449165344238
15091.440675370432,0.9505987763404846,1.0576237440109253,1.1852118968963623,1.4321305751800537
15091.442675430493,0.9499511122703552,1.0572999715805054,1.1856976747512817,1.432778239250183
15091.444675490553,0.9502749443054199,1.056814193725586,1.1856976747512817,1.4331021308898926
15091.446675550615,0.9497891664505005,1.0574618577957153,1.1858595609664917,1.432778239250183
15091.448675610674,0.9484938979148865,1.0574618577957153,1.1855357885360718,1.4321305751800537
15091.450675670734,0.9489796161651611,1.056652307510376,1.1850500106811523,1.432778239250183
15091.452675730796,0.9488176703453064,1.056652307510376,1.1852118968963623,1.4332640171051025
15091.454675790856,0.9488176703453064,1.0561665296554565,1.1860214471817017,1.4322925806045532
15091.456675850915,0.9486557841300964,1.056490421295166,1.1858595609664917,1.432778239250183
15091.458675910977,0.9494653344154358,1.056490421295166,1.1858595609664917,1.433587908744812
15091.460675971037,0.9502749443054199,1.0561665296554565,1.1855357885360718,1.4342354536056519
15091.462676031097,0.9501129984855652,1.056814193725586,1.1855357885360718,1.4345593452453613
15091.464676091158,0.9502749443054199,1.0571380853652954,1.1853737831115723,1.4342354536056519
15091.466676151218,0.9505987763404846,1.0574618577957153,1.1860214471817017,1.4331021308898926
