time,X_NOSE,Y_NOSE,Z_NOSE,visibility_NOSE,X_LEFT_EYE_INNER,Y_LEFT_EYE_INNER,Z_LEFT_EYE_INNER,visibility_LEFT_EYE_INNER,X_LEFT_EYE,Y_LEFT_EYE,Z_LEFT_EYE,visibility_LEFT_EYE,X_LEFT_EYE_OUTER,Y_LEFT_EYE_OUTER,Z_LEFT_EYE_OUTER,visibility_LEFT_EYE_OUTER,X_RIGHT_EYE_OUTER,Y_RIGHT_EYE_OUTER,Z_RIGHT_EYE_OUTER,visibility_RIGHT_EYE_OUTER,X_RIGHT_EYE,Y_RIGHT_EYE,Z_RIGHT_EYE,visibility_RIGHT_EYE,X_RIGHT_EYE_OUTER,Y_RIGHT_EYE_OUTER,Z_RIGHT_EYE_OUTER,visibility_RIGHT_EYE_OUTER,X_LEFT_EAR,Y_LEFT_EAR,Z_LEFT_EAR,visibility_LEFT_EAR,X_RIGHT_EAR,Y_RIGHT_EAR,Z_RIGHT_EAR,visibility_RIGHT_EAR,X_MOUTH_LEFT,Y_MOUTH_LEFT,Z_MOUTH_LEFT,visibility_MOUTH_LEFT,X_MOUTH_RIGHT,Y_MOUTH_RIGHT,Z_MOUTH_RIGHT,visibility_MOUTH_RIGHT,X_LEFT_SHOULDER,Y_LEFT_SHOULDER,Z_LEFT_SHOULDER,visibility_LEFT_SHOULDER,X_RIGHT_SHOULDER,Y_RIGHT_SHOULDER,Z_RIGHT_SHOULDER,visibility_RIGHT_SHOULDER,X_LEFT_ELBOW,Y_LEFT_ELBOW,Z_LEFT_ELBOW,visibility_LEFT_ELBOW,X_RIGHT_ELBOW,Y_RIGHT_ELBOW,Z_RIGHT_ELBOW,visibility_RIGHT_ELBOW,X_LEFT_WRIST,Y_LEFT_WRIST,Z_LEFT_WRIST,visibility_LEFT_WRIST,X_RIGHT_WRIST,Y_RIGHT_WRIST,Z_RIGHT_WRIST,visibility_RIGHT_WRIST,X_LEFT_PINKY,Y_LEFT_PINKY,Z_LEFT_PINKY,visibility_LEFT_PINKY,X_RIGHT_PINKY,Y_RIGHT_PINKY,Z_RIGHT_PINKY,visibility_RIGHT_PINKY,X_LEFT_INDEX,Y_LEFT_INDEX,Z_LEFT_INDEX,visibility_LEFT_INDEX,X_RIGHT_INDEX,Y_RIGHT_INDEX,Z_RIGHT_INDEX,visibility_RIGHT_INDEX,X_LEFT_THUMB,Y_LEFT_THUMB,Z_LEFT_THUMB,visibility_LEFT_THUMB,X_RIGHT_THUMB,Y_RIGHT_THUMB,Z_RIGHT_THUMB,visibility_RIGHT_THUMB,X_LEFT_HIP,Y_LEFT_HIP,Z_LEFT_HIP,visibility_LEFT_HIP,X_RIGHT_HIP,Y_RIGHT_HIP,Z_RIGHT_HIP,visibility_RIGHT_HIP,X_LEFT_KNEE,Y_LEFT_KNEE,Z_LEFT_KNEE,visibility_LEFT_KNEE,X_RIGHT_KNEE,Y_RIGHT_KNEE,Z_RIGHT_KNEE,visibility_RIGHT_KNEE,X_LEFT_ANKLE,Y_LEFT_ANKLE,Z_LEFT_ANKLE,visibility_LEFT_ANKLE,X_RIGHT_ANKLE,Y_RIGHT_ANKLE,Z_RIGHT_ANKLE,visibility_RIGHT_ANKLE,X_LEFT_HEEL,Y_LEFT_HEEL,Z_LEFT_HEEL,visibility_LEFT_HEEL,X_RIGHT_HEEL,Y_RIGHT_HEEL,Z_RIGHT_HEEL,visibility_RIGHT_HEEL,X_LEFT_FOOT_INDEX,Y_LEFT_FOOT_INDEX,Z_LEFT_FOOT_INDEX,visibility_LEFT_FOOT_INDEX,X_RIGHT_FOOT_INDEX,Y_RIGHT_FOOT_INDEX,Z_RIGHT_FOOT_INDEX,visibility_RIGHT_FOOT_INDEX
18135.445433854264,0.44651147723197937,0.23568809032440186,-0.9994639158248901,0.9999827146530151,0.45625039935112,0.2122083306312561,-0.9409825205802917,0.9999653100967407,0.465290367603302,0.21158245205879211,-0.9410350918769836,0.9999608993530273,0.4731770157814026,0.2114085853099823,-0.9410126209259033,0.9999537467956543,0.42231854796409607,0.212174654006958,-0.9762594103813171,0.9999680519104004,0.40434399247169495,0.21164444088935852,-0.976346492767334,0.9999672174453735,0.3850724995136261,0.21181771159172058,-0.9764106273651123,0.9999617338180542,0.4666438400745392,0.21801504492759705,-0.5776093602180481,0.999957799911499,0.3331330120563507,0.2201850712299347,-0.7495546936988831,0.9999697208404541,0.45354682207107544,0.25911980867385864,-0.861587405204773,0.999988317489624,0.4183485805988312,0.26086175441741943,-0.9101589322090149,0.9999910593032837,0.540168285369873,0.3466627895832062,-0.32720866799354553,0.9999171495437622,0.18069739639759064,0.3668871819972992,-0.6008977890014648,0.9997631907463074,0.5942791700363159,0.5053081512451172,-0.06609722971916199,0.9766437411308289,0.1695844829082489,0.5212664604187012,-0.7907872200012207,0.9699916243553162,0.6524134874343872,0.6343293786048889,-0.29918161034584045,0.9758523106575012,0.2824333608150482,0.5545995235443115,-1.2675927877426147,0.9376431107521057,0.6732805967330933,0.6763254404067993,-0.37875574827194214,0.9570827484130859,0.32814860343933105,0.5622445940971375,-1.389410138130188,0.920228123664856,0.6599044799804688,0.6758508086204529,-0.47013914585113525,0.9610601663589478,0.33252841234207153,0.5318910479545593,-1.444088339805603,0.9233567118644714,0.6486315727233887,0.6670016646385193,-0.33914241194725037,0.9622656106948853,0.3183952569961548,0.5272719264030457,-1.2971919775009155,0.9086031913757324,0.5003274083137512,0.6292120814323425,0.09270341694355011,0.9986501336097717,0.3251069486141205,0.6492880582809448,-0.0923638865351677,0.9987179040908813,0.49439671635627747,0.8284908533096313,0.3181268870830536,0.9548560380935669,0.34553903341293335,0.8598393201828003,0.11458156257867813,0.9743869304656982,0.4856392741203308,0.9537007808685303,1.132149338722229,0.900114893913269,0.35938864946365356,0.979720950126648,0.7903805375099182,0.918156087398529,0.46217355132102966,0.9686834216117859,1.1949076652526855,0.8527613878250122,0.36019834876060486,0.9812156558036804,0.8446282744407654,0.7236130237579346,0.5420420169830322,1.0207653045654297,0.9134065508842468,0.8578880429267883,0.3885793089866638,1.071458101272583,0.47188496589660645,0.8167780637741089
18152.11210052093,0.4514261484146118,0.233483225107193,-0.9896236062049866,0.9999842643737793,0.45964643359184265,0.21018153429031372,-0.930464506149292,0.9999686479568481,0.4677441120147705,0.20960989594459534,-0.9305082559585571,0.9999650716781616,0.4753400385379791,0.20933300256729126,-0.9304874539375305,0.9999586343765259,0.426582932472229,0.21073150634765625,-0.9673617482185364,0.9999717473983765,0.4093798100948334,0.21054017543792725,-0.9674699902534485,0.9999710321426392,0.38916462659835815,0.21092134714126587,-0.9675348997116089,0.9999659061431885,0.46457231044769287,0.21581214666366577,-0.5683278441429138,0.9999626874923706,0.33560502529144287,0.21989214420318604,-0.7485055923461914,0.9999727010726929,0.4574154317378998,0.2566843330860138,-0.852697491645813,0.9999890327453613,0.42214226722717285,0.2593856453895569,-0.9037148356437683,0.9999916553497314,0.5384975671768188,0.34764108061790466,-0.32646656036376953,0.9999191761016846,0.18343979120254517,0.3655046224594116,-0.5974653959274292,0.9997679591178894,0.5952134728431702,0.505320131778717,-0.07039263099431992,0.9784622192382812,0.16540640592575073,0.5196859836578369,-0.7964802384376526,0.9703359603881836,0.6522998809814453,0.6348203420639038,-0.3018646836280823,0.9775445461273193,0.27591997385025024,0.5528337955474854,-1.2832585573196411,0.9352914094924927,0.6733701229095459,0.6763684749603271,-0.37966689467430115,0.9592333436012268,0.3217049837112427,0.5597373843193054,-1.4045648574829102,0.9168875813484192,0.6602669954299927,0.6763514876365662,-0.4713672399520874,0.9631126523017883,0.3255033791065216,0.5293344855308533,-1.4576857089996338,0.9199037551879883,0.6489279270172119,0.6674976944923401,-0.341765433549881,0.9639933109283447,0.3114878535270691,0.5252942442893982,-1.3125823736190796,0.904424250125885,0.500291109085083,0.626404881477356,0.09042825549840927,0.9984762072563171,0.32453060150146484,0.6477454900741577,-0.09009602665901184,0.9986274242401123,0.4937233030796051,0.8273500204086304,0.3076465129852295,0.9570650458335876,0.3450661897659302,0.8602045178413391,0.10051442682743073,0.9747973680496216,0.4860230088233948,0.9541184902191162,1.1011873483657837,0.9047597646713257,0.35932686924934387,0.9825375080108643,0.7582096457481384,0.9215077757835388,0.46227389574050903,0.9690488576889038,1.1615419387817383,0.8545413017272949,0.3608345091342926,0.9849146008491516,0.8097297549247742,0.7188940644264221,0.5434058904647827,1.020067572593689,0.8783526420593262,0.8666472434997559,0.38883712887763977,1.0743874311447144,0.4327608048915863,0.8241535425186157
18168.7787671876,0.4492045044898987,0.23586857318878174,-0.9628546833992004,0.9999809265136719,0.45908984541893005,0.21196195483207703,-0.9053226113319397,0.9999630451202393,0.4675339162349701,0.21120110154151917,-0.9053919911384583,0.999957799911499,0.4751785099506378,0.21093159914016724,-0.9053975343704224,0.9999512434005737,0.4256010949611664,0.21240299940109253,-0.9421911835670471,0.999967098236084,0.4083980917930603,0.21206286549568176,-0.9422807097434998,0.9999651908874512,0.38822120428085327,0.21225756406784058,-0.9423349499702454,0.9999593496322632,0.46660634875297546,0.21704068779945374,-0.5522266030311584,0.9999536275863647,0.33511900901794434,0.22031530737876892,-0.7317259311676025,0.999968409538269,0.4551398754119873,0.258910208940506,-0.8290385603904724,0.9999871253967285,0.42018404603004456,0.261307030916214,-0.8797532916069031,0.9999905824661255,0.5371372699737549,0.3444550037384033,-0.3152020573616028,0.999902606010437,0.18249714374542236,0.36745524406433105,-0.5933122634887695,0.9997488856315613,0.5944010019302368,0.503737211227417,-0.06676186621189117,0.973861038684845,0.1699751764535904,0.5187012553215027,-0.768808126449585,0.9668456315994263,0.652655839920044,0.6352918148040771,-0.2938380241394043,0.9733928442001343,0.28338491916656494,0.5557390451431274,-1.2052371501922607,0.9237830638885498,0.6744170188903809,0.6768417358398438,-0.37319430708885193,0.9534158110618591,0.3278699815273285,0.5631095170974731,-1.3211071491241455,0.9045765399932861,0.6606570482254028,0.676438570022583,-0.4631054997444153,0.9576261639595032,0.33249786496162415,0.5327582359313965,-1.3750454187393188,0.9079557061195374,0.6484488248825073,0.667299747467041,-0.3333944082260132,0.9589789509773254,0.317958801984787,0.5285201072692871,-1.2338465452194214,0.8919549584388733,0.49876630306243896,0.6300510168075562,0.10213484615087509,0.9983308911323547,0.3256329298019409,0.6510244011878967,-0.10182558745145798,0.9984937906265259,0.4926195740699768,0.8324781060218811,0.3575000762939453,0.9505153894424438,0.34619975090026855,0.8636103868484497,0.11744075268507004,0.9774259924888611,0.48737651109695435,0.9571431279182434,1.131980538368225,0.8932138681411743,0.3590390980243683,0.9857868552207947,0.758992075920105,0.9239951968193054,0.4637214243412018,0.970016598701477,1.1914242506027222,0.8570911288261414,0.3578636050224304,0.9858434796333313,0.8099616765975952,0.739823579788208,0.5527023077011108,1.0200740098953247,0.9254772067070007,0.8543516397476196,0.3950929045677185,1.0733414888381958,0.4462125599384308,0.8236972093582153
18185.445433854267,0.45172205567359924,0.23411038517951965,-0.9456899762153625,0.9999819993972778,0.46046122908592224,0.21085986495018005,-0.8858668804168701,0.9999653100967407,0.4687741994857788,0.21027538180351257,-0.885940432548523,0.9999605417251587,0.4766668975353241,0.2100822925567627,-0.8859241008758545,0.9999538660049438,0.4272305369377136,0.21112096309661865,-0.9232178926467896,0.9999686479568481,0.41016146540641785,0.21073240041732788,-0.9233012199401855,0.9999672174453735,0.39001503586769104,0.21082094311714172,-0.9233620166778564,0.9999617338180542,0.4661833643913269,0.21653002500534058,-0.5289916396141052,0.9999579191207886,0.3363822400569916,0.21900832653045654,-0.7106591463088989,0.9999703168869019,0.45781511068344116,0.2574385106563568,-0.8114733099937439,0.9999878406524658,0.4219813644886017,0.25943925976753235,-0.8627622723579407,0.9999909400939941,0.5378174185752869,0.34621351957321167,-0.29500269889831543,0.9999057054519653,0.18029054999351501,0.3661901652812958,-0.5774829983711243,0.9997541308403015,0.5932151079177856,0.5052428841590881,-0.044881775975227356,0.9755753874778748,0.1699845939874649,0.5192148685455322,-0.7753106355667114,0.9699386954307556,0.6527172327041626,0.6346192359924316,-0.27740055322647095,0.9766207933425903,0.2827224135398865,0.5548019409179688,-1.2464910745620728,0.9377278089523315,0.6742559671401978,0.6771169304847717,-0.35718706250190735,0.9588079452514648,0.32460278272628784,0.5612460970878601,-1.3660991191864014,0.921440064907074,0.6605759263038635,0.676927387714386,-0.447021484375,0.9626802802085876,0.32951265573501587,0.5312638878822327,-1.4207634925842285,0.9245984554290771,0.6490440368652344,0.6677725315093994,-0.3170712888240814,0.9639734625816345,0.3159463405609131,0.527016818523407,-1.276075005531311,0.9106928110122681,0.4977455735206604,0.6317706108093262,0.10087461769580841,0.9984461665153503,0.3241118788719177,0.6516762971878052,-0.10051024705171585,0.9986108541488647,0.491894006729126,0.8329397439956665,0.3318500518798828,0.9475138187408447,0.34714576601982117,0.8622044920921326,0.10395462065935135,0.9730302691459656,0.48672038316726685,0.9587666988372803,1.130976915359497,0.8800220489501953,0.3592982292175293,0.9847375750541687,0.7602236270904541,0.9071464538574219,0.4634155035018921,0.9719180464744568,1.1925876140594482,0.8449832201004028,0.3586397171020508,0.9848793148994446,0.812644898891449,0.7116055488586426,0.5483579039573669,1.0211621522903442,0.9235647916793823,0.8339823484420776,0.3910568952560425,1.0738465785980225,0.44553300738334656,0.7910888195037842
18202.112100520935,0.4445776045322418,0.2367868721485138,-0.9540199637413025,0.9999831914901733,0.4549853205680847,0.21335461735725403,-0.8964810371398926,0.9999662637710571,0.46402639150619507,0.21284395456314087,-0.8965446949005127,0.999962568283081,0.47222116589546204,0.21271109580993652,-0.8965364694595337,0.999956488609314,0.4209616780281067,0.21280452609062195,-0.9289460182189941,0.9999693632125854,0.40336933732032776,0.21206200122833252,-0.9289986491203308,0.9999676942825317,0.38463065028190613,0.21203139424324036,-0.9290503263473511,0.9999616146087646,0.46605080366134644,0.2186293601989746,-0.5356957316398621,0.9999594688415527,0.33407148718833923,0.21993806958198547,-0.6966006755828857,0.9999687671661377,0.4512832462787628,0.2601736783981323,-0.8172920346260071,0.9999874830245972,0.4153718948364258,0.2610953450202942,-0.8626279234886169,0.9999904632568359,0.5369364023208618,0.34630244970321655,-0.2913582921028137,0.9999139308929443,0.1925739347934723,0.36189013719558716,-0.5456649661064148,0.9997480511665344,0.5918381214141846,0.5057149529457092,-0.03519575297832489,0.9768824577331543,0.17145662009716034,0.5136495232582092,-0.7458057999610901,0.960399329662323,0.6535534858703613,0.6340676546096802,-0.25206488370895386,0.9776150584220886,0.2769802212715149,0.5506711006164551,-1.230769395828247,0.9130043387413025,0.6743401288986206,0.6755479574203491,-0.32933518290519714,0.9603235721588135,0.3205714821815491,0.5584449768066406,-1.3493666648864746,0.8937484622001648,0.658539354801178,0.6759160757064819,-0.42190590500831604,0.9638987183570862,0.3264457583427429,0.527325451374054,-1.4041540622711182,0.8976244926452637,0.6462029218673706,0.6665516495704651,-0.2920418381690979,0.964405357837677,0.3134791851043701,0.5234498977661133,-1.2611620426177979,0.8821443319320679,0.5020132064819336,0.6304146647453308,0.0969327986240387,0.9981355667114258,0.3273789882659912,0.6519138813018799,-0.09648624062538147,0.9984622001647949,0.49488458037376404,0.832266092300415,0.34112733602523804,0.9589172601699829,0.3447125256061554,0.8670204877853394,0.10233284533023834,0.9788373708724976,0.4903455078601837,0.9526768326759338,1.1108272075653076,0.8976207375526428,0.3571433424949646,0.989025890827179,0.7286834120750427,0.9215570688247681,0.4663548767566681,0.9665860533714294,1.16920804977417,0.8509562015533447,0.3571004271507263,0.987030029296875,0.7775781154632568,0.7231500744819641,0.5469591617584229,1.015777587890625,0.8934615254402161,0.8464218974113464,0.3874674141407013,1.0763812065124512,0.40196987986564636,0.8081393241882324
18218.778767187603,0.4450514018535614,0.2372211366891861,-1.0044955015182495,0.9999836683273315,0.45513400435447693,0.21394330263137817,-0.94818514585495,0.9999675750732422,0.46396055817604065,0.21342620253562927,-0.9482412934303284,0.9999637603759766,0.4723634123802185,0.21312138438224792,-0.9482131600379944,0.9999570846557617,0.4212320148944855,0.2139086127281189,-0.9819350838661194,0.999971866607666,0.4026018977165222,0.2136324942111969,-0.982010006904602,0.9999710321426392,0.38359659910202026,0.21368533372879028,-0.9820538759231567,0.999966025352478,0.4654527008533478,0.21931353211402893,-0.5849394798278809,0.9999591112136841,0.3308885991573334,0.2218031883239746,-0.7494105696678162,0.9999735355377197,0.45184236764907837,0.26078659296035767,-0.8657832741737366,0.9999874830245972,0.4147093892097473,0.26253432035446167,-0.9121544361114502,0.9999912977218628,0.5371509790420532,0.34591585397720337,-0.32319268584251404,0.999900221824646,0.1872488409280777,0.3640038073062897,-0.5993729829788208,0.9997661709785461,0.5912624597549438,0.5038495659828186,-0.05550640448927879,0.9696738719940186,0.1722814291715622,0.5179105997085571,-0.7710742950439453,0.9658969044685364,0.6506682634353638,0.6319813132286072,-0.2715001702308655,0.9679110050201416,0.2862027585506439,0.5560759902000427,-1.205888032913208,0.9141422510147095,0.6713536977767944,0.6741011738777161,-0.34792715311050415,0.9450538754463196,0.33132442831993103,0.561093270778656,-1.3213517665863037,0.8914918303489685,0.6556808948516846,0.6745097041130066,-0.43969178199768066,0.9496666789054871,0.3341093063354492,0.5305282473564148,-1.3736964464187622,0.8948167562484741,0.6437684297561646,0.6648247241973877,-0.311430960893631,0.9510880708694458,0.3207157552242279,0.5254765152931213,-1.233648419380188,0.8781015872955322,0.5019204020500183,0.6331532597541809,0.10246598720550537,0.9981826543807983,0.3289240896701813,0.6548392176628113,-0.10208342224359512,0.998501181602478,0.49588268995285034,0.8344213962554932,0.4000628590583801,0.9602106809616089,0.3458428978919983,0.8687574863433838,0.14509065449237823,0.9817905426025391,0.4915582835674286,0.9592446684837341,1.174326777458191,0.9126068353652954,0.35868749022483826,0.9911633729934692,0.7857078313827515,0.932941734790802,0.46656534075737,0.9713220596313477,1.2336455583572388,0.8678114414215088,0.3585575222969055,0.9897890686988831,0.8368036150932312,0.757402241230011,0.5563627481460571,1.0186326503753662,0.9572965502738953,0.871780514717102,0.401976078748703,1.0794157981872559,0.46339520812034607,0.8349037170410156
18235.44543385427,0.44896748661994934,0.23528653383255005,-0.9504844546318054,0.9999804496765137,0.4568428695201874,0.21221351623535156,-0.8951739072799683,0.9999598264694214,0.4652499258518219,0.21140417456626892,-0.8952542543411255,0.9999566078186035,0.4726552367210388,0.2110457718372345,-0.8952904939651489,0.9999490976333618,0.4248785674571991,0.21266788244247437,-0.930991530418396,0.9999657869338989,0.4074104428291321,0.21230384707450867,-0.9310990571975708,0.9999643564224243,0.3882886469364166,0.2126462161540985,-0.9311745166778564,0.9999580383300781,0.4632176458835602,0.21733325719833374,-0.5436912775039673,0.9999556541442871,0.3349311351776123,0.22127431631088257,-0.7170878052711487,0.9999666213989258,0.4546971619129181,0.2585078477859497,-0.8161453604698181,0.9999854564666748,0.4206036329269409,0.260537326335907,-0.8652554750442505,0.9999891519546509,0.5366301536560059,0.34637871384620667,-0.3033909499645233,0.9998912811279297,0.1881888061761856,0.36537888646125793,-0.569186270236969,0.9997305274009705,0.5913524627685547,0.5037730932235718,-0.05188770219683647,0.9744676351547241,0.1713244616985321,0.516584038734436,-0.7563644647598267,0.9655648469924927,0.6533071994781494,0.6324357986450195,-0.2665860056877136,0.9708261489868164,0.2809264659881592,0.5547487735748291,-1.2115193605422974,0.9182435870170593,0.6757654547691345,0.6753575801849365,-0.3405090570449829,0.9489326477050781,0.3246062695980072,0.5612038969993591,-1.3256465196609497,0.8967703580856323,0.6644166111946106,0.675422191619873,-0.4322679042816162,0.9536396265029907,0.3283838927745819,0.5308804512023926,-1.37785804271698,0.9001792073249817,0.6537210941314697,0.6659015417098999,-0.3063727915287018,0.9549212455749512,0.3153076767921448,0.5262993574142456,-1.2399829626083374,0.8835193514823914,0.4998859167098999,0.6278263330459595,0.0911298543214798,0.996684730052948,0.32325634360313416,0.6495503783226013,-0.09067610651254654,0.9975276589393616,0.4948936700820923,0.8318678140640259,0.31438004970550537,0.9602577090263367,0.3477213680744171,0.867651104927063,0.07784673571586609,0.9780848026275635,0.4912503957748413,0.9622185826301575,1.0530242919921875,0.895000159740448,0.3634915351867676,0.9947068095207214,0.6702848672866821,0.9193980693817139,0.46936747431755066,0.9729772210121155,1.1077338457107544,0.8383486270904541,0.36374279856681824,0.9935823678970337,0.7148756980895996,0.708126962184906,0.5505995750427246,1.0223745107650757,0.8291022181510925,0.8453925848007202,0.40009626746177673,1.0856770277023315,0.3345513939857483,0.8064239025115967
18252.11210052094,0.44993284344673157,0.23447218537330627,-0.9146141409873962,0.9999754428863525,0.4576520323753357,0.21132266521453857,-0.858971357345581,0.9999501705169678,0.46603840589523315,0.21061041951179504,-0.8590685129165649,0.9999465942382812,0.47338178753852844,0.21027854084968567,-0.8591331839561462,0.9999384880065918,0.4258507788181305,0.21162253618240356,-0.8950921893119812,0.9999558925628662,0.4083942472934723,0.21123084425926208,-0.8951857686042786,0.999954104423523,0.38916510343551636,0.21152499318122864,-0.8952657580375671,0.9999464750289917,0.4644259810447693,0.2165536880493164,-0.5118807554244995,0.9999451637268066,0.3358927071094513,0.22033971548080444,-0.6866544485092163,0.9999568462371826,0.45609959959983826,0.2574544847011566,-0.7820982336997986,0.9999829530715942,0.42160239815711975,0.259430855512619,-0.8316430449485779,0.9999866485595703,0.5373939275741577,0.3464207053184509,-0.28223568201065063,0.9998866319656372,0.1890721172094345,0.36534374952316284,-0.5383954048156738,0.9996737241744995,0.5918570160865784,0.5041854381561279,-0.03363826870918274,0.9733604192733765,0.1681888848543167,0.5149582624435425,-0.7069295048713684,0.9600516557693481,0.6525005102157593,0.6329599022865295,-0.24646294116973877,0.9684225916862488,0.27727705240249634,0.5556855201721191,-1.1411350965499878,0.9065964221954346,0.6753480434417725,0.6751613616943359,-0.32148829102516174,0.9456512331962585,0.3216337561607361,0.5620133876800537,-1.2515381574630737,0.8849986791610718,0.6631238460540771,0.6753208637237549,-0.4107819199562073,0.9507834911346436,0.3266288936138153,0.5322936773300171,-1.3043166399002075,0.8890591263771057,0.652117133140564,0.6658588647842407,-0.2853330969810486,0.9522287845611572,0.3131185472011566,0.5280939936637878,-1.1693997383117676,0.8719865083694458,0.500514030456543,0.6287870407104492,0.08548053354024887,0.9967419505119324,0.32372981309890747,0.6497202515602112,-0.08504127711057663,0.9973228573799133,0.49427899718284607,0.8345334529876709,0.2803300619125366,0.960112988948822,0.34774789214134216,0.8698709011077881,0.0681450366973877,0.9745801687240601,0.49282506108283997,0.9659296274185181,1.025989294052124,0.8931604027748108,0.3646691143512726,0.9957257509231567,0.668061375617981,0.9096317887306213,0.4732528626918793,0.9767148494720459,1.0814834833145142,0.8227933049201965,0.3712500035762787,1.0141340494155884,0.713667631149292,0.6796085238456726,0.5467174053192139,1.0269372463226318,0.8016189932823181,0.8367791175842285,0.39865925908088684,1.085496425628662,0.3362191915512085,0.790804386138916
18268.778767187607,0.448580801486969,0.23469135165214539,-0.9612259268760681,0.9999817609786987,0.45698773860931396,0.21123915910720825,-0.9024657011032104,0.9999639987945557,0.4658178985118866,0.21057596802711487,-0.9025432467460632,0.9999604225158691,0.473393052816391,0.21026623249053955,-0.9025276303291321,0.9999532699584961,0.4245879650115967,0.21169820427894592,-0.9379854798316956,0.9999697208404541,0.40688538551330566,0.211450457572937,-0.9380614757537842,0.999968409538269,0.38781028985977173,0.2119356095790863,-0.9381066560745239,0.9999624490737915,0.46619245409965515,0.21691778302192688,-0.5462734699249268,0.9999570846557617,0.33545127511024475,0.22088927030563354,-0.718672513961792,0.9999713897705078,0.4556359648704529,0.2579505443572998,-0.8270246386528015,0.9999867677688599,0.42140865325927734,0.25986236333847046,-0.8756317496299744,0.999990701675415,0.5394314527511597,0.34655070304870605,-0.30360791087150574,0.9998973608016968,0.18427163362503052,0.3669569790363312,-0.5801419615745544,0.999774158000946,0.5924896001815796,0.5046753883361816,-0.04529302194714546,0.9742780327796936,0.168498232960701,0.5241531729698181,-0.7774422764778137,0.9729019999504089,0.6528549194335938,0.6343019008636475,-0.27014535665512085,0.9765639305114746,0.2805168330669403,0.5538404583930969,-1.25138521194458,0.9388117790222168,0.6734038591384888,0.6762638688087463,-0.34868812561035156,0.958541750907898,0.32667189836502075,0.5594884157180786,-1.3729866743087769,0.9200606346130371,0.6568520665168762,0.6763334274291992,-0.4398414194583893,0.9620922207832336,0.32719478011131287,0.5267690420150757,-1.4243674278259277,0.9222957491874695,0.6449239253997803,0.6670284867286682,-0.30987176299095154,0.9626211524009705,0.3132742941379547,0.5235623121261597,-1.2800413370132446,0.9073161482810974,0.5014369487762451,0.631233811378479,0.10683044791221619,0.9978988170623779,0.3285737633705139,0.6541245579719543,-0.10648443549871445,0.9983876943588257,0.4962349534034729,0.8331383466720581,0.4481225907802582,0.953216552734375,0.34614551067352295,0.8686081767082214,0.16606639325618744,0.9802013039588928,0.49195781350135803,0.9591643214225769,1.2076255083084106,0.892406702041626,0.3612980842590332,0.9912800192832947,0.7972509860992432,0.9200314879417419,0.46777021884918213,0.97166508436203,1.265712857246399,0.8512487411499023,0.36045247316360474,0.9890586733818054,0.8474307656288147,0.7378182411193848,0.5567024946212769,1.0183467864990234,0.9994769096374512,0.8521338105201721,0.40595412254333496,1.0790698528289795,0.4791182577610016,0.8096746802330017
18285.445433854275,0.4492414891719818,0.23488980531692505,-0.9296212196350098,0.9999767541885376,0.4571945369243622,0.21187257766723633,-0.8721385598182678,0.999954342842102,0.46560773253440857,0.2112138271331787,-0.8722312450408936,0.999948263168335,0.4731481075286865,0.2110307812690735,-0.8722437620162964,0.9999395608901978,0.4248315393924713,0.21210113167762756,-0.9079847931861877,0.9999617338180542,0.407376766204834,0.21172389388084412,-0.9080744385719299,0.9999603033065796,0.3879739046096802,0.2119872272014618,-0.9081531167030334,0.9999544620513916,0.46439221501350403,0.21776047348976135,-0.5241601467132568,0.9999457597732544,0.33513328433036804,0.22065028548240662,-0.6970334649085999,0.999966025352478,0.4558990001678467,0.25824642181396484,-0.7982316613197327,0.9999845027923584,0.42137807607650757,0.2599346339702606,-0.8469972014427185,0.9999892711639404,0.5362863540649414,0.34627461433410645,-0.2858964800834656,0.9998722076416016,0.1815027892589569,0.3682583272457123,-0.5666964054107666,0.9997624754905701,0.5920809507369995,0.5062881708145142,-0.027610067278146744,0.9704620242118835,0.16992703080177307,0.5241883993148804,-0.7519482970237732,0.9715819954872131,0.6497690081596375,0.6341583728790283,-0.24586831033229828,0.9699618220329285,0.28361091017723083,0.5562082529067993,-1.2109391689300537,0.9416512846946716,0.6735076308250427,0.6772738099098206,-0.32283318042755127,0.9489160776138306,0.3300594985485077,0.5629165172576904,-1.3279304504394531,0.9254538416862488,0.6601905822753906,0.6769540309906006,-0.41136351227760315,0.9534651041030884,0.3325153887271881,0.5328475832939148,-1.3824514150619507,0.9282398223876953,0.6485520005226135,0.6677090525627136,-0.2848140001296997,0.9555037021636963,0.3183653950691223,0.5282168388366699,-1.2399855852127075,0.9146909713745117,0.4981580078601837,0.6339592337608337,0.10248368233442307,0.9977138042449951,0.32682353258132935,0.6554059386253357,-0.1021125391125679,0.9982050657272339,0.49230772256851196,0.8384666442871094,0.36123254895210266,0.9424469470977783,0.3477165400981903,0.8704763054847717,0.11399461328983307,0.9723576307296753,0.4901200830936432,0.9635283350944519,1.1187595129013062,0.8582644462585449,0.3585360646247864,0.9875614643096924,0.736117422580719,0.891738772392273,0.466566801071167,0.9747825264930725,1.1763999462127686,0.8164307475090027,0.3561060428619385,0.986833930015564,0.7854385375976562,0.6900306940078735,0.5513126850128174,1.0204132795333862,0.9109581112861633,0.8019635677337646,0.396004855632782,1.0803966522216797,0.42025476694107056,0.7576754093170166
18302.112100520942,0.4520190358161926,0.23139679431915283,-0.9479795694351196,0.9999850988388062,0.45867371559143066,0.2091863751411438,-0.8894986510276794,0.9999700784683228,0.46684226393699646,0.20880421996116638,-0.8895875215530396,0.9999663829803467,0.4742182791233063,0.2082436978816986,-0.8895933032035828,0.9999600648880005,0.42613932490348816,0.208834707736969,-0.9286187887191772,0.9999758005142212,0.40883204340934753,0.2080969512462616,-0.9287416338920593,0.9999748468399048,0.3894285559654236,0.2076357901096344,-0.9288382530212402,0.9999715089797974,0.4641818106174469,0.21463146805763245,-0.5366126298904419,0.9999650716781616,0.3373066782951355,0.21641981601715088,-0.7239696979522705,0.9999785423278809,0.4575152099132538,0.25432154536247253,-0.8144980669021606,0.9999896287918091,0.4234740734100342,0.25596264004707336,-0.8676228523254395,0.999993085861206,0.5357078313827515,0.34661155939102173,-0.298728883266449,0.9998892545700073,0.1813068389892578,0.36624717712402344,-0.5867709517478943,0.9998138546943665,0.5899617075920105,0.5067136883735657,-0.04744561016559601,0.9733115434646606,0.16541315615177155,0.5228068232536316,-0.7740950584411621,0.9776057600975037,0.6513342261314392,0.6348844170570374,-0.28745582699775696,0.9717408418655396,0.28051868081092834,0.5548702478408813,-1.2452255487442017,0.9555128812789917,0.6758710145950317,0.6763929128646851,-0.3676304519176483,0.9512702226638794,0.3274628221988678,0.5605425238609314,-1.365127682685852,0.9405555725097656,0.6647390127182007,0.6759293675422668,-0.4599769115447998,0.9559012651443481,0.3299671709537506,0.5310211777687073,-1.4199802875518799,0.9429869055747986,0.6538279056549072,0.667100727558136,-0.3288533687591553,0.9579821228981018,0.31637585163116455,0.5281400680541992,-1.2744390964508057,0.9305572509765625,0.499614953994751,0.6293442845344543,0.09573780745267868,0.9972220659255981,0.32554861903190613,0.6506201028823853,-0.09533318877220154,0.998029887676239,0.49236467480659485,0.8331989049911499,0.32803940773010254,0.9556103944778442,0.3500021994113922,0.8662273287773132,0.09430160373449326,0.9755169749259949,0.49082431197166443,0.9630211591720581,1.105059266090393,0.8809433579444885,0.3655245900154114,0.9927024841308594,0.7208353877067566,0.9088596105575562,0.47078317403793335,0.973533570766449,1.1636900901794434,0.8311581015586853,0.362751305103302,0.9919232130050659,0.7694213390350342,0.7079319357872009,0.5487135052680969,1.0213521718978882,0.8888171315193176,0.8336002230644226,0.40434032678604126,1.0837953090667725,0.3915238380432129,0.7928977608680725
18318.77876718761,0.45043447613716125,0.23296970129013062,-0.9191969037055969,0.9999812841415405,0.4589684009552002,0.210659921169281,-0.8617285490036011,0.999962568283081,0.46719875931739807,0.21027028560638428,-0.8618397116661072,0.9999595880508423,0.4747695028781891,0.21002590656280518,-0.8619179129600525,0.9999539852142334,0.42620527744293213,0.2105109691619873,-0.8986471891403198,0.9999665021896362,0.4085456430912018,0.21003824472427368,-0.8987278938293457,0.9999644756317139,0.3885882496833801,0.21002787351608276,-0.8988071084022522,0.9999586343765259,0.46643075346946716,0.21647262573242188,-0.5078282952308655,0.9999603033065796,0.3362951874732971,0.2182011604309082,-0.6857500672340393,0.9999690055847168,0.4565095007419586,0.25638526678085327,-0.7841707468032837,0.9999879598617554,0.4216592311859131,0.25784143805503845,-0.8348113298416138,0.9999910593032837,0.5369868874549866,0.3451728820800781,-0.2805802822113037,0.9999059438705444,0.18499985337257385,0.36493808031082153,-0.5266848802566528,0.9997029900550842,0.5913788080215454,0.5032038688659668,-0.03468361869454384,0.9756119251251221,0.15825608372688293,0.5083077549934387,-0.6786354780197144,0.959394097328186,0.6558164954185486,0.6358816623687744,-0.26200664043426514,0.969822883605957,0.2745421826839447,0.5554105043411255,-1.1040217876434326,0.895555853843689,0.6789088249206543,0.67711341381073,-0.3419789969921112,0.9482781887054443,0.3186286985874176,0.5662692785263062,-1.2137857675552368,0.8711406588554382,0.6673812866210938,0.6763927340507507,-0.43423137068748474,0.95345538854599,0.32437971234321594,0.5375269055366516,-1.2724264860153198,0.8766582608222961,0.6567371487617493,0.6666760444641113,-0.30296027660369873,0.9548804759979248,0.31075766682624817,0.5327509641647339,-1.134303331375122,0.8598470091819763,0.4973221719264984,0.6287842988967896,0.0760698989033699,0.9967503547668457,0.3232806921005249,0.6480751633644104,-0.07562877237796783,0.9972122311592102,0.49421223998069763,0.8316083550453186,0.27903154492378235,0.9669623374938965,0.35078075528144836,0.8636804819107056,0.08854849636554718,0.975038468837738,0.4919668436050415,0.9666905999183655,1.01384437084198,0.9056441783905029,0.3679696023464203,0.9921137094497681,0.6802387237548828,0.9117730259895325,0.4734370708465576,0.9750904440879822,1.067386507987976,0.816478431224823,0.366383820772171,0.9911634922027588,0.7244484424591064,0.6849259734153748,0.5407443046569824,1.0254240036010742,0.775170624256134,0.8500967025756836,0.4035681486129761,1.0837059020996094,0.34268975257873535,0.8005728721618652
18335.44543385428,0.4482397139072418,0.23719561100006104,-0.9133388996124268,0.9999749660491943,0.4582216441631317,0.21342480182647705,-0.8586335182189941,0.9999496936798096,0.46675947308540344,0.21276676654815674,-0.8587581515312195,0.9999443292617798,0.47464942932128906,0.21235114336013794,-0.8588478565216064,0.9999366998672485,0.42534422874450684,0.2136068344116211,-0.8927191495895386,0.9999551773071289,0.40758368372917175,0.21319013833999634,-0.8928083181381226,0.9999525547027588,0.38818231225013733,0.2130453884601593,-0.8928961753845215,0.999946117401123,0.4661121368408203,0.21805265545845032,-0.5021732449531555,0.9999454021453857,0.3345186114311218,0.2201332151889801,-0.6684762239456177,0.9999593496322632,0.45383593440055847,0.2600339949131012,-0.7757570743560791,0.9999834299087524,0.4185531437397003,0.26151975989341736,-0.8229081630706787,0.9999878406524658,0.5383061170578003,0.3456292450428009,-0.2604946792125702,0.9998998641967773,0.1859411746263504,0.36117053031921387,-0.5029606819152832,0.9997087121009827,0.5920633673667908,0.5040665864944458,0.002444551093503833,0.9756810665130615,0.16029386222362518,0.5090272426605225,-0.6607062220573425,0.9561316967010498,0.6538607478141785,0.6360764503479004,-0.21383193135261536,0.9692996740341187,0.2685566842556,0.5548096895217896,-1.1086242198944092,0.8930995464324951,0.6769729256629944,0.6781772375106812,-0.2924455404281616,0.947461724281311,0.3146529495716095,0.5643790364265442,-1.2194514274597168,0.8716838955879211,0.6630908846855164,0.6773589849472046,-0.38299861550331116,0.9524151682853699,0.3216328024864197,0.5351337194442749,-1.277665138244629,0.8773821592330933,0.6517040729522705,0.6679269075393677,-0.25320711731910706,0.9538835287094116,0.3078322410583496,0.5306130051612854,-1.138787865638733,0.8609228134155273,0.49921107292175293,0.6321160197257996,0.07670053839683533,0.9968293309211731,0.3226246237754822,0.6508290767669678,-0.07616914808750153,0.9973610043525696,0.492448091506958,0.8364615440368652,0.2521675229072571,0.9555482268333435,0.34654945135116577,0.8702632188796997,0.07065228372812271,0.9656702876091003,0.49114102125167847,0.9627906084060669,1.0206642150878906,0.8631163835525513,0.3610212504863739,0.9945238828659058,0.6799328327178955,0.8750078082084656,0.47113725543022156,0.9727017879486084,1.0792155265808105,0.7839015126228333,0.3678841292858124,1.018519639968872,0.7271597981452942,0.6229124665260315,0.556279182434082,1.0357639789581299,0.7963728308677673,0.7879296541213989,0.3912578225135803,1.0895702838897705,0.34478992223739624,0.724038302898407
18352.112100520946,0.452471524477005,0.23580795526504517,-0.9223301410675049,0.99997878074646,0.45978838205337524,0.21272388100624084,-0.868239164352417,0.9999570846557617,0.46777036786079407,0.2118987739086151,-0.8683369159698486,0.9999531507492065,0.4748440384864807,0.21150270104408264,-0.8684001564979553,0.999945878982544,0.4292644262313843,0.21297559142112732,-0.9050857424736023,0.9999634027481079,0.41268330812454224,0.21247830986976624,-0.9051926136016846,0.9999617338180542,0.39299193024635315,0.2124202847480774,-0.9052739143371582,0.9999556541442871,0.4640514850616455,0.21748390793800354,-0.5232177376747131,0.999953031539917,0.33783501386642456,0.21992197632789612,-0.7015727162361145,0.9999651908874512,0.4569768011569977,0.25864988565444946,-0.7898188233375549,0.999984622001648,0.4246220290660858,0.2605469226837158,-0.8403817415237427,0.9999885559082031,0.538264811038971,0.34589684009552,-0.2939072251319885,0.9998865127563477,0.18367424607276917,0.36391815543174744,-0.549251914024353,0.9997124075889587,0.5942806005477905,0.5038608312606812,-0.045764923095703125,0.9758145213127136,0.1683964729309082,0.5154023170471191,-0.7142806053161621,0.9634408354759216,0.6537039279937744,0.6341968178749084,-0.25682127475738525,0.9710638523101807,0.27219071984291077,0.5558554530143738,-1.1454331874847412,0.9169864654541016,0.6771295666694641,0.6765958666801453,-0.3314213156700134,0.9491461515426636,0.316498339176178,0.5627036094665527,-1.2538255453109741,0.8967263698577881,0.6657507419586182,0.676498532295227,-0.42100781202316284,0.9541204571723938,0.3140721321105957,0.5319854617118835,-1.3091635704040527,0.9012031555175781,0.6545288562774658,0.6670801639556885,-0.2959740459918976,0.9560524821281433,0.3058825135231018,0.5285047292709351,-1.174500823020935,0.8865602016448975,0.4998050630092621,0.6277322173118591,0.080455482006073,0.9961537718772888,0.3221088647842407,0.6488212943077087,-0.07993753999471664,0.9971230626106262,0.49355626106262207,0.8330274820327759,0.27982965111732483,0.9563759565353394,0.3489586412906647,0.8668436408042908,0.07091095298528671,0.9718186259269714,0.4920721650123596,0.9613274335861206,1.0097832679748535,0.8717494606971741,0.3640155792236328,0.9931567311286926,0.6502969264984131,0.8950977325439453,0.471940279006958,0.9713727235794067,1.0640181303024292,0.8058227896690369,0.3627500534057617,0.9904128313064575,0.6941159963607788,0.6607767939567566,0.5494706034660339,1.0229078531265259,0.7914234399795532,0.8056150674819946,0.39131081104278564,1.0860997438430786,0.3202179968357086,0.7561623454093933
18368.778767187614,0.4495536983013153,0.23669537901878357,-0.9078294634819031,0.9999750852584839,0.4570353627204895,0.2132633626461029,-0.8530983328819275,0.9999485015869141,0.46552276611328125,0.21230053901672363,-0.8532059192657471,0.9999449253082275,0.4730583131313324,0.21171560883522034,-0.8532708883285522,0.9999352693557739,0.42533597350120544,0.21403160691261292,-0.8889578580856323,0.9999558925628662,0.40808743238449097,0.21376749873161316,-0.8890796303749084,0.999955415725708,0.3893626928329468,0.21394342184066772,-0.8891727924346924,0.999948263168335,0.46350979804992676,0.21806326508522034,-0.5040572881698608,0.9999476671218872,0.3366656005382538,0.22183901071548462,-0.6758065819740295,0.9999607801437378,0.45560067892074585,0.2591629922389984,-0.7736758589744568,0.9999827146530151,0.4216573238372803,0.2614992558956146,-0.8223382830619812,0.9999868869781494,0.5369991064071655,0.34488019347190857,-0.2629426419734955,0.9998823404312134,0.18368197977542877,0.36590123176574707,-0.5293999314308167,0.9996969699859619,0.5931859612464905,0.5037989616394043,-0.0009627424296922982,0.973526120185852,0.17173480987548828,0.5177178978919983,-0.7112855911254883,0.9631897211074829,0.6540892720222473,0.6354551911354065,-0.20338551700115204,0.9653174877166748,0.27441856265068054,0.5523581504821777,-1.1665514707565308,0.912835955619812,0.6780426502227783,0.6771692037582397,-0.27380281686782837,0.9409143328666687,0.321552038192749,0.5589905977249146,-1.2765167951583862,0.8924872279167175,0.6658284664154053,0.6763777136802673,-0.3615851104259491,0.9465309977531433,0.3232983946800232,0.528520941734314,-1.3306057453155518,0.8968547582626343,0.6543601155281067,0.6671452522277832,-0.24135203659534454,0.9491859078407288,0.30892735719680786,0.5237717628479004,-1.1953480243682861,0.8801570534706116,0.4989260733127594,0.6316441297531128,0.08156493306159973,0.9965745210647583,0.32368719577789307,0.6528030037879944,-0.08105982095003128,0.9973055124282837,0.4922006130218506,0.8347076177597046,0.25588372349739075,0.9577308297157288,0.34952953457832336,0.8673791885375977,0.06034626439213753,0.969034731388092,0.4922123849391937,0.9655914306640625,0.9974381327629089,0.8797067999839783,0.3618710935115814,0.9939493536949158,0.6496114134788513,0.8877109289169312,0.47167325019836426,0.9744175672531128,1.0527724027633667,0.80472731590271,0.35943105816841125,0.9932078123092651,0.6942869424819946,0.6424460411071777,0.5598814487457275,1.0362906455993652,0.7709866762161255,0.8136538863182068,0.3957897126674652,1.0924073457717896,0.3137475848197937,0.7481648325920105
18385.445433854282,0.44869160652160645,0.22975748777389526,-0.9401727914810181,0.9999809265136719,0.4546898901462555,0.20759519934654236,-0.8777074217796326,0.999963641166687,0.4633569121360779,0.20705431699752808,-0.8778085112571716,0.9999597072601318,0.4713776111602783,0.206416517496109,-0.8777960538864136,0.999951958656311,0.4218280613422394,0.20768308639526367,-0.9135197997093201,0.9999679327011108,0.4036833941936493,0.2074011266231537,-0.9136188626289368,0.9999673366546631,0.3854573369026184,0.20735383033752441,-0.9137133359909058,0.9999622106552124,0.46446287631988525,0.2136363685131073,-0.5170170068740845,0.9999599456787109,0.33594784140586853,0.21734899282455444,-0.6880761981010437,0.9999716281890869,0.4565863311290741,0.2530365586280823,-0.8059398531913757,0.9999878406524658,0.4216126501560211,0.25469350814819336,-0.8542261719703674,0.9999909400939941,0.539972722530365,0.34677109122276306,-0.2752842605113983,0.9998979568481445,0.18703748285770416,0.3654821813106537,-0.5607083439826965,0.9997602105140686,0.5906301736831665,0.5058442950248718,-0.01755177602171898,0.9720236659049988,0.17211702466011047,0.5211973786354065,-0.7795153260231018,0.9729722738265991,0.652256965637207,0.634641170501709,-0.25143304467201233,0.9715814590454102,0.2750847637653351,0.5540730953216553,-1.2929959297180176,0.9482110738754272,0.6757280826568604,0.6776651740074158,-0.3285083770751953,0.9516924023628235,0.31904149055480957,0.5608225464820862,-1.4179890155792236,0.9321990013122559,0.6642081141471863,0.6774651408195496,-0.42034846544265747,0.9563401937484741,0.3207133412361145,0.529352605342865,-1.4722819328308105,0.9350173473358154,0.6533820033073425,0.6682564616203308,-0.2922261357307434,0.958544909954071,0.30741363763809204,0.5259695649147034,-1.3235983848571777,0.9218605160713196,0.4998347759246826,0.6303914785385132,0.10228698700666428,0.9982479810714722,0.3266027867794037,0.6520484089851379,-0.101875901222229,0.9985014200210571,0.491476446390152,0.8358266353607178,0.3153155446052551,0.9523749351501465,0.3487608730792999,0.8634222745895386,0.08946231007575989,0.9731379747390747,0.4873355031013489,0.9612648487091064,1.1332635879516602,0.8809726238250732,0.36157748103141785,0.9852889180183411,0.7549868226051331,0.9010878801345825,0.4657421112060547,0.9723127484321594,1.1954039335250854,0.8249452710151672,0.3592725694179535,0.9851181507110596,0.8078272342681885,0.6970292925834656,0.5556890964508057,1.0271533727645874,0.9109381437301636,0.8290674686431885,0.4016103148460388,1.0756161212921143,0.42941737174987793,0.783888578414917
18402.11210052095,0.4492124319076538,0.23046338558197021,-0.9499236941337585,0.999984622001648,0.4552775025367737,0.20849275588989258,-0.8892881274223328,0.999969482421875,0.4639599323272705,0.20790830254554749,-0.889347493648529,0.9999654293060303,0.471843957901001,0.20717200636863708,-0.8893043398857117,0.9999587535858154,0.4226745367050171,0.2087027132511139,-0.9246919751167297,0.9999736547470093,0.404794842004776,0.20842349529266357,-0.9247514605522156,0.9999725818634033,0.3861214816570282,0.20838767290115356,-0.9248160123825073,0.9999681711196899,0.464341402053833,0.2140704095363617,-0.5372701287269592,0.9999628067016602,0.33607375621795654,0.2179027497768402,-0.7082418203353882,0.9999756813049316,0.4567857086658478,0.25359997153282166,-0.8189659118652344,0.9999896287918091,0.42223498225212097,0.25543472170829773,-0.8671836853027344,0.9999927282333374,0.5386311411857605,0.3454724848270416,-0.3033210337162018,0.9999023675918579,0.1861683428287506,0.3645494878292084,-0.5809723734855652,0.9998015761375427,0.5919443368911743,0.5060478448867798,-0.054812878370285034,0.9722456336021423,0.1698739379644394,0.5166836977005005,-0.7714937925338745,0.9733302593231201,0.6518310904502869,0.6345870494842529,-0.2890835404396057,0.9722175598144531,0.2788811922073364,0.554861843585968,-1.2366845607757568,0.9441952109336853,0.6754293441772461,0.677791178226471,-0.3679167330265045,0.9526870846748352,0.32488876581192017,0.5649393796920776,-1.3559635877609253,0.9275676012039185,0.6628967523574829,0.6773319840431213,-0.45955029129981995,0.9572041630744934,0.32995229959487915,0.5339183807373047,-1.4118964672088623,0.9305305480957031,0.6515650749206543,0.6680324673652649,-0.3301245868206024,0.9593192338943481,0.3157423734664917,0.5289801359176636,-1.2668566703796387,0.917511522769928,0.4988458454608917,0.6278154850006104,0.10219021141529083,0.9984435439109802,0.3256523609161377,0.6490421891212463,-0.1018119752407074,0.9987185001373291,0.49367451667785645,0.8274839520454407,0.34384146332740784,0.957503080368042,0.34550052881240845,0.8551979660987854,0.10805179178714752,0.980761706829071,0.4845426082611084,0.9545014500617981,1.1273956298828125,0.9053516387939453,0.35598519444465637,0.9803056716918945,0.7539646625518799,0.9310343265533447,0.46170735359191895,0.9666550159454346,1.1863242387771606,0.8612958192825317,0.35125532746315,0.9822306036949158,0.8049837350845337,0.761746346950531,0.5468217134475708,1.0152121782302856,0.913306474685669,0.8636194467544556,0.39136165380477905,1.0644656419754028,0.44083163142204285,0.836869478225708
18418.778767187618,0.4494616389274597,0.2324446737766266,-0.947363018989563,0.9999817609786987,0.4571065902709961,0.2105896770954132,-0.8878640532493591,0.9999644756317139,0.46571531891822815,0.2102990746498108,-0.8879442811012268,0.9999604225158691,0.473285436630249,0.21011996269226074,-0.8879309296607971,0.9999538660049438,0.4249998927116394,0.21012303233146667,-0.9243480563163757,0.9999691247940063,0.407360702753067,0.20964914560317993,-0.9244176745414734,0.9999676942825317,0.38835689425468445,0.20973223447799683,-0.9245017170906067,0.999962329864502,0.46440908312797546,0.21674585342407227,-0.5352437496185303,0.9999592304229736,0.33712461590766907,0.21872252225875854,-0.7110956311225891,0.9999712705612183,0.45532122254371643,0.25608155131340027,-0.8153024315834045,0.9999879598617554,0.42137467861175537,0.25702008605003357,-0.864975094795227,0.9999911785125732,0.5394882559776306,0.3465639650821686,-0.30113130807876587,0.9998892545700073,0.18971513211727142,0.36522209644317627,-0.5767991542816162,0.9997188448905945,0.5923055410385132,0.5046571493148804,-0.03959232568740845,0.9723518490791321,0.1692369133234024,0.5170985460281372,-0.754759669303894,0.96717369556427,0.6517930030822754,0.6346381306648254,-0.2529880702495575,0.9702361226081848,0.28369665145874023,0.5588867664337158,-1.203979253768921,0.9229075908660889,0.6753166317939758,0.6765055060386658,-0.3291759788990021,0.9495602250099182,0.3288925886154175,0.5665576457977295,-1.3194425106048584,0.9035457372665405,0.6627234220504761,0.6761783361434937,-0.4201948940753937,0.9544728398323059,0.33141079545021057,0.5354529023170471,-1.3783916234970093,0.9078060388565063,0.6512433290481567,0.6669180989265442,-0.2931675612926483,0.9570122957229614,0.3169981837272644,0.531503438949585,-1.2350574731826782,0.8936886787414551,0.5009114742279053,0.6305877566337585,0.09489419311285019,0.9979283809661865,0.3280211091041565,0.6523786187171936,-0.09444427490234375,0.9982153177261353,0.4934213161468506,0.8305423855781555,0.32877933979034424,0.9602758884429932,0.3452478349208832,0.8629873394966125,0.1038685068488121,0.9776207804679871,0.48584482073783875,0.9571877717971802,1.0977203845977783,0.9038357734680176,0.35692811012268066,0.986212968826294,0.7313342094421387,0.9192451238632202,0.4626120924949646,0.9678804874420166,1.1551982164382935,0.8500613570213318,0.35318320989608765,0.9871501922607422,0.7802522778511047,0.7256661057472229,0.5404170751571655,1.020757794380188,0.8757110238075256,0.8537225723266602,0.39146456122398376,1.0747594833374023,0.4077013432979584,0.8087732195854187
18435.445433854286,0.45195522904396057,0.232176274061203,-0.9706313610076904,0.9999818801879883,0.4582293629646301,0.20975062251091003,-0.9108765125274658,0.9999648332595825,0.4665391445159912,0.20929434895515442,-0.9109607338905334,0.9999600648880005,0.47388753294944763,0.20872405171394348,-0.9109476804733276,0.9999525547027588,0.42635977268218994,0.209659606218338,-0.9468780159950256,0.9999703168869019,0.40913859009742737,0.20912498235702515,-0.9469559192657471,0.9999688863754272,0.3899114727973938,0.2089288830757141,-0.9470219016075134,0.9999643564224243,0.46449896693229675,0.21483606100082397,-0.5568227767944336,0.9999563694000244,0.3385021686553955,0.2175736427307129,-0.7296269536018372,0.9999736547470093,0.4583718776702881,0.2550599277019501,-0.8379724025726318,0.9999876022338867,0.42532122135162354,0.25660234689712524,-0.8866752982139587,0.9999916553497314,0.539794921875,0.3458330035209656,-0.31367769837379456,0.9998855590820312,0.1873732954263687,0.3659698963165283,-0.5977709293365479,0.9997913241386414,0.5915037393569946,0.5054194927215576,-0.06665277481079102,0.9700061082839966,0.16704893112182617,0.5200451016426086,-0.7821254730224609,0.97788006067276,0.6511715650558472,0.6340872049331665,-0.31073662638664246,0.9706214070320129,0.2835007607936859,0.5548549890518188,-1.2378766536712646,0.9519771933555603,0.6752922534942627,0.677314281463623,-0.39193499088287354,0.9496155977249146,0.3276567757129669,0.5616681575775146,-1.3576711416244507,0.9341984391212463,0.6632027626037598,0.6772686243057251,-0.48318445682525635,0.9541947841644287,0.32924073934555054,0.5310174822807312,-1.4099557399749756,0.9364644885063171,0.6517166495323181,0.6680063605308533,-0.352004736661911,0.9562264084815979,0.3157048225402832,0.5275294184684753,-1.2662030458450317,0.923692524433136,0.49952229857444763,0.6304989457130432,0.10605302453041077,0.9980862140655518,0.3285498023033142,0.6520779132843018,-0.10569144785404205,0.9984820485115051,0.49350300431251526,0.83319091796875,0.3915698826313019,0.9522135257720947,0.3479410409927368,0.863368034362793,0.13327208161354065,0.9802062511444092,0.487123042345047,0.9592136144638062,1.1711387634277344,0.8927578330039978,0.3563207983970642,0.9849451184272766,0.7802540063858032,0.9225518703460693,0.4639062285423279,0.9711748957633972,1.230009913444519,0.8502819538116455,0.35175925493240356,0.9857630133628845,0.8317174315452576,0.7451484203338623,0.5510096549987793,1.0185558795928955,0.9578282237052917,0.8499204516410828,0.39736640453338623,1.0712783336639404,0.46402424573898315,0.8189477324485779
18452.112100520953,0.44851040840148926,0.22997215390205383,-0.9571436643600464,0.999982476234436,0.45442575216293335,0.20773932337760925,-0.8987199068069458,0.9999659061431885,0.4631214141845703,0.20708927512168884,-0.898796558380127,0.9999617338180542,0.4710291922092438,0.20632338523864746,-0.8987997174263,0.9999551773071289,0.42180413007736206,0.20786511898040771,-0.9329652190208435,0.9999707937240601,0.4037972390651703,0.2075015902519226,-0.9330325126647949,0.9999693632125854,0.38568004965782166,0.20735043287277222,-0.9330950379371643,0.999964714050293,0.46335792541503906,0.2131345570087433,-0.5494032502174377,0.9999586343765259,0.3363407254219055,0.21671172976493835,-0.7147710919380188,0.9999740123748779,0.45662689208984375,0.25314176082611084,-0.8262292146682739,0.999988317489624,0.4220154285430908,0.2545835077762604,-0.8728153705596924,0.9999918937683105,0.5381048321723938,0.34513506293296814,-0.3090663254261017,0.9998956918716431,0.18884862959384918,0.36281710863113403,-0.5809628367424011,0.9997939467430115,0.5914544463157654,0.5038410425186157,-0.05422969162464142,0.971476674079895,0.1634824573993683,0.5157366394996643,-0.7565446496009827,0.9749652743339539,0.6506454944610596,0.6322510838508606,-0.27974507212638855,0.9710516929626465,0.2795356512069702,0.5556055307388306,-1.2064050436019897,0.9431893229484558,0.6753193736076355,0.6752842664718628,-0.35808008909225464,0.9503747224807739,0.3247995674610138,0.563231885433197,-1.3237078189849854,0.9244729280471802,0.6643315553665161,0.6754046082496643,-0.44930657744407654,0.9550489187240601,0.3290124535560608,0.5345641374588013,-1.3796238899230957,0.9274427890777588,0.6530147790908813,0.6661249399185181,-0.3204754889011383,0.9571608901023865,0.31481242179870605,0.5301153063774109,-1.2363941669464111,0.9148905873298645,0.49828213453292847,0.6268359422683716,0.10162077844142914,0.9980691075325012,0.3266848027706146,0.6483058929443359,-0.10125870257616043,0.9984204769134521,0.49134695529937744,0.8324663639068604,0.3674275279045105,0.9504027366638184,0.3481709063053131,0.8601298928260803,0.11900441348552704,0.9778319597244263,0.4868781864643097,0.9581831097602844,1.1184306144714355,0.8844200968742371,0.35634973645210266,0.9843198657035828,0.7428435683250427,0.9113662838935852,0.463981032371521,0.9705239534378052,1.174272894859314,0.8294504284858704,0.35184407234191895,0.9854269623756409,0.7918470501899719,0.7148814797401428,0.5482492446899414,1.0190359354019165,0.8981173634529114,0.8331834077835083,0.3959987461566925,1.0704290866851807,0.42451977729797363,0.7967538833618164
18468.77876718762,0.450071781873703,0.2312292456626892,-0.965188205242157,0.9999823570251465,0.4576302468776703,0.20917251706123352,-0.905502200126648,0.9999656677246094,0.466230183839798,0.20887935161590576,-0.9055719971656799,0.9999611377716064,0.47394028306007385,0.2085278034210205,-0.9055391550064087,0.999954342842102,0.4246704578399658,0.2087317705154419,-0.9438344240188599,0.9999706745147705,0.40717971324920654,0.20817619562149048,-0.9439091682434082,0.999969482421875,0.38804784417152405,0.2079816460609436,-0.9439877867698669,0.999964714050293,0.4652232527732849,0.21509388089179993,-0.5511354804039001,0.9999591112136841,0.3373185396194458,0.21700844168663025,-0.7353227734565735,0.9999736547470093,0.45607876777648926,0.25463175773620605,-0.832207977771759,0.9999880790710449,0.42214423418045044,0.2559199631214142,-0.8842829465866089,0.9999916553497314,0.5383950471878052,0.3464270234107971,-0.31478211283683777,0.9998937845230103,0.18370868265628815,0.3659854233264923,-0.5970805883407593,0.9997479319572449,0.592334508895874,0.5047284960746765,-0.053168874233961105,0.9730653762817383,0.16592121124267578,0.5207375884056091,-0.7774485349655151,0.9720457196235657,0.650282621383667,0.6325423717498779,-0.2816956043243408,0.9723276495933533,0.2814454138278961,0.5583406686782837,-1.2379578351974487,0.938467800617218,0.6741839647293091,0.675733745098114,-0.36093002557754517,0.952239990234375,0.3281056582927704,0.5649670362472534,-1.356595516204834,0.9208078980445862,0.661594569683075,0.6755775809288025,-0.45239412784576416,0.9569576978683472,0.32852011919021606,0.5346386432647705,-1.415693759918213,0.9245058298110962,0.6494655609130859,0.6659318208694458,-0.32246842980384827,0.9592139720916748,0.31383979320526123,0.5310582518577576,-1.269079327583313,0.9113784432411194,0.49934929609298706,0.6299488544464111,0.09420546144247055,0.998274564743042,0.3263890743255615,0.6516444683074951,-0.09378267079591751,0.9985235333442688,0.4942578375339508,0.8277432322502136,0.33144059777259827,0.9620746374130249,0.34366893768310547,0.8583446741104126,0.1182001605629921,0.9783962368965149,0.48700639605522156,0.9578432440757751,1.1196413040161133,0.9100885391235352,0.35389912128448486,0.9845684766769409,0.7673168778419495,0.9252657294273376,0.4629126489162445,0.96886146068573,1.1787986755371094,0.8606466054916382,0.35151997208595276,0.985153079032898,0.8184204697608948,0.7461700439453125,0.5417734384536743,1.0205854177474976,0.8977546691894531,0.8617788553237915,0.386023610830307,1.0704362392425537,0.44799843430519104,0.8213644027709961
18485.44543385429,0.4498380720615387,0.23055753111839294,-1.0037825107574463,0.9999850988388062,0.4558606445789337,0.2082594931125641,-0.942907452583313,0.9999706745147705,0.4644620716571808,0.2077348530292511,-0.9429783225059509,0.9999667406082153,0.47222480177879333,0.20711281895637512,-0.9429340362548828,0.9999605417251587,0.42321836948394775,0.2084294855594635,-0.9780364632606506,0.9999747276306152,0.40520328283309937,0.20811143517494202,-0.9781068563461304,0.9999732971191406,0.386663019657135,0.20802882313728333,-0.9781635403633118,0.9999687671661377,0.46455904841423035,0.21373406052589417,-0.582176923751831,0.9999635219573975,0.33630335330963135,0.21732810139656067,-0.7516525387763977,0.9999762773513794,0.4576135575771332,0.2535679340362549,-0.869182288646698,0.9999892711639404,0.4232024550437927,0.25533345341682434,-0.9169539213180542,0.9999923706054688,0.5398485660552979,0.3464948534965515,-0.33521518111228943,0.9998949766159058,0.1871807873249054,0.3648756742477417,-0.6161125302314758,0.9997847676277161,0.5914722084999084,0.5048167705535889,-0.08249296993017197,0.9719296097755432,0.16946935653686523,0.5187695026397705,-0.8006199598312378,0.9753503799438477,0.6509722471237183,0.6344195604324341,-0.32088086009025574,0.972706139087677,0.2827622890472412,0.5572423934936523,-1.2656058073043823,0.9439054727554321,0.674797534942627,0.677305281162262,-0.40132835507392883,0.9525366425514221,0.3294055461883545,0.5643671751022339,-1.3876572847366333,0.9252889752388,0.6630694270133972,0.6770407557487488,-0.49428755044937134,0.9569464325904846,0.3319217562675476,0.5350332856178284,-1.4441951513290405,0.9283159375190735,0.6512836813926697,0.6675660014152527,-0.36248978972435,0.9588125944137573,0.3165590763092041,0.5305598378181458,-1.2963428497314453,0.9153207540512085,0.49963003396987915,0.6292067766189575,0.10243581980466843,0.9983614087104797,0.3278329372406006,0.6513343453407288,-0.1020519956946373,0.9986832737922668,0.4963192641735077,0.825048565864563,0.4065491855144501,0.9592306017875671,0.34680038690567017,0.8577677011489868,0.15424229204654694,0.9826689958572388,0.48684316873550415,0.9547584652900696,1.1918085813522339,0.9128776788711548,0.35583218932151794,0.9843593835830688,0.8107143640518188,0.9364231824874878,0.4619123935699463,0.9670499563217163,1.2510281801223755,0.8752143979072571,0.3527689278125763,0.9858912825584412,0.8628236651420593,0.7745397090911865,0.5492308735847473,1.0132495164871216,0.9755463004112244,0.8768553137779236,0.3944585621356964,1.0663529634475708,0.4945954382419586,0.8465020656585693
18502.112100520957,0.45004770159721375,0.23237544298171997,-0.9681594371795654,0.9999815225601196,0.45758622884750366,0.2102297842502594,-0.9081847667694092,0.9999644756317139,0.4659078121185303,0.20994699001312256,-0.9082627296447754,0.9999600648880005,0.4732678532600403,0.20973286032676697,-0.9082521200180054,0.9999527931213379,0.4253326654434204,0.20966953039169312,-0.9478473663330078,0.9999697208404541,0.4079791009426117,0.20901021361351013,-0.9479494690895081,0.9999687671661377,0.38874346017837524,0.20872625708580017,-0.9480118155479431,0.999963641166687,0.4640161991119385,0.2163189947605133,-0.5555692911148071,0.9999575614929199,0.3369010388851166,0.21741971373558044,-0.7446633577346802,0.9999716281890869,0.4556354582309723,0.2557627856731415,-0.8357670307159424,0.9999874830245972,0.42232799530029297,0.2569781243801117,-0.8892349600791931,0.9999910593032837,0.5372926592826843,0.34672775864601135,-0.3215213418006897,0.9998818635940552,0.17960815131664276,0.36785265803337097,-0.6140148639678955,0.9997518658638,0.5920637249946594,0.506715714931488,-0.07675100117921829,0.9708718061447144,0.1712454855442047,0.5274357199668884,-0.7837764620780945,0.9729778170585632,0.6521076560020447,0.6360306739807129,-0.3186238408088684,0.9695169925689697,0.28413063287734985,0.5566277503967285,-1.2147424221038818,0.9450718760490417,0.6760958433151245,0.6779784560203552,-0.3988892734050751,0.9468082189559937,0.32973212003707886,0.5607324242591858,-1.3308709859848022,0.9275294542312622,0.6647239327430725,0.6776013970375061,-0.4888225793838501,0.951802670955658,0.32766109704971313,0.5303047299385071,-1.3844621181488037,0.9301121234893799,0.6533721685409546,0.668359637260437,-0.359321266412735,0.9539871215820312,0.3131226897239685,0.5261664390563965,-1.2429555654525757,0.9150975942611694,0.5003541707992554,0.6305153965950012,0.1031794473528862,0.9980531930923462,0.3292127251625061,0.6538048386573792,-0.10284920781850815,0.9984081387519836,0.4923494756221771,0.8347602486610413,0.3721243143081665,0.9500302076339722,0.3487207889556885,0.8630720973014832,0.12922029197216034,0.9768164753913879,0.4876038432121277,0.9595587849617004,1.1716842651367188,0.8845250010490417,0.35887497663497925,0.9848220348358154,0.7926854491233826,0.9170067310333252,0.4647196829319,0.9716211557388306,1.2332203388214111,0.8435248732566833,0.35413071513175964,0.9859491586685181,0.8457992076873779,0.7341471910476685,0.549888014793396,1.0174705982208252,0.9648469686508179,0.8454475402832031,0.4007336497306824,1.0720826387405396,0.4808959364891052,0.8143397569656372
18518.778767187625,0.4518016576766968,0.2323758602142334,-0.958965003490448,0.9999827146530151,0.4586728811264038,0.21014660596847534,-0.8997591137886047,0.9999668598175049,0.4667389988899231,0.20984172821044922,-0.8998512625694275,0.9999635219573975,0.47386735677719116,0.20952379703521729,-0.8998821377754211,0.9999573230743408,0.4272317886352539,0.2097439467906952,-0.9392476081848145,0.9999706745147705,0.4101278483867645,0.2091226577758789,-0.93935626745224,0.9999697208404541,0.3907589316368103,0.20888423919677734,-0.939420223236084,0.9999649524688721,0.4634328782558441,0.21593645215034485,-0.5489597916603088,0.9999628067016602,0.3378879725933075,0.2178283929824829,-0.7372393012046814,0.9999719858169556,0.4568280577659607,0.25559160113334656,-0.8266865611076355,0.9999886751174927,0.4239904582500458,0.25694289803504944,-0.8800339102745056,0.9999914169311523,0.538429856300354,0.34723126888275146,-0.3205302953720093,0.9998987913131714,0.18219304084777832,0.36700576543807983,-0.5973712801933289,0.9997254014015198,0.5931748151779175,0.507487416267395,-0.07679048925638199,0.9725937843322754,0.17064398527145386,0.5267500877380371,-0.7654566764831543,0.9697248935699463,0.6522514820098877,0.6361830830574036,-0.3176913559436798,0.9692897796630859,0.2857331335544586,0.5557611584663391,-1.2039439678192139,0.9391185641288757,0.6764164566993713,0.6774759292602539,-0.39798596501350403,0.9467057585716248,0.33104392886161804,0.5596368908882141,-1.3202993869781494,0.9209269881248474,0.6644769310951233,0.6770446300506592,-0.4882837235927582,0.9518635869026184,0.3291955888271332,0.5287131667137146,-1.3727282285690308,0.9238620400428772,0.6531609296798706,0.6680487990379333,-0.3582671880722046,0.95389324426651,0.3152254819869995,0.5259160995483398,-1.2319916486740112,0.9079192280769348,0.5023573637008667,0.6294552683830261,0.09076356142759323,0.9979467988014221,0.329628586769104,0.6523004770278931,-0.09040966629981995,0.9981684684753418,0.49297860264778137,0.8339613080024719,0.31692302227020264,0.9525313377380371,0.348595529794693,0.8666124939918518,0.10908599942922592,0.9727364778518677,0.4882573187351227,0.9599252343177795,1.1228299140930176,0.8811026215553284,0.36162883043289185,0.984128475189209,0.7708393335342407,0.9063848257064819,0.4660243093967438,0.9716235399246216,1.184672236442566,0.823452353477478,0.35961204767227173,0.9846522808074951,0.8238214254379272,0.7031916975975037,0.5465433597564697,1.020235300064087,0.910186767578125,0.8350555896759033,0.4004810154438019,1.0743989944458008,0.4578858017921448,0.7987802624702454
18535.445433854293,0.4505968987941742,0.23014000058174133,-0.9112606048583984,0.9999709129333496,0.45679304003715515,0.20796120166778564,-0.8512298464775085,0.9999445676803589,0.4652639627456665,0.2073463797569275,-0.8513712882995605,0.9999403953552246,0.4728996753692627,0.2065696120262146,-0.851455569267273,0.9999326467514038,0.4237697124481201,0.20800936222076416,-0.8907120227813721,0.9999500513076782,0.40570271015167236,0.2075229287147522,-0.890813946723938,0.9999464750289917,0.38693511486053467,0.20725566148757935,-0.8909227252006531,0.9999366998672485,0.4642547369003296,0.2134844958782196,-0.4907194972038269,0.9999399185180664,0.3369557857513428,0.21648871898651123,-0.6802164316177368,0.9999525547027588,0.45772111415863037,0.2528775930404663,-0.774920642375946,0.9999810457229614,0.4227333962917328,0.25460323691368103,-0.8287044167518616,0.9999852180480957,0.536241352558136,0.34504246711730957,-0.2496376782655716,0.999864935874939,0.18456503748893738,0.3643244504928589,-0.5398271679878235,0.9996213912963867,0.5887971520423889,0.504199743270874,-0.0018354891799390316,0.9705143570899963,0.17134161293506622,0.5175198912620544,-0.6906453967094421,0.952176034450531,0.6511377096176147,0.6327361464500427,-0.24461999535560608,0.9653058052062988,0.2800861597061157,0.5568082332611084,-1.1165801286697388,0.8834676742553711,0.6752095222473145,0.6752586960792542,-0.3266284167766571,0.9419088363647461,0.32457536458969116,0.5652590394020081,-1.2287074327468872,0.8633418083190918,0.6633204817771912,0.6751999855041504,-0.4203604757785797,0.9478614330291748,0.3281955122947693,0.5347453355789185,-1.291685700416565,0.8695918917655945,0.6524401903152466,0.6660575866699219,-0.28686654567718506,0.9497608542442322,0.3135599195957184,0.5312471985816956,-1.1487889289855957,0.8515426516532898,0.500737726688385,0.6296929121017456,0.10296843945980072,0.9959810972213745,0.324455589056015,0.6515489220619202,-0.10245721787214279,0.9968183040618896,0.4954885244369507,0.8338887095451355,0.29310473799705505,0.9457893967628479,0.3484252989292145,0.8684045076370239,0.03927076980471611,0.9689369201660156,0.4931282699108124,0.9638506770133972,1.0286198854446411,0.855111837387085,0.3649275302886963,0.9955636262893677,0.6308092474937439,0.8852526545524597,0.47221556305885315,0.9755998253822327,1.0821422338485718,0.794315755367279,0.36430156230926514,1.0226582288742065,0.6741953492164612,0.6331467628479004,0.5539580583572388,1.022345781326294,0.795066237449646,0.792536199092865,0.40039539337158203,1.0905098915100098,0.2811172604560852,0.7436137199401855
18552.11210052096,0.4472053050994873,0.2314453125,-0.9877637624740601,0.9999786615371704,0.4534308910369873,0.20863720774650574,-0.9286462664604187,0.9999574422836304,0.46262288093566895,0.20776137709617615,-0.9287495613098145,0.9999525547027588,0.47083795070648193,0.20678216218948364,-0.9287822246551514,0.9999445676803589,0.41982030868530273,0.20918458700180054,-0.9625160098075867,0.999961256980896,0.4007701873779297,0.20893168449401855,-0.9626111388206482,0.9999591112136841,0.3823634684085846,0.2088964879512787,-0.9627076387405396,0.999953031539917,0.4646781086921692,0.21347171068191528,-0.5650405883789062,0.9999487400054932,0.33372142910957336,0.21788039803504944,-0.7290967702865601,0.9999639987945557,0.4560719430446625,0.25404059886932373,-0.8503120541572571,0.999985933303833,0.4203619062900543,0.2558601200580597,-0.8967286944389343,0.9999896287918091,0.5378661155700684,0.3454763889312744,-0.3118312656879425,0.9998912811279297,0.18787826597690582,0.3637031316757202,-0.577377438545227,0.9997276663780212,0.590046763420105,0.5063033103942871,-0.055558159947395325,0.9715980887413025,0.16651295125484467,0.5176436901092529,-0.7485799789428711,0.9675310254096985,0.6521576642990112,0.6359441876411438,-0.29620227217674255,0.9684435725212097,0.282299280166626,0.5552186369895935,-1.2139042615890503,0.9281914234161377,0.6755869388580322,0.6773104667663574,-0.3778221607208252,0.946498692035675,0.3249169886112213,0.561841607093811,-1.3333240747451782,0.9080595970153809,0.6636151075363159,0.6772793531417847,-0.47148820757865906,0.951654314994812,0.3282333016395569,0.5316088199615479,-1.3906091451644897,0.9119941592216492,0.6526666879653931,0.6680905222892761,-0.33787521719932556,0.9537374377250671,0.31490421295166016,0.5274643301963806,-1.2444299459457397,0.8971070051193237,0.500781238079071,0.6292611360549927,0.0950336679816246,0.9976997971534729,0.32488179206848145,0.6503110527992249,-0.09464655816555023,0.9979557991027832,0.49360933899879456,0.8332446217536926,0.30113184452056885,0.9527752995491028,0.34991857409477234,0.8668622970581055,0.08136995136737823,0.9733547568321228,0.4916912019252777,0.9645256996154785,1.0961177349090576,0.882673442363739,0.36307159066200256,0.9870933294296265,0.7338938117027283,0.9039286375045776,0.4721486568450928,0.975746750831604,1.1554406881332397,0.8166373372077942,0.36860981583595276,1.008714199066162,0.7847973108291626,0.6838377714157104,0.5503136515617371,1.0224970579147339,0.8619638681411743,0.8270333409309387,0.4007338285446167,1.0798718929290771,0.3984309434890747,0.7869579195976257
18568.77876718763,0.45092669129371643,0.23242539167404175,-0.883500874042511,0.9999758005142212,0.45893391966819763,0.21067041158676147,-0.8265694379806519,0.9999518394470215,0.4669322073459625,0.21047651767730713,-0.8266868591308594,0.9999480247497559,0.474175363779068,0.21038511395454407,-0.8267416954040527,0.9999411106109619,0.4267314076423645,0.2097121775150299,-0.8681148886680603,0.9999570846557617,0.41001594066619873,0.20889988541603088,-0.8682154417037964,0.9999549388885498,0.3909001350402832,0.2084624171257019,-0.8683152198791504,0.9999470710754395,0.4639468491077423,0.21650546789169312,-0.4775845408439636,0.9999467134475708,0.3390308916568756,0.21648675203323364,-0.6765408515930176,0.9999592304229736,0.45555058121681213,0.25563764572143555,-0.7502658367156982,0.9999839067459106,0.4214599132537842,0.25648000836372375,-0.8068104982376099,0.9999879598617554,0.5331761240959167,0.344708651304245,-0.23944421112537384,0.9999023675918579,0.18855369091033936,0.3632468283176422,-0.5412825345993042,0.9996936321258545,0.5875281095504761,0.5037575960159302,0.01029109675437212,0.9785854816436768,0.17074736952781677,0.5165523290634155,-0.7181525230407715,0.9651534557342529,0.6519089341163635,0.6339411735534668,-0.22586704790592194,0.9768078327178955,0.2852841019630432,0.5542263984680176,-1.15911865234375,0.9263638257980347,0.677234411239624,0.6762697696685791,-0.3056442141532898,0.958179235458374,0.3279935121536255,0.5615564584732056,-1.27314031124115,0.9075918197631836,0.6652059555053711,0.6762226223945618,-0.39788562059402466,0.962429404258728,0.33296307921409607,0.5326158404350281,-1.328478217124939,0.9111802577972412,0.6543369293212891,0.6674142479896545,-0.26695516705513,0.9633320569992065,0.3190796673297882,0.5274090766906738,-1.187799334526062,0.8942395448684692,0.49641895294189453,0.6319427490234375,0.10377843677997589,0.9970864653587341,0.3202391564846039,0.652682363986969,-0.10332928597927094,0.9974838495254517,0.4929503798484802,0.8386469483375549,0.27795520424842834,0.9586164355278015,0.35035958886146545,0.8737841844558716,0.03495289012789726,0.9738506078720093,0.4942152500152588,0.9675301909446716,1.0278507471084595,0.8824615478515625,0.36317721009254456,0.9940680861473083,0.6342442035675049,0.9028751254081726,0.4761541187763214,0.9765109419822693,1.0829780101776123,0.8170464634895325,0.3671388626098633,1.0209546089172363,0.6792294383049011,0.6641628742218018,0.5513160824775696,1.0284398794174194,0.7979595065116882,0.8206897377967834,0.40231600403785706,1.0909947156906128,0.29286348819732666,0.7766265273094177
18585.445433854296,0.4495171904563904,0.23072487115859985,-0.9119500517845154,0.9999804496765137,0.4559524953365326,0.20880091190338135,-0.8524200916290283,0.9999630451202393,0.4642733633518219,0.2083756923675537,-0.8525395393371582,0.9999604225158691,0.4717945158481598,0.20781514048576355,-0.8525840640068054,0.9999557733535767,0.42322149872779846,0.20843467116355896,-0.8907812237739563,0.9999659061431885,0.40575024485588074,0.20773416757583618,-0.8908683657646179,0.9999629259109497,0.38701504468917847,0.20726057887077332,-0.8909428119659424,0.9999560117721558,0.46207085251808167,0.2142714262008667,-0.5029319524765015,0.9999614953994751,0.3359091877937317,0.21575218439102173,-0.6874160170555115,0.9999635219573975,0.45516976714134216,0.25363171100616455,-0.7807142734527588,0.9999872446060181,0.420474648475647,0.25518107414245605,-0.8330827951431274,0.99998939037323,0.5349884629249573,0.34553951025009155,-0.29187142848968506,0.9998966455459595,0.1829579919576645,0.3651945888996124,-0.5439305305480957,0.9996215105056763,0.5900081396102905,0.5051651000976562,-0.06459002196788788,0.976852536201477,0.17092600464820862,0.5154826045036316,-0.7132385969161987,0.9511639475822449,0.652232825756073,0.636760950088501,-0.30213722586631775,0.971767246723175,0.2819194793701172,0.5551376938819885,-1.1550379991531372,0.8869497179985046,0.6755014061927795,0.6777690649032593,-0.384906530380249,0.9502424001693726,0.3269643187522888,0.5627255439758301,-1.2689863443374634,0.8654567003250122,0.662616491317749,0.6767780780792236,-0.4757314622402191,0.9551321864128113,0.3291417360305786,0.532444953918457,-1.327025055885315,0.8708884119987488,0.6512367725372314,0.6677542328834534,-0.3425929546356201,0.9566773176193237,0.3147469460964203,0.5289098024368286,-1.186087965965271,0.8527824878692627,0.49888715147972107,0.6293168067932129,0.0832613855600357,0.9968398809432983,0.3243215084075928,0.6504504680633545,-0.08279526978731155,0.9973371624946594,0.49320125579833984,0.8318169116973877,0.29660236835479736,0.9577834010124207,0.34864094853401184,0.8653486967086792,0.08807896077632904,0.9726238250732422,0.4915187656879425,0.9647039175033569,1.0381274223327637,0.8879919648170471,0.3640080988407135,0.9908813238143921,0.6895177364349365,0.9052189588546753,0.47218990325927734,0.974174439907074,1.0921624898910522,0.8179180026054382,0.3600248098373413,0.9892691373825073,0.7344091534614563,0.6802307963371277,0.5475577116012573,1.0219552516937256,0.8064482808113098,0.8327870965003967,0.39420464634895325,1.0802819728851318,0.35648033022880554,0.7861276865005493
18602.112100520964,0.45424386858940125,0.23405519127845764,-0.9180387258529663,0.9999682903289795,0.4585896134376526,0.21181431412696838,-0.8607579469680786,0.9999377727508545,0.46656110882759094,0.21077781915664673,-0.8608924746513367,0.9999315738677979,0.4739154577255249,0.20953524112701416,-0.8609973788261414,0.9999220371246338,0.42616719007492065,0.21226263046264648,-0.9014824032783508,0.9999457597732544,0.409178763628006,0.21132203936576843,-0.9016045928001404,0.9999423027038574,0.3900582790374756,0.2107839286327362,-0.9017345309257507,0.9999344348907471,0.46208199858665466,0.21583157777786255,-0.5058611035346985,0.9999295473098755,0.3383771479129791,0.21968519687652588,-0.7002481818199158,0.9999526739120483,0.46086764335632324,0.2555508315563202,-0.782023012638092,0.9999803304672241,0.4268483519554138,0.2580926716327667,-0.837312638759613,0.9999862909317017,0.5358688831329346,0.3477846384048462,-0.2588142454624176,0.9998643398284912,0.18199032545089722,0.36582157015800476,-0.559952974319458,0.9997090697288513,0.5872271656990051,0.5071141719818115,-0.02174924686551094,0.9704926013946533,0.16928526759147644,0.5224267840385437,-0.7046659588813782,0.9631233811378479,0.6504398584365845,0.6351028680801392,-0.27894431352615356,0.9618030786514282,0.28331393003463745,0.5582347512245178,-1.116693139076233,0.9147925972938538,0.6767295598983765,0.677215576171875,-0.36409398913383484,0.9359880685806274,0.32546865940093994,0.5658218264579773,-1.2288609743118286,0.8937463760375977,0.6679627299308777,0.6769437789916992,-0.45658135414123535,0.9427209496498108,0.32739996910095215,0.5338869690895081,-1.2884358167648315,0.8986513018608093,0.6571296453475952,0.6679630279541016,-0.32140234112739563,0.9449971914291382,0.3140031397342682,0.5299779772758484,-1.146438479423523,0.8802146315574646,0.4992232024669647,0.6288683414459229,0.10875370353460312,0.9957719445228577,0.3252684473991394,0.6500782370567322,-0.10831782966852188,0.9966515898704529,0.49580469727516174,0.8328226804733276,0.25857725739479065,0.9425743222236633,0.34990355372428894,0.8708752989768982,0.0075690848752856255,0.9678336381912231,0.491830438375473,0.9658265113830566,1.0055590867996216,0.8486244678497314,0.3642074763774872,0.9927946925163269,0.607491672039032,0.885858416557312,0.4718889892101288,0.9757247567176819,1.0602165460586548,0.7840319275856018,0.35671329498291016,1.0226664543151855,0.6518386602401733,0.6304163336753845,0.5730060935020447,1.0341355800628662,0.7716909050941467,0.7829172015190125,0.39882877469062805,1.0903562307357788,0.25669994950294495,0.7443187236785889
18618.778767187632,0.45024752616882324,0.23076725006103516,-0.9205600619316101,0.9999809265136719,0.45654112100601196,0.2079017162322998,-0.8588611483573914,0.9999622106552124,0.4653807282447815,0.20690542459487915,-0.8589876890182495,0.9999572038650513,0.47333842515945435,0.2058180868625641,-0.8590343594551086,0.9999507665634155,0.4226297438144684,0.20878663659095764,-0.8930970430374146,0.9999669790267944,0.40479791164398193,0.20859232544898987,-0.8931905627250671,0.9999645948410034,0.3859291076660156,0.20858341455459595,-0.8933106660842896,0.99996018409729,0.46634870767593384,0.2134922742843628,-0.49594107270240784,0.9999535083770752,0.3376564085483551,0.21868810057640076,-0.6618189215660095,0.9999710321426392,0.4587780833244324,0.253782719373703,-0.7845771312713623,0.9999878406524658,0.4232296049594879,0.25535842776298523,-0.8315949440002441,0.9999920129776001,0.5372828841209412,0.3476376533508301,-0.2513582110404968,0.9998812675476074,0.18917876482009888,0.365176260471344,-0.5226480960845947,0.9997683167457581,0.589035153388977,0.5068976283073425,-0.00905250757932663,0.972266674041748,0.1568097025156021,0.5114531517028809,-0.6905344128608704,0.969138503074646,0.6512248516082764,0.6368134617805481,-0.262665718793869,0.9700496196746826,0.2794913947582245,0.5575815439224243,-1.1503630876541138,0.9263123869895935,0.6763412356376648,0.6780307292938232,-0.34773290157318115,0.9499731659889221,0.32140031456947327,0.5681523680686951,-1.2680327892303467,0.9058846831321716,0.6654584407806396,0.6775355339050293,-0.44137242436408997,0.9548713564872742,0.32611721754074097,0.5367204546928406,-1.327401876449585,0.9101550579071045,0.6549946069717407,0.6684269905090332,-0.3050306439399719,0.9561457633972168,0.3127683997154236,0.5324070453643799,-1.1810789108276367,0.8953071236610413,0.4959798753261566,0.6282999515533447,0.10345156490802765,0.9970284104347229,0.3232080936431885,0.6485872864723206,-0.10302416235208511,0.997698962688446,0.4942249059677124,0.8304169178009033,0.2807152569293976,0.9562052488327026,0.34923696517944336,0.8674530982971191,0.03656498342752457,0.9772216081619263,0.490995854139328,0.9642300009727478,1.029871940612793,0.8863998651504517,0.36433032155036926,0.9914066791534424,0.6360647678375244,0.9134193658828735,0.4713902771472931,0.9741837382316589,1.0842571258544922,0.8212934732437134,0.3611026704311371,0.9911419749259949,0.6804617047309875,0.6867222785949707,0.5499609708786011,1.020859718322754,0.7931787967681885,0.8308665156364441,0.405085027217865,1.0850882530212402,0.2868516147136688,0.7950801849365234
18635.4454338543,0.4494251310825348,0.23110809922218323,-0.947737455368042,0.9999755620956421,0.4557250142097473,0.20902198553085327,-0.8870980143547058,0.9999517202377319,0.4644911289215088,0.20828375220298767,-0.8872196674346924,0.9999464750289917,0.47225239872932434,0.20736375451087952,-0.8872777819633484,0.9999380111694336,0.42218905687332153,0.20926713943481445,-0.9256383776664734,0.9999576807022095,0.4037017524242401,0.20886626839637756,-0.9257434010505676,0.9999549388885498,0.3844495117664337,0.20860785245895386,-0.9258437156677246,0.9999480247497559,0.4645955562591553,0.21418559551239014,-0.521964430809021,0.999941349029541,0.3341788947582245,0.21763619780540466,-0.7069264054298401,0.9999610185623169,0.45739349722862244,0.25371575355529785,-0.8096404671669006,0.9999830722808838,0.4220769703388214,0.2555428147315979,-0.8621252775192261,0.9999878406524658,0.5360223054885864,0.34636855125427246,-0.26996541023254395,0.9998704195022583,0.18483535945415497,0.3660030961036682,-0.5661525726318359,0.9997033476829529,0.5877824425697327,0.5050708651542664,-0.02388540841639042,0.9698497653007507,0.17131339013576508,0.5221247673034668,-0.7351052761077881,0.9647980332374573,0.6477852463722229,0.6336848139762878,-0.27622488141059875,0.9652824997901917,0.28110837936401367,0.5551609396934509,-1.1799429655075073,0.9191033840179443,0.6736049652099609,0.6757089495658875,-0.3587239682674408,0.9412604570388794,0.3265654444694519,0.5612408518791199,-1.2968816757202148,0.8976961374282837,0.6632345914840698,0.6759659051895142,-0.452152818441391,0.9470669627189636,0.32905399799346924,0.5311372876167297,-1.3532756567001343,0.9017965793609619,0.6519138813018799,0.6670531630516052,-0.3185892105102539,0.9490618705749512,0.31550332903862,0.5272310376167297,-1.2094188928604126,0.884278416633606,0.49738970398902893,0.6290570497512817,0.10710703581571579,0.9969347715377808,0.3233756124973297,0.6499210596084595,-0.1066930815577507,0.9975225329399109,0.49376463890075684,0.8345034122467041,0.3068455755710602,0.950478196144104,0.3504050076007843,0.8684501647949219,0.05046630650758743,0.9735487103462219,0.4915578365325928,0.9650446176528931,1.0708038806915283,0.8763605356216431,0.3650018572807312,0.990410566329956,0.6745254397392273,0.9054511189460754,0.4719468057155609,0.9759896993637085,1.1268501281738281,0.8190462589263916,0.36137422919273376,0.9909246563911438,0.7215626239776611,0.6750338673591614,0.5525980591773987,1.023669719696045,0.8350747227668762,0.8217549920082092,0.39852607250213623,1.0853663682937622,0.32770979404449463,0.78385329246521
18652.112100520968,0.45452937483787537,0.23249605298042297,-0.9366380572319031,0.9999651908874512,0.45867979526519775,0.2105139195919037,-0.8780437111854553,0.9999309778213501,0.46643343567848206,0.209617018699646,-0.8781726956367493,0.9999240636825562,0.4736019968986511,0.2085871398448944,-0.8782512545585632,0.9999134540557861,0.4267400801181793,0.21081602573394775,-0.9213448762893677,0.9999406337738037,0.4100542366504669,0.20995143055915833,-0.9214746356010437,0.9999363422393799,0.3907644748687744,0.2094663381576538,-0.9216002225875854,0.9999275207519531,0.46041202545166016,0.21548384428024292,-0.516899824142456,0.9999170303344727,0.3391951024532318,0.21870076656341553,-0.7222716212272644,0.9999463558197021,0.46000105142593384,0.25418195128440857,-0.7983946204185486,0.9999769926071167,0.4262864589691162,0.2564409375190735,-0.8569089770317078,0.9999837875366211,0.5352116823196411,0.3477056920528412,-0.261635422706604,0.9998581409454346,0.18354181945323944,0.3649553060531616,-0.5817225575447083,0.9996939897537231,0.5869881510734558,0.5053768157958984,-0.019338766112923622,0.9698478579521179,0.17041750252246857,0.5232154130935669,-0.701373815536499,0.9645885229110718,0.6493555903434753,0.6336888074874878,-0.2832769751548767,0.9627538323402405,0.2802179157733917,0.5564867258071899,-1.073677659034729,0.917600691318512,0.6744335889816284,0.6763513684272766,-0.36937859654426575,0.9356908798217773,0.3245234489440918,0.5638861060142517,-1.1830111742019653,0.8941091299057007,0.6646722555160522,0.6763080954551697,-0.4632221460342407,0.9423502683639526,0.3257758319377899,0.5322877168655396,-1.2435237169265747,0.8985468745231628,0.6542489528656006,0.6673798561096191,-0.3268100619316101,0.9444101452827454,0.3119465112686157,0.5274896621704102,-1.10276198387146,0.8791031241416931,0.4984932541847229,0.6295617818832397,0.11293672025203705,0.9960175156593323,0.3251696527004242,0.6505664587020874,-0.11253299564123154,0.9968235492706299,0.49487075209617615,0.833160400390625,0.308260053396225,0.947364330291748,0.35043591260910034,0.8710411787033081,0.04171114042401314,0.9711639285087585,0.491924524307251,0.9661933183670044,1.0820215940475464,0.8629111051559448,0.36518770456314087,0.9908925294876099,0.6761714220046997,0.8967276215553284,0.4722084105014801,0.9766423106193542,1.1392468214035034,0.7994493842124939,0.3632064163684845,1.0197691917419434,0.7240685224533081,0.650728166103363,0.5527441501617432,1.0221713781356812,0.8458607196807861,0.8119103312492371,0.40282171964645386,1.0876086950302124,0.32531067728996277,0.7759896516799927
18668.778767187636,0.4510517120361328,0.23085755109786987,-0.9410144686698914,0.9999850988388062,0.45768171548843384,0.20760762691497803,-0.8789628744125366,0.9999713897705078,0.4666116237640381,0.206537127494812,-0.8791121244430542,0.9999685287475586,0.47493472695350647,0.20543590188026428,-0.8791883587837219,0.9999638795852661,0.42292720079421997,0.20848587155342102,-0.9152612090110779,0.9999734163284302,0.4050940275192261,0.20812681317329407,-0.9153737425804138,0.9999710321426392,0.3856964707374573,0.20801323652267456,-0.9154797792434692,0.9999667406082153,0.46692797541618347,0.21278423070907593,-0.5108312964439392,0.9999687671661377,0.33551326394081116,0.21798434853553772,-0.684824526309967,0.999975323677063,0.45905444025993347,0.25358846783638,-0.8019932508468628,0.999990701675415,0.42285045981407166,0.25571542978286743,-0.8514600992202759,0.999992847442627,0.537132203578949,0.34787118434906006,-0.2723490595817566,0.9999030828475952,0.18362276256084442,0.36576181650161743,-0.5341634750366211,0.999721348285675,0.5879595279693604,0.5082867741584778,-0.05173205956816673,0.9753590822219849,0.1696287989616394,0.5184603929519653,-0.7055265307426453,0.9611318707466125,0.6513605117797852,0.6355985999107361,-0.32764604687690735,0.9695437550544739,0.281257688999176,0.5567617416381836,-1.1750702857971191,0.920185387134552,0.676156222820282,0.6765934824943542,-0.4171043932437897,0.9484332799911499,0.3239128887653351,0.5644514560699463,-1.2939376831054688,0.9007408618927002,0.6651202440261841,0.6759865283966064,-0.5112208724021912,0.9534353017807007,0.32687097787857056,0.5328302979469299,-1.3528411388397217,0.9050498008728027,0.6545935869216919,0.6667884588241577,-0.37047848105430603,0.9547505378723145,0.3135494887828827,0.5281094312667847,-1.2059634923934937,0.8879156708717346,0.49586400389671326,0.6285061240196228,0.08849062770605087,0.9969227910041809,0.323036253452301,0.6482669711112976,-0.08806686848402023,0.997471809387207,0.4890139698982239,0.8381579518318176,0.23859591782093048,0.9635199308395386,0.34934237599372864,0.8675671219825745,0.03562851622700691,0.9745883941650391,0.4915415644645691,0.9717046618461609,1.0048247575759888,0.9043812155723572,0.36675429344177246,0.9934436082839966,0.6517321467399597,0.9172427654266357,0.47369107604026794,0.980224609375,1.0596681833267212,0.8334702253341675,0.3637852072715759,0.9921048879623413,0.6969329714775085,0.6886911988258362,0.5492464303970337,1.0276117324829102,0.7551098465919495,0.8474573493003845,0.3928539752960205,1.093094825744629,0.29576078057289124,0.8071288466453552
18685.445433854304,0.45397722721099854,0.23121142387390137,-0.9014675617218018,0.9999752044677734,0.45767858624458313,0.20881998538970947,-0.8428017497062683,0.9999498128890991,0.4653432369232178,0.20781168341636658,-0.8429405093193054,0.9999452829360962,0.47249117493629456,0.2067752480506897,-0.8430206179618835,0.999937891960144,0.4265758693218231,0.20961636304855347,-0.8800083994865417,0.9999536275863647,0.41006290912628174,0.20916876196861267,-0.8801055550575256,0.9999494552612305,0.3910059332847595,0.20906710624694824,-0.8802174925804138,0.999941349029541,0.46066686511039734,0.214000403881073,-0.4885807931423187,0.9999402761459351,0.3397342562675476,0.2190377414226532,-0.6673108339309692,0.999954342842102,0.4602346420288086,0.2533443570137024,-0.766994059085846,0.9999843835830688,0.427010178565979,0.2556151747703552,-0.8178092241287231,0.999988317489624,0.5360669493675232,0.3488155007362366,-0.2559974789619446,0.999895453453064,0.18817172944545746,0.3652423918247223,-0.526133120059967,0.9997151494026184,0.5877559781074524,0.5067486763000488,-0.03228214755654335,0.9741031527519226,0.16213300824165344,0.5134599804878235,-0.6687372922897339,0.9630539417266846,0.6486725211143494,0.6341337561607361,-0.29132890701293945,0.9707223773002625,0.28072771430015564,0.5577651858329773,-1.0808606147766113,0.9181804060935974,0.67535001039505,0.6764752268791199,-0.378021776676178,0.9495216608047485,0.32354435324668884,0.5671777725219727,-1.1912809610366821,0.8969231247901917,0.6663342118263245,0.6761611104011536,-0.4691029191017151,0.95478755235672,0.3291661739349365,0.5373892784118652,-1.2497551441192627,0.90132737159729,0.6554694175720215,0.6670185327529907,-0.33285313844680786,0.9558024406433105,0.31657740473747253,0.5336911678314209,-1.110432505607605,0.8846689462661743,0.4958919584751129,0.6287788152694702,0.1015995517373085,0.9967531561851501,0.32541462779045105,0.6489638090133667,-0.10123638063669205,0.997208297252655,0.49323323369026184,0.8298468589782715,0.26182371377944946,0.9539431929588318,0.3491344153881073,0.8686107397079468,0.026077862828969955,0.9735244512557983,0.4913305342197418,0.9683919548988342,1.0075976848602295,0.8886768221855164,0.3685261011123657,0.9908462166786194,0.6374756097793579,0.9096899628639221,0.47205689549446106,0.9792274832725525,1.06204092502594,0.8207486271858215,0.3678882420063019,0.9914592504501343,0.6831645965576172,0.6726764440536499,0.5582492351531982,1.0201858282089233,0.7722038626670837,0.8372703194618225,0.4051124155521393,1.0872900485992432,0.29327258467674255,0.7971311211585999
18702.11210052097,0.4551002085208893,0.23283040523529053,-0.9347001314163208,0.9999812841415405,0.4591865539550781,0.21052685379981995,-0.8782798647880554,0.9999630451202393,0.4671737253665924,0.2094595730304718,-0.8783889412879944,0.9999592304229736,0.47453123331069946,0.2083074450492859,-0.8784480094909668,0.9999535083770752,0.42668989300727844,0.21136435866355896,-0.9171032309532166,0.9999680519104004,0.4100532531738281,0.2107272446155548,-0.9172394275665283,0.9999656677246094,0.39073699712753296,0.21046200394630432,-0.9173397421836853,0.9999613761901855,0.4616476893424988,0.21535614132881165,-0.5311194062232971,0.9999574422836304,0.3391079306602478,0.22004592418670654,-0.7158119082450867,0.9999715089797974,0.46100878715515137,0.25461670756340027,-0.8022248148918152,0.9999880790710449,0.4270469844341278,0.2575899660587311,-0.8545944094657898,0.999991774559021,0.5373965501785278,0.3484709858894348,-0.2938314974308014,0.9998993873596191,0.18484756350517273,0.36676153540611267,-0.5788180828094482,0.9997912049293518,0.5898717641830444,0.5095670223236084,-0.06928777694702148,0.9754846692085266,0.16423696279525757,0.5218909978866577,-0.7188560962677002,0.9752897024154663,0.6523064374923706,0.6379597783088684,-0.3317539393901825,0.971138596534729,0.2806549370288849,0.5554581880569458,-1.1108344793319702,0.9423947334289551,0.6762734651565552,0.6793427467346191,-0.41900286078453064,0.9493321180343628,0.3254675269126892,0.5615115761756897,-1.2213408946990967,0.921582818031311,0.6656234264373779,0.6781846284866333,-0.5109209418296814,0.9542463421821594,0.32793399691581726,0.5312777757644653,-1.2747924327850342,0.9241436123847961,0.6555352210998535,0.6692366600036621,-0.3739047348499298,0.9559224843978882,0.3152320981025696,0.5284635424613953,-1.137640357017517,0.908836305141449,0.49835240840911865,0.6318702101707458,0.10594659298658371,0.9968260526657104,0.3244936466217041,0.6505463719367981,-0.10556497424840927,0.9976457953453064,0.4891470968723297,0.8355452418327332,0.3066706657409668,0.9542335271835327,0.34639763832092285,0.8687366247177124,0.055819861590862274,0.9793072938919067,0.48770657181739807,0.967758059501648,1.0593032836914062,0.8890047669410706,0.36126649379730225,0.9917095303535461,0.6622111201286316,0.9206417798995972,0.4660526514053345,0.9791263341903687,1.1150466203689575,0.8337243795394897,0.3610028922557831,0.9921876192092896,0.7083584070205688,0.7051382660865784,0.5579119920730591,1.0208591222763062,0.8371203541755676,0.8444991707801819,0.39937230944633484,1.0861393213272095,0.32936567068099976,0.814167320728302
18718.77876718764,0.4545443058013916,0.23131442070007324,-0.9123157858848572,0.9999722242355347,0.4590146541595459,0.20914292335510254,-0.8555510640144348,0.9999438524246216,0.4670139253139496,0.20823299884796143,-0.8556803464889526,0.9999371767044067,0.47448039054870605,0.20722725987434387,-0.8557665944099426,0.9999293088912964,0.4265391230583191,0.20949119329452515,-0.8950330018997192,0.9999521970748901,0.40994003415107727,0.20873555541038513,-0.8951600790023804,0.9999476671218872,0.3906533718109131,0.20837974548339844,-0.8952924013137817,0.9999419450759888,0.4624616801738739,0.21384218335151672,-0.5047376751899719,0.9999324083328247,0.34009018540382385,0.21782156825065613,-0.6933779716491699,0.9999551773071289,0.46066054701805115,0.2532074749469757,-0.7781397104263306,0.9999818801879883,0.4269242584705353,0.2551581859588623,-0.8318324089050293,0.9999877214431763,0.536243200302124,0.3483819365501404,-0.2659841775894165,0.9998579025268555,0.18705037236213684,0.3644336760044098,-0.551866352558136,0.9997453093528748,0.5866596698760986,0.5077947378158569,-0.035922031849622726,0.9713358879089355,0.16390003263950348,0.5192520618438721,-0.6952447295188904,0.9682255983352661,0.6510058641433716,0.6366050243377686,-0.29352205991744995,0.9657648205757141,0.2792736887931824,0.5568442344665527,-1.1075078248977661,0.9340876936912537,0.6762967109680176,0.6778223514556885,-0.37942564487457275,0.9418864250183105,0.323908269405365,0.5664693117141724,-1.219372034072876,0.9148614406585693,0.6673858165740967,0.6774095892906189,-0.47314584255218506,0.9477804899215698,0.33062684535980225,0.536803126335144,-1.2769297361373901,0.9184505939483643,0.6569588780403137,0.6684963703155518,-0.33641889691352844,0.949735164642334,0.31751924753189087,0.5326471328735352,-1.1363543272018433,0.9020342230796814,0.4973466694355011,0.6305962204933167,0.10324827581644058,0.9958921670913696,0.32268911600112915,0.650233805179596,-0.10287471115589142,0.9970070719718933,0.4933360815048218,0.8322272300720215,0.26308733224868774,0.9561313390731812,0.34715497493743896,0.8717730045318604,0.020135195925831795,0.9763818383216858,0.491641104221344,0.9703505635261536,1.0127395391464233,0.8853886127471924,0.36793169379234314,0.9937728047370911,0.6220402121543884,0.9173159003257751,0.47152939438819885,0.9806363582611084,1.0673788785934448,0.8214662671089172,0.36748242378234863,1.0238467454910278,0.6664232015609741,0.6852840185165405,0.5577805638313293,1.0233677625656128,0.779125452041626,0.8343515396118164,0.3996332585811615,1.0916142463684082,0.2728727161884308,0.8075988292694092
18735.445433854307,0.4521297514438629,0.23203688859939575,-0.9765048623085022,0.9999722242355347,0.45771804451942444,0.20918983221054077,-0.9158641695976257,0.9999440908432007,0.46615365147590637,0.20802763104438782,-0.9159925580024719,0.99993896484375,0.47401899099349976,0.20672336220741272,-0.9160717129707336,0.9999289512634277,0.42422494292259216,0.21042072772979736,-0.950810968875885,0.9999490976333618,0.40679991245269775,0.21017128229141235,-0.9509193897247314,0.999945878982544,0.3874375522136688,0.21018847823143005,-0.9510335326194763,0.9999372959136963,0.4648663401603699,0.21330377459526062,-0.5463622808456421,0.9999332427978516,0.3368118107318878,0.21955597400665283,-0.7149469256401062,0.9999520778656006,0.4597454071044922,0.2539646029472351,-0.8365505933761597,0.9999812841415405,0.42457208037376404,0.25629639625549316,-0.8844761252403259,0.9999862909317017,0.5370116829872131,0.3490026593208313,-0.29518771171569824,0.9998588562011719,0.18867404758930206,0.36505961418151855,-0.5540532469749451,0.999651312828064,0.5867621898651123,0.5084928274154663,-0.057206109166145325,0.9699808955192566,0.1665530651807785,0.5193570852279663,-0.7080937623977661,0.9600414633750916,0.6481807231903076,0.6356704235076904,-0.3104082942008972,0.9600391387939453,0.2777315676212311,0.5556799173355103,-1.1580491065979004,0.9044512510299683,0.6718794107437134,0.6772974133491516,-0.3948465585708618,0.932633638381958,0.3234654664993286,0.5645812749862671,-1.2724988460540771,0.879642128944397,0.6609072685241699,0.6768381595611572,-0.4872388243675232,0.9392482042312622,0.32843995094299316,0.53482985496521,-1.3323748111724854,0.8849800229072571,0.6506187915802002,0.6680967807769775,-0.3521500825881958,0.9415684938430786,0.3146727383136749,0.5313293933868408,-1.188934564590454,0.8672117590904236,0.49791401624679565,0.6274147629737854,0.09351439028978348,0.9965167045593262,0.32525935769081116,0.6488112211227417,-0.09310445189476013,0.997012734413147,0.49343299865722656,0.8315714001655579,0.2403348833322525,0.9552614092826843,0.3516577184200287,0.8672060370445251,0.028078120201826096,0.9699695706367493,0.49202802777290344,0.9669345617294312,0.9930933713912964,0.8859997987747192,0.3667287230491638,0.9906834363937378,0.6487823128700256,0.9001796841621399,0.4731198847293854,0.9780601263046265,1.0466912984848022,0.8076794743537903,0.36364859342575073,0.9910978078842163,0.6941215395927429,0.650798499584198,0.5648473501205444,1.035080909729004,0.7376534342765808,0.8240967988967896,0.39800432324409485,1.0859692096710205,0.28909382224082947,0.7778482437133789
18752.112100520975,0.4516977369785309,0.23146629333496094,-0.9289141297340393,0.9999648332595825,0.45681220293045044,0.2089918553829193,-0.8680773377418518,0.9999287128448486,0.46537721157073975,0.20791539549827576,-0.8682394623756409,0.9999233484268188,0.47336506843566895,0.20677733421325684,-0.8683375120162964,0.9999126195907593,0.42341703176498413,0.20984378457069397,-0.904366135597229,0.9999319314956665,0.4065399765968323,0.20936444401741028,-0.9044800996780396,0.9999271631240845,0.3876848518848419,0.20923969149589539,-0.9046009182929993,0.9999158382415771,0.4638601243495941,0.21360039710998535,-0.50332111120224,0.9999140501022339,0.338163286447525,0.21892759203910828,-0.676982581615448,0.9999326467514038,0.4593934416770935,0.2535129487514496,-0.7906811237335205,0.9999771118164062,0.42456701397895813,0.25550177693367004,-0.8401122093200684,0.999982476234436,0.5362458825111389,0.3490979075431824,-0.26226282119750977,0.9998606443405151,0.18868900835514069,0.36508944630622864,-0.523611307144165,0.9995860457420349,0.5862693786621094,0.5082504749298096,-0.046945393085479736,0.9713976979255676,0.17023931443691254,0.5198821425437927,-0.6650661826133728,0.9543083310127258,0.6494961977005005,0.6372308135032654,-0.32290002703666687,0.9621744155883789,0.2804208993911743,0.5559892654418945,-1.0968073606491089,0.9003046154975891,0.673746645450592,0.6776376366615295,-0.4122394919395447,0.935748279094696,0.3222515881061554,0.5639613270759583,-1.2090691328048706,0.8767125010490417,0.6636792421340942,0.6770917773246765,-0.504330039024353,0.9423607587814331,0.3276670575141907,0.5342426896095276,-1.2700144052505493,0.8827179074287415,0.653099775314331,0.6682253479957581,-0.3654865026473999,0.9444687366485596,0.3151096701622009,0.5307636260986328,-1.1277343034744263,0.8643272519111633,0.4966653883457184,0.6268889904022217,0.09873536974191666,0.9962511658668518,0.3243982493877411,0.6480550765991211,-0.09836702048778534,0.9965612292289734,0.4924846887588501,0.8343440294265747,0.2119525820016861,0.9578072428703308,0.35232892632484436,0.868539571762085,-0.004519350826740265,0.9707989692687988,0.49261945486068726,0.9705181121826172,0.9687258005142212,0.8929950594902039,0.3686859905719757,0.9906318783760071,0.6135775446891785,0.9047427177429199,0.4747869670391083,0.9805421233177185,1.0226253271102905,0.8029129505157471,0.3652222454547882,0.9907082915306091,0.6584157347679138,0.6401962637901306,0.5490881204605103,1.027631402015686,0.7111663222312927,0.8313031196594238,0.4015388488769531,1.0897548198699951,0.24954825639724731,0.7870957851409912
18768.778767187643,0.4531398117542267,0.23231682181358337,-0.891029953956604,0.9999586343765259,0.4579974114894867,0.21006551384925842,-0.8328524827957153,0.9999176263809204,0.46589940786361694,0.2091512680053711,-0.8330081701278687,0.9999102354049683,0.47316911816596985,0.20806825160980225,-0.8331104516983032,0.9998981952667236,0.4260825216770172,0.21057948470115662,-0.8720402717590332,0.9999263286590576,0.409317284822464,0.20992502570152283,-0.8721663951873779,0.9999213218688965,0.39032915234565735,0.20962506532669067,-0.8722978830337524,0.9999109506607056,0.4610486328601837,0.21463081240653992,-0.479233980178833,0.9999048709869385,0.33948469161987305,0.21899664402008057,-0.6659051179885864,0.9999309778213501,0.45886045694351196,0.2544834613800049,-0.7560327053070068,0.9999738931655884,0.4253002107143402,0.25646206736564636,-0.8092229962348938,0.9999808073043823,0.5336997509002686,0.34830304980278015,-0.24571187794208527,0.9998540878295898,0.18621106445789337,0.365485817193985,-0.5192378163337708,0.9996225833892822,0.5858955383300781,0.5081804990768433,-0.019566955044865608,0.9701579213142395,0.1681157499551773,0.5199163556098938,-0.6632318496704102,0.9580960273742676,0.6468504071235657,0.635730504989624,-0.27831506729125977,0.9600499272346497,0.27809035778045654,0.5546273589134216,-1.0774331092834473,0.9092219471931458,0.6715292930603027,0.6778995394706726,-0.3633696138858795,0.9323965907096863,0.32164543867111206,0.5639092326164246,-1.1863462924957275,0.8859457969665527,0.6610327959060669,0.6777327060699463,-0.4532967209815979,0.9392074942588806,0.3270842432975769,0.5345821380615234,-1.242699384689331,0.8907096982002258,0.6502928733825684,0.6686952710151672,-0.3194960951805115,0.941737949848175,0.313944011926651,0.5295425653457642,-1.1057428121566772,0.8714147806167603,0.4981294572353363,0.6299848556518555,0.09629743546247482,0.9961291551589966,0.3235403597354889,0.6499255895614624,-0.0959169864654541,0.9965974688529968,0.4919291138648987,0.8331055045127869,0.22339856624603271,0.9525116086006165,0.35025689005851746,0.8706313967704773,0.013198455795645714,0.9659220576286316,0.4921437203884125,0.970123291015625,0.9926730990409851,0.8694283962249756,0.365121990442276,0.9924135804176331,0.6371341347694397,0.8869130611419678,0.47321122884750366,0.9803200960159302,1.0491105318069458,0.7825180888175964,0.3651266396045685,0.9926720261573792,0.6838342547416687,0.6221106648445129,0.5658562183380127,1.0380038022994995,0.7512285113334656,0.8043965101242065,0.398223876953125,1.0887030363082886,0.28719571232795715,0.7594876289367676
18785.44543385431,0.4534817636013031,0.2316049039363861,-0.9076138734817505,0.9999730587005615,0.4580576419830322,0.20891237258911133,-0.8481488227844238,0.9999459981918335,0.46631672978401184,0.20777341723442078,-0.8482952117919922,0.9999403953552246,0.47387033700942993,0.20652005076408386,-0.8483738303184509,0.9999309778213501,0.42521628737449646,0.2097736895084381,-0.8845035433769226,0.999951958656311,0.4084679186344147,0.2092430293560028,-0.8846164345741272,0.9999490976333618,0.38956958055496216,0.20899876952171326,-0.8847396969795227,0.9999423027038574,0.4631657898426056,0.21332037448883057,-0.48890170454978943,0.9999374151229858,0.3390626013278961,0.21861615777015686,-0.6634066104888916,0.999956488609314,0.4604547321796417,0.2536090612411499,-0.771344006061554,0.9999825954437256,0.4260411560535431,0.2559209167957306,-0.8209572434425354,0.9999874830245972,0.537198543548584,0.3480520248413086,-0.2497462034225464,0.9998775720596313,0.18894082307815552,0.3645031750202179,-0.5150301456451416,0.9997077584266663,0.5864835381507874,0.507542610168457,-0.016205348074436188,0.9725893139839172,0.16528059542179108,0.5176668763160706,-0.6847556829452515,0.9657724499702454,0.6492438316345215,0.6348209977149963,-0.2733584940433502,0.9655469059944153,0.2745210528373718,0.5534969568252563,-1.1490343809127808,0.927399754524231,0.6724636554718018,0.6772171258926392,-0.3572554290294647,0.9415334463119507,0.3200185298919678,0.5622679591178894,-1.263971209526062,0.9070256948471069,0.662255048751831,0.6769078373908997,-0.44846102595329285,0.9474532604217529,0.3255401849746704,0.532835066318512,-1.3226006031036377,0.9114579558372498,0.6520273089408875,0.6679494976997375,-0.31480908393859863,0.949557363986969,0.3114331364631653,0.5285803079605103,-1.1795963048934937,0.8956250548362732,0.4984661042690277,0.6282255053520203,0.0927465409040451,0.9968386888504028,0.32595473527908325,0.6489741206169128,-0.09233639389276505,0.9972749352455139,0.49307501316070557,0.8327037692070007,0.22085832059383392,0.9565331339836121,0.3506191074848175,0.868114173412323,0.016672680154442787,0.9685509204864502,0.49213430285453796,0.9679570198059082,0.9883564114570618,0.8798035383224487,0.3660944700241089,0.9903038740158081,0.6371833682060242,0.8932314515113831,0.47427889704704285,0.9781596064567566,1.044189691543579,0.8006659746170044,0.36462095379829407,0.9908176064491272,0.6834851503372192,0.6398472189903259,0.545077383518219,1.0276048183441162,0.7440202832221985,0.8151934742927551,0.3968198597431183,1.0870656967163086,0.28602147102355957,0.7672808170318604
18802.11210052098,0.4511261582374573,0.23147541284561157,-0.9511192440986633,0.9999840259552002,0.45793187618255615,0.20896941423416138,-0.8918256163597107,0.9999688863754272,0.4666071832180023,0.20823320746421814,-0.8919458985328674,0.9999656677246094,0.474710077047348,0.20729339122772217,-0.8920019268989563,0.9999607801437378,0.42411813139915466,0.20920085906982422,-0.9274805784225464,0.999971866607666,0.4058888256549835,0.20864716172218323,-0.9276013374328613,0.9999696016311646,0.3862476348876953,0.20834651589393616,-0.9276817440986633,0.9999648332595825,0.4662257730960846,0.21410447359085083,-0.5340916514396667,0.999963641166687,0.3353483974933624,0.21732601523399353,-0.706235945224762,0.9999730587005615,0.4578661620616913,0.254460871219635,-0.815947413444519,0.99998939037323,0.4220978021621704,0.25619471073150635,-0.8647180795669556,0.9999923706054688,0.5356622934341431,0.3469703495502472,-0.2977820336818695,0.9998977184295654,0.1841069757938385,0.3633878827095032,-0.559610903263092,0.999748170375824,0.5869449377059937,0.5084735155105591,-0.07511653751134872,0.9761160016059875,0.1601351499557495,0.515538215637207,-0.725068211555481,0.9697866439819336,0.6517785787582397,0.6386311054229736,-0.3328871428966522,0.971981406211853,0.27314120531082153,0.5517194867134094,-1.1655938625335693,0.9252758026123047,0.6744270324707031,0.6786623001098633,-0.4187006652355194,0.9504207968711853,0.31695592403411865,0.5567527413368225,-1.2799813747406006,0.9018235206604004,0.6638234853744507,0.6780941486358643,-0.5108776092529297,0.9553387761116028,0.31862345337867737,0.5270138382911682,-1.3327362537384033,0.9056454300880432,0.65410315990448,0.6691477298736572,-0.37455397844314575,0.9568777084350586,0.3057330846786499,0.5244534611701965,-1.1937613487243652,0.8901713490486145,0.49645447731018066,0.6283730268478394,0.10216803103685379,0.9970109462738037,0.32175931334495544,0.6479500532150269,-0.10177423804998398,0.9977174997329712,0.4914425313472748,0.8341792821884155,0.2977244257926941,0.9565021395683289,0.347857266664505,0.8680710196495056,0.052612435072660446,0.9791253209114075,0.48958587646484375,0.965721845626831,1.0508747100830078,0.895469605922699,0.3623042702674866,0.9903308749198914,0.658970832824707,0.9229632616043091,0.46873408555984497,0.9756420850753784,1.106162190437317,0.8385860919952393,0.36199983954429626,1.017624855041504,0.7044282555580139,0.703724205493927,0.5585210919380188,1.0206516981124878,0.8215455412864685,0.845784068107605,0.4009675681591034,1.086925745010376,0.3175256550312042,0.8115856647491455
18818.778767187647,0.4584217965602875,0.23327860236167908,-0.9109364748001099,0.999967098236084,0.4613291025161743,0.21199974417686462,-0.8531110882759094,0.9999363422393799,0.4686984419822693,0.21117568016052246,-0.8532372713088989,0.9999301433563232,0.4754948318004608,0.21015387773513794,-0.8533244132995605,0.9999208450317383,0.4301675856113434,0.21216756105422974,-0.8988833427429199,0.9999433755874634,0.4136916697025299,0.2110726237297058,-0.8989776968955994,0.9999392032623291,0.39402762055397034,0.2103610634803772,-0.8990707397460938,0.999929666519165,0.4609326422214508,0.21685224771499634,-0.49756014347076416,0.9999257326126099,0.3409408628940582,0.21935036778450012,-0.714244544506073,0.9999476671218872,0.46253591775894165,0.25465643405914307,-0.7745251655578613,0.9999778270721436,0.4308370351791382,0.25691622495651245,-0.8362874388694763,0.9999833106994629,0.5326681137084961,0.34657880663871765,-0.2562546133995056,0.9998786449432373,0.1839013397693634,0.3663618564605713,-0.5749582648277283,0.9996246099472046,0.582654595375061,0.5049683451652527,-0.0076805707067251205,0.9660378694534302,0.1708276867866516,0.5219064354896545,-0.704413115978241,0.9540697932243347,0.6470240354537964,0.6319714188575745,-0.24657322466373444,0.9596456289291382,0.27887994050979614,0.5545787811279297,-1.0660492181777954,0.8960138559341431,0.6719260215759277,0.6743738055229187,-0.32579946517944336,0.9317358732223511,0.31780552864074707,0.5619562268257141,-1.1712912321090698,0.8729934692382812,0.6611075401306152,0.6749260425567627,-0.4174201488494873,0.9389222860336304,0.319839209318161,0.5296855568885803,-1.2301557064056396,0.8784062266349792,0.6495070457458496,0.6652150750160217,-0.2887130081653595,0.9418755173683167,0.30838462710380554,0.52475506067276,-1.094722867012024,0.8584767580032349,0.49792516231536865,0.6295257210731506,0.10525599122047424,0.9969733953475952,0.3239286541938782,0.6507951021194458,-0.10486333817243576,0.9971442818641663,0.49208950996398926,0.8349244594573975,0.2946239411830902,0.9558354616165161,0.3525897264480591,0.8701789379119873,0.05348365008831024,0.9710191488265991,0.4916638433933258,0.9699888825416565,1.0514881610870361,0.8889265656471252,0.3680533170700073,0.9924442768096924,0.6843885779380798,0.9033234715461731,0.4733618199825287,0.9810137748718262,1.1070054769515991,0.8157469630241394,0.36662527918815613,0.9923250675201416,0.7323797941207886,0.6637637615203857,0.5525955557823181,1.0250203609466553,0.8123629689216614,0.8371904492378235,0.403408944606781,1.0863525867462158,0.34382086992263794,0.7917808890342712
18835.445433854315,0.44970235228538513,0.2311403751373291,-0.9149467945098877,0.9999645948410034,0.4553382694721222,0.20848259329795837,-0.8567985892295837,0.9999308586120605,0.46414095163345337,0.20760565996170044,-0.8569473624229431,0.999925971031189,0.4721039831638336,0.2066476047039032,-0.857048511505127,0.9999161958694458,0.4222203195095062,0.20915591716766357,-0.8944732546806335,0.9999334812164307,0.40395888686180115,0.2088949978351593,-0.894549548625946,0.9999288320541382,0.38539424538612366,0.2087879180908203,-0.8946247100830078,0.9999160766601562,0.46476033329963684,0.21379700303077698,-0.5016981363296509,0.9999181032180786,0.3355039358139038,0.21832886338233948,-0.6816697716712952,0.9999345541000366,0.4579200744628906,0.25399941205978394,-0.779773473739624,0.9999767541885376,0.42275869846343994,0.2559697926044464,-0.8307986259460449,0.9999809265136719,0.5328328609466553,0.34586164355278015,-0.2605217397212982,0.9998714923858643,0.18776476383209229,0.36580905318260193,-0.5386266708374023,0.9995672106742859,0.5832915306091309,0.504592776298523,-0.027616307139396667,0.9662519097328186,0.17598392069339752,0.5223010778427124,-0.654041051864624,0.9440874457359314,0.6430691480636597,0.6318315863609314,-0.27724990248680115,0.9574593901634216,0.2862127125263214,0.5540350079536438,-1.0193451642990112,0.8709473013877869,0.6680589914321899,0.674455463886261,-0.36027178168296814,0.9291331171989441,0.32582440972328186,0.5608519315719604,-1.1239186525344849,0.8471465706825256,0.6561274528503418,0.6751701831817627,-0.450084388256073,0.936201810836792,0.3274542987346649,0.5312401652336121,-1.1821906566619873,0.8533787131309509,0.6438508033752441,0.6646628379821777,-0.3185533583164215,0.9395266771316528,0.3151242434978485,0.5266215801239014,-1.0483472347259521,0.8350905179977417,0.498035728931427,0.6289981007575989,0.10676345974206924,0.9967657327651978,0.3256004750728607,0.6493488550186157,-0.10639387369155884,0.9967865943908691,0.4919705092906952,0.8390177488327026,0.2921689748764038,0.946599543094635,0.3516673743724823,0.8705236315727234,0.04634081944823265,0.9710897207260132,0.4918956160545349,0.9681349992752075,1.033380389213562,0.8746585845947266,0.3698355257511139,0.9952711462974548,0.6584843993186951,0.8959741592407227,0.47389844059944153,0.9803518652915955,1.0875465869903564,0.7962279915809631,0.37065619230270386,0.9944574236869812,0.7047051787376404,0.6485435962677002,0.5537019371986389,1.0280815362930298,0.7949326634407043,0.8143631219863892,0.4119076132774353,1.0877716541290283,0.31674331426620483,0.7709668278694153
18852.112100520982,0.4511551558971405,0.23166516423225403,-0.9172634482383728,0.9999617338180542,0.45579344034194946,0.2092646062374115,-0.8584215044975281,0.999923586845398,0.46407052874565125,0.2084173560142517,-0.8585556149482727,0.9999200105667114,0.4717996120452881,0.207429438829422,-0.8586488962173462,0.9999104738235474,0.4234228730201721,0.2100127935409546,-0.8947161436080933,0.9999253749847412,0.40567725896835327,0.2097931206226349,-0.8947768211364746,0.9999197721481323,0.3871009051799774,0.20974910259246826,-0.8948538899421692,0.9999033212661743,0.4631591737270355,0.2143895924091339,-0.5031319856643677,0.9999120235443115,0.33676204085350037,0.21938124299049377,-0.6778396964073181,0.9999215602874756,0.45867839455604553,0.2547084391117096,-0.7828347086906433,0.9999750852584839,0.4245040714740753,0.25667428970336914,-0.832328736782074,0.9999788999557495,0.534698486328125,0.3469294607639313,-0.2690020501613617,0.999869704246521,0.18875107169151306,0.3659072518348694,-0.5308491587638855,0.9995235204696655,0.5849370360374451,0.5051497220993042,-0.03426113352179527,0.9683369398117065,0.1715293675661087,0.5169987678527832,-0.6442248225212097,0.9419933557510376,0.6448159217834473,0.633719801902771,-0.273363322019577,0.9603226184844971,0.28317487239837646,0.5543900728225708,-1.0124895572662354,0.8491981029510498,0.6681808233261108,0.6765714287757874,-0.3564932644367218,0.9333425760269165,0.3223738372325897,0.562464714050293,-1.116173267364502,0.8233513236045837,0.6558117270469666,0.6766256093978882,-0.44606077671051025,0.9400245547294617,0.3261191248893738,0.533102810382843,-1.175775170326233,0.8298571705818176,0.643549919128418,0.6669946908950806,-0.313861608505249,0.9424422979354858,0.31412991881370544,0.5282071232795715,-1.0422543287277222,0.8107067942619324,0.49949976801872253,0.6297296285629272,0.10310817509889603,0.9964991807937622,0.3255021274089813,0.6500549912452698,-0.10268614441156387,0.9966458678245544,0.4937377870082855,0.8330509066581726,0.28680121898651123,0.9422012567520142,0.34835726022720337,0.8659104704856873,0.043759796768426895,0.9695770144462585,0.489631712436676,0.964020311832428,1.0173704624176025,0.8682142496109009,0.36393076181411743,0.9915997385978699,0.6488219499588013,0.8898022174835205,0.4682807922363281,0.9750106334686279,1.070674180984497,0.7926316857337952,0.35957568883895874,1.014836311340332,0.6938843727111816,0.6362585425376892,0.5536912679672241,1.022260308265686,0.7805466651916504,0.8096047043800354,0.40632808208465576,1.0836503505706787,0.3068370223045349,0.7591281533241272
18868.77876718765,0.45201992988586426,0.231177419424057,-0.941950261592865,0.9999654293060303,0.4565102458000183,0.20843881368637085,-0.8830805420875549,0.9999305009841919,0.4650973677635193,0.20732170343399048,-0.8832071423530579,0.9999265670776367,0.47293543815612793,0.20607200264930725,-0.8832857012748718,0.9999176263809204,0.42325693368911743,0.20961502194404602,-0.9197544455528259,0.9999333620071411,0.40556612610816956,0.20945081114768982,-0.9198256134986877,0.9999276399612427,0.3867076635360718,0.20949241518974304,-0.9199081063270569,0.999913215637207,0.4642830789089203,0.2130548655986786,-0.523216962814331,0.9999161958694458,0.33656153082847595,0.2191241979598999,-0.6996380090713501,0.9999306201934814,0.4603210389614105,0.2533482313156128,-0.8055754899978638,0.999976396560669,0.42495307326316833,0.25603213906288147,-0.8555528521537781,0.9999806880950928,0.5354880094528198,0.34655213356018066,-0.27779385447502136,0.9998615980148315,0.1896866410970688,0.3660412132740021,-0.5523435473442078,0.9995664954185486,0.5865364074707031,0.5058390498161316,-0.04085657373070717,0.9669286608695984,0.17395159602165222,0.5191739797592163,-0.6508010625839233,0.943152129650116,0.6450784206390381,0.6335281133651733,-0.28617948293685913,0.9581480026245117,0.28811538219451904,0.555910050868988,-1.0010775327682495,0.8500253558158875,0.669554591178894,0.6758610010147095,-0.3705343008041382,0.9301780462265015,0.32756975293159485,0.5639783143997192,-1.104135513305664,0.8238718509674072,0.6579496264457703,0.6760085225105286,-0.46250876784324646,0.9371362924575806,0.33127954602241516,0.5339006185531616,-1.1669142246246338,0.8307792544364929,0.6461130976676941,0.6665456891059875,-0.32816511392593384,0.9401684403419495,0.3193953335285187,0.530123770236969,-1.0316599607467651,0.8121753334999084,0.5004680752754211,0.6283066868782043,0.1084335595369339,0.9961446523666382,0.32798680663108826,0.6499839425086975,-0.10801053047180176,0.9965395927429199,0.4956613779067993,0.8284619450569153,0.3094635009765625,0.944366455078125,0.3489993214607239,0.8653936386108398,0.0472341887652874,0.9735958576202393,0.49224573373794556,0.9616100192070007,1.0327332019805908,0.8774632811546326,0.3643491864204407,0.9930531978607178,0.6453757286071777,0.9042302370071411,0.4699172377586365,0.9737067222595215,1.0849114656448364,0.810533881187439,0.36173486709594727,0.99107426404953,0.6892476677894592,0.6611860990524292,0.5581381320953369,1.019018292427063,0.79381263256073,0.8253681659698486,0.408159077167511,1.0842245817184448,0.2977471351623535,0.7841218113899231
