0,1
18048.709143235017,-244.0
18048.70920573225,-34.0
18048.70926822949,170.0
18048.709330726728,315.0
18048.709393223966,1019.0
18048.7094557212,1306.0
18048.70951821844,950.0
18048.709580715677,155.0
18048.709643212915,6.0
18048.70970571015,781.0
18048.709768207387,1329.0
18048.709830704625,1263.0
18048.70989320186,1138.0
18048.709955699098,1429.0
18048.710018196336,1421.0
18048.710080693574,985.0
18048.71014319081,682.0
18048.710205688047,814.0
18048.710268185285,973.0
18048.710330682523,408.0
18048.710393179757,267.0
18048.710455676995,534.0
18048.710518174234,759.0
18048.71058067147,455.0
18048.710643168706,-271.0
18048.710705665944,-97.0
18048.710768163182,243.0
18048.71083066042,372.0
18048.710893157655,118.0
18048.710955654893,-507.0
18048.71101815213,-420.0
18048.71108064937,188.0
18048.711143146604,861.0
18048.711205643842,243.0
18048.71126814108,-1037.0
18048.711330638318,-1421.0
18048.711393135552,-1047.0
18048.71145563279,-508.0
18048.71151813003,-865.0
18048.711580627267,-1768.0
18048.7116431245,-970.0
18048.71170562174,312.0
18048.711768118977,500.0
18048.711830616212,352.0
18048.71189311345,-560.0
18048.711955610688,-1386.0
18048.712018107926,-798.0
18048.71208060516,-262.0
18048.7121431024,-155.0
18048.712205599637,-486.0
18048.712268096875,-852.0
18048.71233059411,-220.0
18048.712393091348,431.0
18048.712455588586,431.0
18048.712518085824,-153.0
18048.71258058306,-577.0
18048.712643080296,-418.0
18048.712705577535,776.0
18048.712768074773,1140.0
18048.712830572007,511.0
18048.712893069245,453.0
18048.712955566483,537.0
18048.71301806372,1103.0
18048.713080560956,1807.0
18048.713143058194,1246.0
18048.713205555432,792.0
18048.71326805267,983.0
18048.713330549905,1163.0
18048.713393047143,937.0
18048.71345554438,173.0
18048.713518041615,-1093.0
18048.713580538853,-967.0
18048.71364303609,-375.0
18048.71370553333,-715.0
18048.713768030564,-905.0
18048.713830527802,-1071.0
18048.71389302504,-136.0
18048.71395552228,9.0
18048.714018019513,-410.0
18048.71408051675,-316.0
18048.71414301399,-215.0
18048.714205511227,667.0
18048.71426800846,367.0
18048.7143305057,-1085.0
18048.714393002938,-1691.0
18048.714455500176,-2102.0
18048.71451799741,-2984.0
18048.71458049465,-2535.0
18048.714642991887,-1802.0
18048.714705489125,-1784.0
18048.71476798636,-1212.0
18048.714830483597,-1014.0
18048.714892980835,-1474.0
18048.714955478074,-1408.0
18048.715017975308,-1507.0
18048.715080472546,-2523.0
18048.715142969784,-2602.0
18048.715205467022,-1895.0
18048.715267964257,-1410.0
18048.715330461495,-1246.0
18048.715392958733,-1470.0
18048.715455455967,-1555.0
18048.715517953206,-1430.0
18048.715580450444,-1087.0
18048.71564294768,-1133.0
18048.715705444916,-1192.0
18048.715767942154,-876.0
18048.715830439392,-748.0
18048.71589293663,-789.0
18048.715955433865,-784.0
18048.716017931103,-592.0
18048.71608042834,-865.0
18048.71614292558,-703.0
18048.716205422814,-206.0
18048.716267920052,-634.0
18048.71633041729,-1068.0
18048.716392914528,-904.0
18048.716455411763,-506.0
18048.716517909,63.0
18048.71658040624,512.0
18048.716642903477,618.0
18048.71670540071,389.0
18048.71676789795,-110.0
18048.716830395188,190.0
18048.716892892426,306.0
18048.71695538966,-144.0
18048.7170178869,-367.0
18048.717080384136,-404.0
18048.71714288137,-234.0
18048.71720537861,-803.0
18048.717267875847,-1655.0
18048.717330373085,-1657.0
18048.71739287032,-1028.0
18048.717455367558,-154.0
18048.717517864796,256.0
18048.717580362034,-296.0
18048.71764285927,-1139.0
18048.717705356506,-442.0
18048.717767853745,911.0
18048.717830350983,792.0
18048.717892848217,322.0
18048.717955345455,-171.0
18048.718017842693,66.0
18048.71808033993,327.0
18048.718142837166,-12.0
18048.718205334404,-78.0
18048.718267831642,-138.0
18048.71833032888,613.0
18048.718392826115,1620.0
18048.718455323353,1911.0
18048.71851782059,1641.0
18048.71858031783,1593.0
18048.718642815064,1893.0
18048.7187053123,1647.0
18048.71876780954,1327.0
18048.718830306774,893.0
18048.718892804012,252.0
18048.71895530125,695.0
18048.71901779849,1153.0
18048.719080295723,1125.0
18048.71914279296,1262.0
18048.7192052902,1499.0
18048.719267787437,1762.0
18048.71933028467,1677.0
18048.71939278191,1299.0
18048.719455279148,1386.0
18048.719517776386,1309.0
18048.71958027362,298.0
18048.71964277086,185.0
18048.719705268097,789.0
18048.719767765335,930.0
18048.71983026257,924.0
18048.719892759807,923.0
18048.719955257046,597.0
18048.720017754284,434.0
18048.720080251518,369.0
18048.720142748756,344.0
18048.720205245994,578.0
18048.720267743232,212.0
18048.720330240467,-177.0
18048.720392737705,-283.0
18048.720455234943,-224.0
18048.72051773218,-157.0
18048.720580229416,-290.0
18048.720642726654,-228.0
18048.720705223892,-6.0
18048.720767721126,216.0
18048.720830218364,334.0
18048.720892715603,142.0
18048.72095521284,-185.0
18048.721017710075,96.0
18048.721080207313,112.0
18048.72114270455,-78.0
18048.72120520179,-280.0
18048.721267699024,-608.0
18048.721330196262,421.0
18048.7213926935,846.0
18048.72145519074,59.0
18048.721517687973,184.0
18048.72158018521,367.0
18048.72164268245,-341.0
18048.721705179687,-1232.0
18048.72176767692,-1579.0
18048.72183017416,-1266.0
18048.721892671398,-1020.0
18048.721955168636,-1190.0
18048.72201766587,-943.0
18048.72208016311,-933.0
18048.722142660346,-988.0
18048.722205157585,-511.0
18048.72226765482,-903.0
18048.722330152057,-919.0
18048.722392649295,-816.0
18048.72245514653,-1016.0
18048.722517643768,-650.0
18048.722580141006,-613.0
18048.722642638244,-396.0
18048.72270513548,-8.0
18048.722767632717,310.0
18048.722830129955,938.0
18048.722892627193,1184.0
18048.722955124427,1421.0
18048.723017621665,1715.0
18048.723080118903,1857.0
18048.72314261614,2138.0
18048.723205113376,2215.0
18048.723267610614,1858.0
18048.723330107852,1445.0
18048.72339260509,1378.0
18048.723455102325,1253.0
18048.723517599563,1072.0
18048.7235800968,1055.0
18048.72364259404,1511.0
18048.723705091274,1463.0
18048.72376758851,873.0
18048.72383008575,947.0
18048.723892582988,1010.0
18048.723955080222,781.0
18048.72401757746,420.0
18048.7240800747,398.0
18048.724142571933,526.0
18048.72420506917,720.0
18048.72426756641,1141.0
18048.724330063647,1069.0
18048.724392560882,809.0
18048.72445505812,539.0
18048.724517555358,-30.0
18048.724580052596,-54.0
18048.72464254983,144.0
18048.72470504707,-41.0
18048.724767544307,75.0
18048.724830041545,659.0
18048.72489253878,779.0
18048.724955036017,797.0
18048.725017533256,640.0
18048.725080030494,755.0
18048.725142527728,1204.0
18048.725205024966,913.0
18048.725267522204,960.0
18048.725330019442,382.0
18048.725392516677,-469.0
18048.725455013915,-754.0
18048.725517511153,-854.0
18048.72558000839,-807.0
18048.725642505626,-821.0
18048.725705002864,-571.0
18048.725767500102,-209.0
18048.72582999734,-120.0
18048.725892494575,-608.0
18048.725954991813,-1321.0
18048.72601748905,-1418.0
18048.726079986285,-1087.0
18048.726142483523,-1329.0
18048.72620498076,-2248.0
18048.726267478,-1832.0
18048.726329975234,-551.0
18048.726392472472,-15.0
18048.72645496971,31.0
18048.72651746695,-718.0
18048.726579964183,-1175.0
18048.72664246142,28.0
18048.72670495866,221.0
18048.726767455897,-1166.0
18048.72682995313,-1798.0
18048.72689245037,-1343.0
18048.726954947608,-599.0
18048.727017444846,-289.0
18048.72707994208,-552.0
18048.72714243932,-816.0
18048.727204936557,-692.0
18048.727267433795,-348.0
18048.72732993103,-298.0
18048.727392428267,-676.0
18048.727454925505,-1051.0
18048.727517422743,-1126.0
18048.727579919978,-65.0
18048.727642417216,576.0
18048.727704914454,-203.0
18048.72776741169,-1026.0
18048.727829908927,-738.0
18048.727892406165,-176.0
18048.727954903403,-265.0
18048.728017400637,-73.0
18048.728079897875,306.0
18048.728142395114,1020.0
18048.72820489235,1556.0
18048.728267389586,1234.0
18048.728329886824,1095.0
18048.728392384062,1532.0
18048.7284548813,1266.0
18048.728517378535,869.0
18048.728579875773,1269.0
18048.72864237301,1771.0
18048.72870487025,1816.0
18048.728767367484,1514.0
18048.72882986472,1798.0
18048.72889236196,2197.0
18048.728954859198,2181.0
18048.729017356432,1450.0
18048.72907985367,721.0
18048.72914235091,582.0
18048.729204848147,929.0
18048.72926734538,1211.0
18048.72932984262,1438.0
18048.729392339857,1706.0
18048.729454837092,1866.0
18048.72951733433,2111.0
18048.729579831568,1865.0
18048.729642328806,1884.0
18048.72970482604,1940.0
18048.72976732328,1605.0
18048.729829820517,1540.0
18048.729892317755,1998.0
18048.72995481499,2366.0
18048.730017312228,1693.0
18048.730079809466,979.0
18048.730142306704,1725.0
18048.73020480394,3036.0
18048.730267301176,3427.0
18048.730329798414,3439.0
18048.730392295653,3001.0
18048.730454792887,1772.0
18048.730517290125,1516.0
18048.730579787363,1858.0
18048.7306422846,1491.0
18048.730704781836,1082.0
18048.730767279074,808.0
18048.730829776312,535.0
18048.73089227355,1025.0
18048.730954770785,957.0
18048.731017268023,-249.0
18048.73107976526,-358.0
18048.7311422625,280.0
18048.731204759733,514.0
18048.73126725697,296.0
18048.73132975421,-38.0
18048.731392251444,-524.0
18048.731454748682,-408.0
18048.73151724592,51.0
18048.73157974316,416.0
18048.731642240393,525.0
18048.73170473763,40.0
18048.73176723487,-129.0
18048.731829732107,-40.0
18048.73189222934,919.0
18048.73195472658,1215.0
18048.732017223818,381.0
18048.732079721056,218.0
18048.73214221829,807.0
18048.73220471553,782.0
18048.732267212767,-842.0
18048.732329710005,-1814.0
18048.73239220724,-1855.0
18048.732454704477,-1491.0
18048.732517201715,-677.0
18048.732579698953,41.0
18048.732642196188,-292.0
18048.732704693426,-509.0
18048.732767190664,99.0
18048.732829687902,202.0
18048.732892185137,121.0
18048.732954682375,-34.0
18048.733017179613,286.0
18048.733079676847,1185.0
18048.733142174086,992.0
18048.733204671324,45.0
18048.73326716856,-772.0
18048.733329665796,-506.0
18048.733392163034,281.0
18048.733454660272,332.0
18048.73351715751,72.0
18048.733579654745,-258.0
18048.733642151983,202.0
18048.73370464922,454.0
18048.73376714646,344.0
18048.733829643694,-34.0
18048.733892140932,-791.0
18048.73395463817,-1372.0
18048.734017135408,-1351.0
18048.734079632643,-973.0
18048.73414212988,-1497.0
18048.73420462712,-1804.0
18048.734267124357,-969.0
18048.73432962159,-369.0
18048.73439211883,-575.0
18048.734454616068,-1341.0
18048.734517113306,-1896.0
18048.73457961054,-2112.0
18048.73464210778,-2268.0
18048.734704605016,-2366.0
18048.734767102254,-2434.0
18048.73482959949,-1688.0
18048.734892096727,-840.0
18048.734954593965,-321.0
18048.7350170912,-292.0
18048.735079588438,232.0
18048.735142085676,916.0
18048.735204582914,663.0
18048.73526708015,541.0
18048.735329577386,-112.0
18048.735392074625,-995.0
18048.735454571863,-1877.0
18048.735517069097,-1899.0
18048.735579566335,-1650.0
18048.735642063573,-1198.0
18048.73570456081,-397.0
18048.735767058046,-517.0
18048.735829555284,-177.0
18048.735892052522,-89.0
18048.73595454976,-438.0
18048.736017046995,-541.0
18048.736079544233,-434.0
18048.73614204147,98.0
18048.73620453871,-195.0
18048.736267035943,-676.0
18048.73632953318,-560.0
18048.73639203042,-171.0
18048.736454527658,765.0
18048.736517024892,1165.0
18048.73657952213,779.0
18048.73664201937,703.0
18048.736704516603,962.0
18048.73676701384,1177.0
18048.73682951108,1052.0
18048.736892008317,655.0
18048.73695450555,624.0
18048.73701700279,654.0
18048.737079500028,620.0
18048.737141997266,831.0
18048.7372044945,501.0
18048.73726699174,525.0
18048.737329488977,321.0
18048.737391986215,-166.0
18048.73745448345,76.0
18048.737516980687,319.0
18048.737579477925,104.0
18048.737641975164,-35.0
18048.737704472398,759.0
18048.737766969636,1113.0
18048.737829466874,427.0
18048.737891964112,-280.0
18048.737954461347,-245.0
18048.738016958585,-68.0
18048.738079455823,-182.0
18048.73814195306,114.0
18048.738204450296,197.0
18048.738266947534,419.0
18048.73832944477,839.0
18048.73839194201,906.0
18048.738454439244,744.0
18048.738516936482,360.0
18048.73857943372,105.0
18048.738641930955,225.0
18048.738704428193,428.0
18048.73876692543,620.0
18048.73882942267,672.0
18048.738891919904,515.0
18048.738954417142,374.0
18048.73901691438,44.0
18048.739079411618,-416.0
18048.739141908853,-538.0
18048.73920440609,-651.0
18048.73926690333,-901.0
18048.739329400567,-207.0
18048.7393918978,138.0
18048.73945439504,-500.0
18048.739516892278,-668.0
18048.739579389516,-307.0
18048.73964188675,495.0
18048.73970438399,243.0
18048.739766881226,-680.0
18048.739829378464,-860.0
18048.7398918757,-503.0
18048.739954372937,46.0
18048.740016870175,-19.0
18048.740079367413,-560.0
18048.740141864648,-710.0
18048.740204361886,-492.0
18048.740266859124,-226.0
18048.74032935636,-209.0
18048.740391853597,-161.0
18048.740454350835,6.0
18048.740516848073,18.0
18048.740579345307,-98.0
18048.740641842545,-177.0
18048.740704339783,-554.0
18048.74076683702,-916.0
18048.740829334256,-943.0
18048.740891831494,-526.0
18048.740954328732,-250.0
18048.74101682597,-893.0
18048.741079323205,-1166.0
18048.741141820443,-905.0
18048.74120431768,-941.0
18048.74126681492,-958.0
18048.741329312154,-706.0
18048.74139180939,-370.0
18048.74145430663,-417.0
18048.741516803868,-786.0
18048.741579301102,-259.0
18048.74164179834,-24.0
18048.74170429558,-174.0
18048.741766792817,-138.0
18048.74182929005,-438.0
18048.74189178729,-167.0
18048.741954284527,74.0
18048.74201678176,-209.0
18048.742079279,-342.0
18048.742141776238,-56.0
18048.742204273476,619.0
18048.74226677071,538.0
18048.74232926795,-184.0
18048.742391765187,-624.0
18048.742454262425,-792.0
18048.74251675966,-1067.0
18048.742579256897,-1114.0
18048.742641754136,-721.0
18048.742704251374,-909.0
18048.742766748608,-1114.0
18048.742829245846,19.0
18048.742891743084,961.0
18048.742954240322,716.0
18048.743016737557,427.0
18048.743079234795,428.0
18048.743141732033,843.0
18048.74320422927,1328.0
18048.743266726506,967.0
18048.743329223744,644.0
18048.743391720982,1061.0
18048.74345421822,1342.0
18048.743516715454,1302.0
18048.743579212693,1178.0
18048.74364170993,1158.0
18048.74370420717,1478.0
18048.743766704403,2320.0
18048.74382920164,3332.0
18048.74389169888,2918.0
18048.743954196114,2233.0
18048.744016693352,1864.0
18048.74407919059,1430.0
18048.74414168783,1329.0
18048.744204185063,1096.0
18048.7442666823,805.0
18048.74432917954,1085.0
18048.744391676777,1360.0
18048.74445417401,1271.0
18048.74451667125,1471.0
18048.744579168488,1576.0
18048.744641665726,1331.0
18048.74470416296,1656.0
18048.7447666602,2016.0
18048.744829157436,1643.0
18048.744891654675,1611.0
18048.74495415191,1440.0
18048.745016649147,1200.0
18048.745079146385,754.0
18048.745141643623,547.0
18048.745204140858,1033.0
18048.745266638096,834.0
18048.745329135334,529.0
18048.745391632572,549.0
18048.745454129807,756.0
18048.745516627045,1240.0
18048.745579124283,1133.0
18048.745641621517,673.0
18048.745704118755,60.0
18048.745766615993,-382.0
18048.74582911323,54.0
18048.745891610466,147.0
18048.745954107704,-162.0
18048.746016604942,-407.0
18048.74607910218,-470.0
18048.746141599415,-71.0
18048.746204096653,-202.0
18048.74626659389,-823.0
18048.74632909113,-634.0
18048.746391588364,217.0
18048.7464540856,1071.0
18048.74651658284,1008.0
18048.746579080078,430.0
18048.746641577312,23.0
18048.74670407455,-368.0
18048.74676657179,-603.0
18048.746829069027,-687.0
18048.74689156626,-888.0
18048.7469540635,-1224.0
18048.747016560737,-1024.0
18048.747079057975,-1010.0
18048.74714155521,-744.0
18048.747204052448,-430.0
18048.747266549686,-932.0
18048.74732904692,-617.0
18048.74739154416,24.0
18048.747454041397,139.0
18048.747516538635,452.0
18048.74757903587,581.0
18048.747641533108,360.0
18048.747704030346,-161.0
18048.747766527584,-498.0
18048.74782902482,-326.0
18048.747891522056,-733.0
18048.747954019294,-1037.0
18048.748016516533,-918.0
18048.748079013767,-915.0
18048.748141511005,-1066.0
18048.748204008243,-1002.0
18048.74826650548,-1127.0
18048.748329002716,-1146.0
18048.748391499954,-732.0
18048.748453997192,-930.0
18048.74851649443,-1194.0
18048.748578991665,-778.0
18048.748641488903,-690.0
18048.74870398614,-898.0
18048.74876648338,-607.0
18048.748828980613,-359.0
18048.74889147785,-289.0
18048.74895397509,-729.0
18048.749016472328,-1235.0
18048.749078969562,-902.0
18048.7491414668,-284.0
18048.74920396404,202.0
18048.749266461273,-34.0
18048.74932895851,-558.0
18048.74939145575,-295.0
18048.749453952987,371.0
18048.74951645022,588.0
18048.74957894746,-19.0
18048.749641444698,-437.0
18048.749703941936,-83.0
18048.74976643917,360.0
18048.74982893641,280.0
18048.749891433647,-374.0
18048.749953930885,-710.0
18048.75001642812,-389.0
18048.750078925357,182.0
18048.750141422595,239.0
18048.750203919833,-401.0
18048.750266417068,-748.0
18048.750328914306,-464.0
18048.750391411544,106.0
18048.750453908782,45.0
18048.750516406017,-1065.0
18048.750578903255,-1255.0
18048.750641400493,-357.0
18048.75070389773,218.0
18048.750766394965,566.0
18048.750828892204,477.0
18048.75089138944,-36.0
18048.750953886676,217.0
18048.751016383914,742.0
18048.751078881152,609.0
18048.75114137839,274.0
18048.751203875625,-312.0
18048.751266372863,-436.0
18048.7513288701,457.0
18048.75139136734,860.0
18048.751453864574,748.0
18048.75151636181,373.0
18048.75157885905,-258.0
18048.751641356288,114.0
18048.751703853522,401.0
18048.75176635076,-320.0
18048.751828848,-820.0
18048.751891345237,-417.0
18048.75195384247,510.0
18048.75201633971,952.0
18048.752078836947,423.0
18048.752141334186,-480.0
18048.75220383142,-944.0
18048.752266328658,-752.0
18048.752328825896,-369.0
18048.752391323134,-455.0
18048.75245382037,-1085.0
18048.752516317607,-827.0
18048.752578814845,88.0
18048.75264131208,181.0
18048.752703809318,-108.0
18048.752766306556,-191.0
18048.752828803794,-167.0
18048.75289130103,-63.0
18048.752953798266,-198.0
18048.753016295504,-1010.0
18048.753078792743,-820.0
18048.753141289977,76.0
18048.753203787215,517.0
18048.753266284453,739.0
18048.75332878169,473.0
18048.753391278926,478.0
18048.753453776164,829.0
18048.753516273402,459.0
18048.75357877064,55.0
18048.753641267875,180.0
18048.753703765113,388.0
18048.75376626235,576.0
18048.75382875959,394.0
18048.753891256823,109.0
18048.75395375406,344.0
18048.7540162513,664.0
18048.754078748538,652.0
18048.754141245772,313.0
18048.75420374301,214.0
18048.75426624025,276.0
18048.754328737487,-135.0
18048.75439123472,-195.0
18048.75445373196,-111.0
18048.754516229197,-365.0
18048.75457872643,-550.0
18048.75464122367,-759.0
18048.754703720908,-729.0
18048.754766218146,-402.0
18048.75482871538,-523.0
18048.75489121262,-810.0
18048.754953709857,-724.0
18048.755016207095,-288.0
18048.75507870433,239.0
18048.755141201567,472.0
18048.755203698805,-51.0
18048.755266196044,-185.0
18048.755328693278,11.0
18048.755391190516,-47.0
18048.755453687754,-170.0
18048.755516184992,-396.0
18048.755578682227,-541.0
18048.755641179465,-323.0
18048.755703676703,-554.0
18048.75576617394,-1424.0
18048.755828671176,-1285.0
18048.755891168414,-929.0
18048.75595366565,-337.0
18048.75601616289,246.0
18048.756078660124,76.0
18048.756141157362,-129.0
18048.7562036546,-699.0
18048.756266151835,-1096.0
18048.756328649073,-1277.0
18048.75639114631,-1237.0
18048.75645364355,-1424.0
18048.756516140784,-1469.0
18048.756578638022,-1036.0
18048.75664113526,-828.0
18048.756703632498,-721.0
18048.756766129733,-1118.0
18048.75682862697,-1301.0
18048.75689112421,-589.0
18048.756953621447,-394.0
18048.75701611868,-777.0
18048.75707861592,-1134.0
18048.757141113158,-1058.0
18048.757203610396,-883.0
18048.75726610763,-634.0
18048.75732860487,-157.0
18048.757391102106,-1.0
18048.757453599344,17.0
18048.75751609658,-20.0
18048.757578593817,84.0
18048.757641091055,536.0
18048.757703588293,399.0
18048.757766085528,-690.0
18048.757828582766,-791.0
18048.757891080004,-23.0
18048.757953577242,214.0
18048.758016074476,428.0
18048.758078571715,491.0
18048.758141068953,385.0
18048.758203566187,1153.0
18048.758266063425,1714.0
18048.758328560663,1316.0
18048.7583910579,1203.0
18048.758453555136,876.0
18048.758516052374,803.0
18048.758578549612,1065.0
18048.75864104685,681.0
18048.758703544085,-53.0
18048.758766041323,12.0
18048.75882853856,697.0
18048.7588910358,1318.0
18048.758953533033,1547.0
18048.75901603027,1109.0
18048.75907852751,605.0
18048.759141024748,303.0
18048.759203521982,449.0
18048.75926601922,864.0
18048.75932851646,977.0
18048.759391013697,1040.0
18048.75945351093,1278.0
18048.75951600817,1435.0
18048.759578505407,1907.0
18048.759641002645,2202.0
18048.75970349988,1860.0
18048.759765997118,1727.0
18048.759828494356,2086.0
18048.75989099159,2279.0
18048.75995348883,1755.0
18048.760015986067,1083.0
18048.760078483305,329.0
18048.76014098054,78.0
18048.760203477777,776.0
18048.760265975015,966.0
18048.760328472254,1006.0
18048.760390969488,705.0
18048.760453466726,221.0
18048.760515963964,568.0
18048.760578461202,627.0
18048.760640958437,316.0
18048.760703455675,-180.0
18048.760765952913,-566.0
18048.76082845015,-264.0
18048.760890947386,222.0
18048.760953444624,-71.0
18048.761015941862,-581.0
18048.7610784391,-604.0
18048.761140936334,63.0
18048.761203433573,695.0
18048.76126593081,459.0
18048.76132842805,-69.0
18048.761390925283,-389.0
18048.76145342252,-443.0
18048.76151591976,-845.0
18048.761578416998,-1426.0
18048.761640914232,-1536.0
18048.76170341147,-1585.0
18048.76176590871,-1467.0
18048.761828405943,-1087.0
18048.76189090318,-1267.0
18048.76195340042,-1392.0
18048.762015897657,-1043.0
18048.76207839489,-623.0
18048.76214089213,-44.0
18048.762203389368,237.0
18048.762265886606,405.0
18048.76232838384,369.0
18048.76239088108,51.0
18048.762453378316,130.0
18048.762515875555,283.0
18048.76257837279,206.0
18048.762640870027,254.0
18048.762703367265,74.0
18048.762765864503,-421.0
18048.762828361738,-556.0
18048.762890858976,-636.0
18048.762953356214,-450.0
18048.763015853452,-515.0
18048.763078350687,-1061.0
18048.763140847925,-794.0
18048.763203345163,-263.0
18048.7632658424,-231.0
18048.763328339635,-334.0
18048.763390836873,-470.0
18048.76345333411,-144.0
18048.763515831346,295.0
18048.763578328584,-151.0
18048.763640825822,-1087.0
18048.76370332306,-1416.0
18048.763765820295,-1165.0
18048.763828317533,-900.0
18048.76389081477,-903.0
18048.76395331201,-1160.0
18048.764015809244,-1154.0
18048.76407830648,-766.0
18048.76414080372,-374.0
18048.764203300958,-327.0
18048.764265798192,-818.0
18048.76432829543,-631.0
18048.76439079267,-132.0
18048.764453289907,-362.0
18048.76451578714,-418.0
18048.76457828438,-418.0
18048.764640781617,-339.0
18048.764703278855,135.0
18048.76476577609,220.0
18048.764828273328,-1.0
18048.764890770566,-278.0
18048.764953267804,-466.0
18048.76501576504,-505.0
18048.765078262277,-584.0
18048.765140759515,-484.0
18048.76520325675,-867.0
18048.765265753987,-978.0
18048.765328251226,-869.0
18048.765390748464,-1262.0
18048.765453245698,-1888.0
18048.765515742936,-1965.0
18048.765578240174,-1269.0
18048.765640737412,-629.0
18048.765703234647,-292.0
18048.765765731885,-542.0
18048.765828229123,-909.0
18048.76589072636,-641.0
18048.765953223596,-608.0
18048.766015720834,-650.0
18048.766078218072,-519.0
18048.76614071531,-434.0
18048.766203212544,-701.0
18048.766265709783,-983.0
18048.76632820702,-1134.0
18048.76639070426,-1216.0
18048.766453201493,-854.0
18048.76651569873,-693.0
18048.76657819597,-646.0
18048.766640693208,-481.0
18048.766703190442,-367.0
18048.76676568768,-464.0
18048.76682818492,-648.0
18048.766890682156,-780.0
18048.76695317939,-734.0
18048.76701567663,-469.0
18048.767078173867,-703.0
18048.7671406711,-1290.0
18048.76720316834,-1063.0
18048.767265665578,-504.0
18048.767328162816,-292.0
18048.76739066005,-208.0
18048.76745315729,-176.0
18048.767515654527,-171.0
18048.767578151765,-238.0
18048.767640649,-46.0
18048.767703146237,13.0
18048.767765643475,-136.0
18048.767828140713,-122.0
18048.767890637948,-33.0
18048.767953135186,143.0
18048.768015632424,-254.0
18048.768078129662,-1009.0
18048.768140626897,-976.0
18048.768203124135,-882.0
18048.768265621373,-1055.0
18048.76832811861,-1425.0
18048.768390615845,-1697.0
18048.768453113084,-1602.0
18048.76851561032,-1104.0
18048.76857810756,-751.0
18048.768640604794,-806.0
18048.768703102032,-906.0
18048.76876559927,-1116.0
18048.768828096505,-946.0
18048.768890593743,-297.0
18048.76895309098,-360.0
18048.76901558822,-672.0
18048.769078085454,-251.0
18048.76914058269,-302.0
18048.76920307993,-596.0
18048.769265577168,-544.0
18048.769328074402,-388.0
18048.76939057164,-513.0
18048.76945306888,-642.0
18048.769515566117,-320.0
18048.76957806335,221.0
18048.76964056059,369.0
18048.769703057827,-18.0
18048.769765555066,-15.0
18048.7698280523,363.0
18048.769890549538,254.0
18048.769953046776,225.0
18048.770015544014,-161.0
18048.77007804125,-583.0
18048.770140538487,43.0
18048.770203035725,601.0
18048.770265532963,511.0
18048.770328030198,425.0
18048.770390527436,558.0
18048.770453024674,884.0
18048.77051552191,1126.0
18048.770578019146,1127.0
18048.770640516384,1152.0
18048.770703013623,589.0
18048.770765510857,69.0
18048.770828008095,317.0
18048.770890505333,380.0
18048.77095300257,483.0
18048.771015499806,394.0
18048.771077997044,12.0
18048.771140494282,209.0
18048.77120299152,572.0
18048.771265488755,324.0
18048.771327985993,-19.0
18048.77139048323,-57.0
18048.77145298047,-109.0
18048.771515477703,-13.0
18048.77157797494,39.0
18048.77164047218,-463.0
18048.771702969418,-661.0
18048.771765466652,-353.0
18048.77182796389,30.0
18048.77189046113,90.0
18048.771952958366,-239.0
18048.7720154556,-286.0
18048.77207795284,310.0
18048.772140450077,866.0
18048.772202947315,823.0
18048.77226544455,369.0
18048.772327941788,5.0
18048.772390439026,-104.0
18048.77245293626,-465.0
18048.7725154335,-573.0
18048.772577930737,-456.0
18048.772640427975,-271.0
18048.77270292521,182.0
18048.772765422447,330.0
18048.772827919685,264.0
18048.772890416923,-115.0
18048.772952914158,-287.0
18048.773015411396,-353.0
18048.773077908634,-725.0
18048.773140405872,-802.0
18048.773202903107,-981.0
18048.773265400345,-1055.0
18048.773327897583,-494.0
18048.77339039482,-252.0
18048.773452892056,-399.0
18048.773515389294,-132.0
18048.77357788653,-118.0
18048.77364038377,-402.0
18048.773702881004,-473.0
18048.773765378242,-742.0
18048.77382787548,-466.0
18048.77389037272,546.0
18048.773952869953,817.0
18048.77401536719,540.0
18048.77407786443,907.0
18048.774140361664,1033.0
18048.774202858902,610.0
18048.77426535614,244.0
18048.774327853378,-80.0
18048.774390350613,-388.0
18048.77445284785,-429.0
18048.77451534509,-246.0
18048.774577842327,-292.0
18048.77464033956,-452.0
18048.7747028368,-1056.0
18048.774765334038,-1323.0
18048.774827831276,-925.0
18048.77489032851,-874.0
18048.77495282575,-1128.0
18048.775015322986,-1947.0
18048.775077820224,-2647.0
18048.77514031746,-2484.0
18048.775202814697,-1940.0
18048.775265311935,-2037.0
18048.775327809173,-1600.0
18048.775390306408,-783.0
18048.775452803646,-580.0
18048.775515300884,-275.0
18048.775577798122,-330.0
18048.775640295356,-287.0
18048.775702792595,-556.0
18048.775765289833,-701.0
18048.775827787067,-74.0
18048.775890284305,-516.0
18048.775952781543,-1040.0
18048.77601527878,-987.0
18048.776077776016,-950.0
18048.776140273254,-136.0
18048.776202770492,214.0
18048.77626526773,-150.0
18048.776327764965,-209.0
18048.776390262203,-110.0
18048.77645275944,-285.0
18048.77651525668,-512.0
18048.776577753913,-497.0
18048.77664025115,-712.0
18048.77670274839,-418.0
18048.776765245628,-295.0
18048.776827742862,-272.0
18048.7768902401,-234.0
18048.77695273734,-1295.0
18048.777015234577,-1435.0
18048.77707773181,-547.0
18048.77714022905,-170.0
18048.777202726287,-643.0
18048.777265223525,-1085.0
18048.77732772076,-897.0
18048.777390217998,-541.0
18048.777452715236,-256.0
18048.777515212474,-580.0
18048.77757770971,-582.0
18048.777640206947,-340.0
18048.777702704185,-244.0
18048.77776520142,-5.0
18048.777827698657,-344.0
18048.777890195895,-486.0
18048.777952693134,-459.0
18048.778015190368,-425.0
18048.778077687606,-88.0
18048.778140184844,-339.0
18048.778202682082,-347.0
18048.778265179317,410.0
18048.778327676555,415.0
18048.778390173793,-50.0
18048.77845267103,169.0
18048.778515168266,-183.0
18048.778577665504,-774.0
18048.77864016274,-689.0
18048.77870265998,-753.0
18048.778765157214,-1058.0
18048.778827654452,-1085.0
18048.77889015169,-982.0
18048.77895264893,-995.0
18048.779015146163,-921.0
18048.7790776434,-717.0
18048.77914014064,1.0
18048.779202637877,456.0
18048.779265135112,-25.0
18048.77932763235,-407.0
18048.779390129588,-445.0
18048.779452626823,-815.0
18048.77951512406,-1223.0
18048.7795776213,-1223.0
18048.779640118537,-958.0
18048.77970261577,-453.0
18048.77976511301,-132.0
18048.779827610248,-77.0
18048.779890107486,-47.0
18048.77995260472,-278.0
18048.78001510196,-538.0
18048.780077599196,-729.0
18048.780140096434,-857.0
18048.78020259367,-855.0
18048.780265090907,-845.0
18048.780327588145,-898.0
18048.780390085383,-943.0
18048.780452582618,-641.0
18048.780515079856,-302.0
18048.780577577094,-265.0
18048.780640074332,-321.0
18048.780702571567,-158.0
18048.780765068805,142.0
18048.780827566043,5.0
18048.78089006328,-396.0
18048.780952560515,-811.0
18048.781015057753,-973.0
18048.78107755499,-637.0
18048.78114005223,-417.0
18048.781202549464,-862.0
18048.781265046702,-1274.0
18048.78132754394,-1043.0
18048.781390041175,-579.0
18048.781452538413,-558.0
18048.78151503565,-960.0
18048.78157753289,-1171.0
18048.781640030124,-981.0
18048.78170252736,-901.0
18048.7817650246,-767.0
18048.781827521838,-1065.0
18048.781890019072,-1435.0
18048.78195251631,-900.0
18048.78201501355,-162.0
18048.782077510787,-242.0
18048.78214000802,-443.0
18048.78220250526,-455.0
18048.782265002497,-744.0
18048.782327499735,-1185.0
18048.78238999697,-1506.0
18048.782452494208,-1641.0
18048.782514991446,-2154.0
18048.782577488684,-2211.0
18048.78263998592,-1941.0
18048.782702483157,-1869.0
18048.782764980395,-1801.0
18048.782827477633,-2025.0
18048.782889974867,-1954.0
18048.782952472106,-1378.0
18048.783014969344,-1187.0
18048.783077466578,-1366.0
18048.783139963816,-2034.0
18048.783202461054,-2726.0
18048.783264958292,-2714.0
18048.783327455527,-2535.0
18048.783389952765,-2196.0
18048.783452450003,-1445.0
18048.78351494724,-980.0
18048.783577444476,-919.0
18048.783639941714,-889.0
18048.783702438952,-709.0
18048.78376493619,-455.0
18048.783827433424,-710.0
18048.783889930663,-716.0
18048.7839524279,-521.0
18048.78401492514,-589.0
18048.784077422373,-743.0
18048.78413991961,-1055.0
18048.78420241685,-1096.0
18048.784264914088,-702.0
18048.784327411322,-443.0
18048.78438990856,-844.0
18048.7844524058,-475.0
18048.784514903036,-233.0
18048.78457740027,-361.0
18048.78463989751,-404.0
18048.784702394747,-348.0
18048.784764891985,685.0
18048.78482738922,712.0
18048.784889886458,-83.0
18048.784952383696,-419.0
18048.78501488093,56.0
18048.78507737817,783.0
18048.785139875406,605.0
18048.785202372645,217.0
18048.78526486988,146.0
18048.785327367117,315.0
18048.785389864355,859.0
18048.785452361593,849.0
18048.785514858828,385.0
18048.785577356066,555.0
18048.785639853304,764.0
18048.785702350542,659.0
18048.785764847777,68.0
18048.785827345015,-651.0
18048.785889842253,-442.0
18048.78595233949,-213.0
18048.786014836725,34.0
18048.786077333963,717.0
18048.7861398312,1470.0
18048.78620232844,1470.0
18048.786264825674,1074.0
18048.786327322912,876.0
18048.78638982015,937.0
18048.78645231739,1237.0
18048.786514814623,1121.0
18048.78657731186,626.0
18048.7866398091,318.0
18048.786702306334,591.0
18048.78676480357,1012.0
18048.78682730081,653.0
18048.786889798048,127.0
18048.786952295282,316.0
18048.78701479252,399.0
18048.78707728976,422.0
18048.787139786997,672.0
18048.78720228423,269.0
18048.78726478147,16.0
18048.787327278707,446.0
18048.787389775945,588.0
18048.78745227318,587.0
18048.787514770418,550.0
18048.787577267656,740.0
18048.787639764894,534.0
18048.78770226213,169.0
18048.787764759367,105.0
18048.787827256605,-369.0
18048.787889753843,-910.0
18048.787952251078,-1298.0
18048.788014748316,-1357.0
18048.788077245554,-872.0
18048.788139742792,-248.0
18048.788202240026,-859.0
18048.788264737264,-1512.0
18048.788327234503,-1257.0
18048.788389731737,-1062.0
18048.788452228975,-1248.0
18048.788514726213,-1331.0
18048.78857722345,-1281.0
18048.788639720686,-1033.0
18048.788702217924,-599.0
18048.788764715162,-611.0
18048.7888272124,-620.0
18048.788889709635,-678.0
18048.788952206873,-472.0
18048.78901470411,-28.0
18048.78907720135,-502.0
18048.789139698583,-244.0
18048.78920219582,-63.0
18048.78926469306,-599.0
18048.789327190298,-716.0
18048.789389687532,-688.0
18048.78945218477,-355.0
18048.78951468201,19.0
18048.789577179246,-144.0
18048.78963967648,-207.0
18048.78970217372,-449.0
18048.789764670957,-974.0
18048.789827168195,-1153.0
18048.78988966543,-1075.0
18048.789952162668,-566.0
18048.790014659906,-135.0
18048.790077157144,-533.0
18048.79013965438,-1341.0
18048.790202151617,-1502.0
18048.790264648855,-1007.0
18048.79032714609,-1093.0
18048.790389643327,-1562.0
18048.790452140565,-2051.0
18048.790514637803,-2035.0
18048.790577135038,-1777.0
18048.790639632276,-2046.0
18048.790702129514,-2527.0
18048.790764626752,-2444.0
18048.790827123987,-1382.0
18048.790889621225,-831.0
18048.790952118463,-1111.0
18048.7910146157,-1905.0
18048.791077112935,-2413.0
18048.791139610174,-2009.0
18048.79120210741,-1204.0
18048.79126460465,-1155.0
18048.791327101884,-1334.0
18048.791389599122,-1421.0
18048.79145209636,-1029.0
18048.7915145936,-866.0
18048.791577090833,-1409.0
18048.79163958807,-1392.0
18048.79170208531,-1109.0
18048.791764582547,-927.0
18048.79182707978,-37.0
18048.79188957702,50.0
18048.791952074258,-443.0
18048.792014571492,-475.0
18048.79207706873,-532.0
18048.79213956597,-461.0
18048.792202063207,-582.0
18048.79226456044,-406.0
18048.79232705768,-345.0
18048.792389554917,-565.0
18048.792452052156,-374.0
18048.79251454939,-363.0
18048.792577046628,-396.0
18048.792639543866,-499.0
18048.792702041104,-694.0
18048.79276453834,-261.0
18048.792827035577,606.0
18048.792889532815,589.0
18048.792952030053,123.0
18048.793014527288,47.0
18048.793077024526,136.0
18048.793139521764,445.0
18048.793202019002,216.0
18048.793264516236,-355.0
18048.793327013474,-594.0
18048.793389510713,-577.0
18048.79345200795,-455.0
18048.793514505185,-491.0
18048.793577002423,-692.0
18048.79363949966,-494.0
18048.793701996896,-142.0
18048.793764494134,-23.0
18048.793826991372,55.0
18048.79388948861,186.0
18048.793951985845,-182.0
18048.794014483083,-705.0
18048.79407698032,-902.0
18048.79413947756,-561.0
18048.794201974793,-373.0
18048.79426447203,-820.0
18048.79432696927,-742.0
18048.794389466508,-731.0
18048.794451963742,-406.0
18048.79451446098,-103.0
18048.79457695822,-655.0
18048.794639455456,-1205.0
18048.79470195269,-1535.0
18048.79476444993,-1186.0
18048.794826947167,-883.0
18048.794889444405,-936.0
18048.79495194164,-1026.0
18048.795014438878,-1233.0
18048.795076936116,-751.0
18048.795139433354,-432.0
18048.79520193059,-1029.0
18048.795264427827,-1089.0
18048.795326925065,-760.0
18048.795389422303,-495.0
18048.795451919537,-446.0
18048.795514416775,-668.0
18048.795576914014,-990.0
18048.795639411248,-1051.0
18048.795701908486,-667.0
18048.795764405724,-752.0
18048.795826902962,-1015.0
18048.795889400197,-1144.0
18048.795951897435,-1233.0
18048.796014394673,-999.0
18048.79607689191,-880.0
18048.796139389146,-1007.0
18048.796201886384,-976.0
18048.79626438362,-654.0
18048.79632688086,-76.0
18048.796389378094,-140.0
18048.796451875332,-627.0
18048.79651437257,-765.0
18048.79657686981,-369.0
18048.796639367043,-114.0
18048.79670186428,-329.0
18048.79676436152,-213.0
18048.796826858757,30.0
18048.796889355992,-223.0
18048.79695185323,-332.0
18048.797014350468,-203.0
18048.797076847706,-20.0
18048.79713934494,-146.0
18048.79720184218,-682.0
18048.797264339417,-468.0
18048.79732683665,63.0
18048.79738933389,-225.0
18048.797451831128,-579.0
18048.797514328366,-753.0
18048.7975768256,-509.0
18048.79763932284,116.0
18048.797701820076,343.0
18048.797764317314,536.0
18048.79782681455,596.0
18048.797889311787,221.0
18048.797951809025,-441.0
18048.798014306263,-523.0
18048.798076803498,-204.0
18048.798139300736,-331.0
18048.798201797974,-443.0
18048.798264295212,-636.0
18048.798326792446,39.0
18048.798389289685,720.0
18048.798451786923,-136.0
18048.79851428416,-746.0
18048.798576781395,-3.0
18048.798639278633,621.0
18048.79870177587,211.0
18048.79876427311,-497.0
18048.798826770344,-820.0
18048.798889267582,-389.0
18048.79895176482,-80.0
18048.799014262055,-549.0
18048.799076759293,-950.0
18048.79913925653,-1125.0
18048.79920175377,-673.0
18048.799264251003,-137.0
18048.79932674824,123.0
18048.79938924548,-333.0
18048.799451742718,-985.0
18048.799514239952,-1066.0
18048.79957673719,-675.0
18048.79963923443,-428.0
18048.799701731667,-991.0
18048.7997642289,-1311.0
18048.79982672614,-1140.0
18048.799889223377,-971.0
18048.799951720615,-425.0
18048.80001421785,-521.0
18048.800076715088,-1133.0
18048.800139212326,-1211.0
18048.800201709564,-773.0
18048.8002642068,130.0
18048.800326704037,143.0
18048.800389201275,-435.0
18048.800451698513,-823.0
18048.800514195747,-688.0
18048.800576692985,-255.0
18048.800639190224,-187.0
18048.80070168746,-904.0
18048.800764184696,-1902.0
18048.800826681934,-1571.0
18048.800889179172,-442.0
18048.800951676407,-103.0
18048.801014173645,-499.0
18048.801076670883,-1366.0
18048.80113916812,-1531.0
18048.801201665356,-625.0
18048.801264162594,-888.0
18048.801326659832,-1489.0
18048.80138915707,-1190.0
18048.801451654304,-909.0
18048.801514151543,-591.0
18048.80157664878,-297.0
18048.80163914602,-369.0
18048.801701643253,-711.0
18048.80176414049,-692.0
18048.80182663773,-587.0
18048.801889134967,16.0
18048.801951632202,661.0
18048.80201412944,296.0
18048.802076626678,-126.0
18048.802139123916,-204.0
18048.80220162115,204.0
18048.80226411839,571.0
18048.802326615627,443.0
18048.802389112865,92.0
18048.8024516101,325.0
18048.802514107338,931.0
18048.802576604576,903.0
18048.80263910181,761.0
18048.80270159905,438.0
18048.802764096286,110.0
18048.802826593525,447.0
18048.80288909076,755.0
18048.802951587997,404.0
18048.803014085235,-94.0
18048.803076582473,-314.0
18048.803139079708,-88.0
18048.803201576946,580.0
18048.803264074184,794.0
18048.803326571422,210.0
18048.803389068657,-363.0
18048.803451565895,-515.0
18048.803514063133,-598.0
18048.80357656037,-647.0
18048.803639057605,-741.0
18048.803701554843,-876.0
18048.80376405208,-1032.0
18048.80382654932,-1105.0
18048.803889046554,-1024.0
18048.803951543792,-621.0
18048.80401404103,-660.0
18048.80407653827,-757.0
18048.804139035503,-559.0
18048.80420153274,-441.0
18048.80426402998,-373.0
18048.804326527217,-554.0
18048.80438902445,-641.0
18048.80445152169,-461.0
18048.804514018928,1.0
18048.804576516162,321.0
18048.8046390134,134.0
18048.80470151064,-158.0
18048.804764007877,-529.0
18048.80482650511,-614.0
18048.80488900235,-244.0
18048.804951499587,27.0
18048.805013996825,-399.0
18048.80507649406,-938.0
18048.805138991298,-721.0
18048.805201488536,-272.0
18048.805263985774,-496.0
18048.80532648301,-850.0
18048.805388980247,-1020.0
18048.805451477485,-1079.0
18048.805513974723,-707.0
18048.805576471957,-849.0
18048.805638969196,-1388.0
18048.805701466434,-1454.0
18048.80576396367,-1215.0
18048.805826460906,-790.0
18048.805888958144,-793.0
18048.805951455382,-1205.0
18048.80601395262,-1490.0
18048.806076449855,-1149.0
18048.806138947093,-837.0
18048.80620144433,-1165.0
18048.806263941566,-1375.0
18048.806326438804,-1276.0
18048.806388936042,-1069.0
18048.80645143328,-864.0
18048.806513930514,-734.0
18048.806576427753,-956.0
18048.80663892499,-905.0
18048.80670142223,-964.0
18048.806763919463,-1091.0
18048.8068264167,-788.0
18048.80688891394,-688.0
18048.806951411178,-639.0
18048.807013908412,-775.0
18048.80707640565,-1259.0
18048.80713890289,-1276.0
18048.807201400126,-1120.0
18048.80726389736,-981.0
18048.8073263946,-955.0
18048.807388891837,-923.0
18048.807451389075,-321.0
18048.80751388631,-115.0
18048.807576383548,-846.0
18048.807638880786,-1126.0
18048.807701378024,-829.0
18048.80776387526,-475.0
18048.807826372496,-405.0
18048.807888869735,-984.0
18048.807951366973,-1051.0
18048.808013864207,-402.0
18048.808076361445,-271.0
18048.808138858683,73.0
18048.808201355918,-1.0
18048.808263853156,-148.0
18048.808326350394,123.0
18048.808388847632,-37.0
18048.808451344867,9.0
18048.808513842105,-243.0
18048.808576339343,-200.0
18048.80863883658,524.0
18048.808701333815,411.0
18048.808763831054,-342.0
18048.80882632829,-542.0
18048.80888882553,-525.0
18048.808951322764,35.0
18048.809013820002,104.0
18048.80907631724,-687.0
18048.80913881448,-314.0
18048.809201311713,184.0
18048.80926380895,-124.0
18048.80932630619,-591.0
18048.809388803427,-1046.0
18048.80945130066,-836.0
18048.8095137979,156.0
18048.809576295138,158.0
18048.809638792376,-599.0
18048.80970128961,-832.0
18048.80976378685,-784.0
18048.809826284087,-465.0
18048.80988878132,-234.0
18048.80995127856,-399.0
18048.810013775797,-792.0
18048.810076273036,-760.0
18048.81013877027,-811.0
18048.810201267508,-631.0
18048.810263764746,-708.0
18048.810326261984,-1117.0
18048.81038875922,-912.0
18048.810451256457,-657.0
18048.810513753695,-873.0
18048.810576250933,-1265.0
18048.810638748168,-1039.0
18048.810701245406,-1138.0
18048.810763742644,-1267.0
18048.810826239882,-1033.0
18048.810888737116,-1028.0
18048.810951234354,-1021.0
18048.811013731593,-970.0
18048.81107622883,-687.0
18048.811138726065,80.0
18048.811201223303,90.0
18048.81126372054,-542.0
18048.81132621778,-627.0
18048.811388715014,-421.0
18048.811451212252,-712.0
18048.81151370949,-1330.0
18048.811576206725,-1467.0
18048.811638703963,-1208.0
18048.8117012012,-952.0
18048.81176369844,-979.0
18048.811826195673,-942.0
18048.81188869291,-614.0
18048.81195119015,-653.0
18048.812013687388,-504.0
18048.812076184622,-388.0
18048.81213868186,-431.0
18048.8122011791,168.0
18048.812263676336,176.0
18048.81232617357,-55.0
18048.81238867081,-15.0
18048.812451168047,-252.0
18048.812513665285,-729.0
18048.81257616252,-960.0
18048.812638659758,-472.0
18048.812701156996,89.0
18048.812763654234,-386.0
18048.81282615147,-726.0
18048.812888648707,-450.0
18048.812951145945,-367.0
18048.813013643183,-548.0
18048.813076140417,-1127.0
18048.813138637655,-1793.0
18048.813201134893,-1670.0
18048.81326363213,-1739.0
18048.813326129366,-2362.0
18048.813388626604,-2877.0
18048.813451123842,-3219.0
18048.813513621077,-3131.0
18048.813576118315,-2686.0
18048.813638615553,-2434.0
18048.81370111279,-2296.0
18048.813763610025,-2133.0
18048.813826107264,-2048.0
18048.8138886045,-1636.0
18048.81395110174,-1538.0
18048.814013598974,-1859.0
18048.814076096212,-1945.0
18048.81413859345,-1710.0
18048.81420109069,-1211.0
18048.814263587923,-1166.0
18048.81432608516,-1116.0
18048.8143885824,-599.0
18048.814451079637,-186.0
18048.814513576872,158.0
18048.81457607411,508.0
18048.814638571348,885.0
18048.814701068586,593.0
18048.81476356582,11.0
18048.81482606306,40.0
18048.814888560297,43.0
18048.814951057535,-232.0
18048.81501355477,-591.0
18048.815076052007,-817.0
18048.815138549246,-144.0
18048.81520104648,557.0
18048.815263543718,259.0
18048.815326040956,133.0
18048.815388538194,100.0
18048.81545103543,-149.0
18048.815513532667,123.0
18048.815576029905,-78.0
18048.815638527143,-429.0
18048.815701024378,-531.0
18048.815763521616,-293.0
18048.815826018854,220.0
18048.815888516092,194.0
18048.815951013326,-56.0
18048.816013510565,-224.0
18048.816076007803,-152.0
18048.81613850504,207.0
18048.816201002275,237.0
18048.816263499513,222.0
18048.81632599675,-205.0
18048.81638849399,-378.0
18048.816450991224,245.0
18048.816513488462,717.0
18048.8165759857,447.0
18048.81663848294,-235.0
18048.816700980173,32.0
18048.81676347741,810.0
18048.81682597465,696.0
18048.816888471883,522.0
18048.81695096912,135.0
18048.81701346636,-87.0
18048.817075963598,450.0
18048.817138460832,348.0
18048.81720095807,-277.0
18048.81726345531,-772.0
18048.817325952547,-868.0
18048.81738844978,-320.0
18048.81745094702,519.0
18048.817513444257,342.0
18048.817575941495,-55.0
18048.81763843873,313.0
18048.817700935968,939.0
18048.817763433206,1070.0
18048.817825930444,797.0
18048.81788842768,328.0
18048.817950924917,23.0
18048.818013422155,57.0
18048.818075919393,114.0
18048.818138416627,443.0
18048.818200913865,424.0
18048.818263411104,-297.0
18048.81832590834,-83.0
18048.818388405576,860.0
18048.818450902814,946.0
18048.818513400052,23.0
18048.81857589729,-1143.0
18048.818638394525,-1067.0
18048.818700891763,-106.0
18048.818763389,199.0
18048.818825886236,-544.0
18048.818888383474,-1074.0
18048.81895088071,-611.0
18048.81901337795,81.0
18048.819075875184,237.0
18048.819138372422,-214.0
18048.81920086966,-606.0
18048.8192633669,-349.0
18048.819325864133,-120.0
18048.81938836137,-376.0
18048.81945085861,-858.0
18048.819513355847,-1180.0
18048.819575853082,-1033.0
18048.81963835032,-681.0
18048.819700847558,-437.0
18048.819763344796,-301.0
18048.81982584203,-862.0
18048.81988833927,-1111.0
18048.819950836507,-309.0
18048.820013333745,-100.0
18048.82007583098,-203.0
18048.820138328218,-314.0
18048.820200825456,-877.0
18048.820263322694,-874.0
18048.82032581993,-86.0
18048.820388317166,-2.0
18048.820450814404,-598.0
18048.82051331164,-703.0
18048.820575808877,-556.0
18048.820638306115,-488.0
18048.820700803353,-387.0
18048.820763300588,-631.0
18048.820825797826,-984.0
18048.820888295064,-920.0
18048.820950792302,-600.0
18048.821013289536,-537.0
18048.821075786775,-625.0
18048.821138284013,-735.0
18048.82120078125,-662.0
18048.821263278485,-150.0
18048.821325775723,214.0
18048.82138827296,371.0
18048.8214507702,-263.0
18048.821513267434,-572.0
18048.821575764672,-64.0
18048.82163826191,161.0
18048.82170075915,654.0
18048.821763256383,891.0
18048.82182575362,639.0
18048.82188825086,245.0
18048.821950748097,152.0
18048.82201324533,274.0
18048.82207574257,68.0
18048.822138239808,-258.0
18048.822200737042,-60.0
18048.82226323428,281.0
18048.82232573152,185.0
18048.822388228757,57.0
18048.82245072599,-210.0
18048.82251322323,-470.0
18048.822575720467,-453.0
18048.822638217705,-99.0
18048.82270071494,-249.0
18048.822763212178,-647.0
18048.822825709416,-458.0
18048.822888206654,-118.0
18048.82295070389,61.0
18048.823013201127,29.0
18048.823075698365,-289.0
18048.823138195603,-463.0
18048.823200692837,-621.0
18048.823263190076,-536.0
18048.823325687314,-527.0
18048.82338818455,-670.0
18048.823450681786,-508.0
18048.823513179024,-236.0
18048.823575676262,-346.0
18048.8236381735,-422.0
18048.823700670735,-450.0
18048.823763167973,-784.0
18048.82382566521,-1160.0
18048.82388816245,-1646.0
18048.823950659684,-1525.0
18048.824013156922,-913.0
18048.82407565416,-808.0
18048.824138151394,-1008.0
18048.824200648633,-1280.0
18048.82426314587,-1490.0
18048.82432564311,-1574.0
18048.824388140343,-1767.0
18048.82445063758,-1720.0
18048.82451313482,-1688.0
18048.824575632058,-1735.0
18048.824638129292,-1564.0
18048.82470062653,-1709.0
18048.82476312377,-1687.0
18048.824825621006,-1425.0
18048.82488811824,-1202.0
18048.82495061548,-1023.0
18048.825013112717,-652.0
18048.825075609955,-535.0
18048.82513810719,-857.0
18048.825200604428,-697.0
18048.825263101666,-565.0
18048.825325598904,-660.0
18048.82538809614,-482.0
18048.825450593376,-591.0
18048.825513090615,-882.0
18048.825575587853,-657.0
18048.825638085087,-438.0
18048.825700582325,-709.0
18048.825763079563,-978.0
18048.825825576798,-692.0
18048.825888074036,-523.0
18048.825950571274,-720.0
18048.826013068512,-714.0
18048.826075565747,-748.0
18048.826138062985,-533.0
18048.826200560223,-282.0
18048.82626305746,-495.0
18048.826325554695,-881.0
18048.826388051933,-625.0
18048.82645054917,-191.0
18048.82651304641,-235.0
18048.826575543644,-365.0
18048.826638040882,-368.0
18048.82670053812,-275.0
18048.82676303536,-171.0
18048.826825532593,-157.0
18048.82688802983,-379.0
18048.82695052707,-501.0
18048.827013024307,-370.0
18048.82707552154,-243.0
18048.82713801878,-286.0
18048.827200516018,-583.0
18048.827263013256,-799.0
18048.82732551049,-799.0
18048.82738800773,-345.0
18048.827450504967,-157.0
18048.827513002205,-238.0
18048.82757549944,-122.0
18048.827637996677,-18.0
18048.827700493915,-117.0
18048.82776299115,-49.0
18048.827825488388,126.0
18048.827887985626,101.0
18048.827950482864,-134.0
18048.8280129801,-75.0
18048.828075477337,287.0
18048.828137974575,39.0
18048.828200471813,-74.0
18048.828262969048,10.0
18048.828325466286,-90.0
18048.828387963524,149.0
18048.82845046076,637.0
18048.828512957996,661.0
18048.828575455234,585.0
18048.828637952472,532.0
18048.82870044971,538.0
18048.828762946945,1031.0
18048.828825444183,1007.0
18048.82888794142,634.0
18048.82895043866,601.0
18048.829012935894,946.0
18048.829075433132,1125.0
18048.82913793037,1163.0
18048.829200427608,897.0
18048.829262924843,243.0
18048.82932542208,529.0
18048.82938791932,1134.0
18048.829450416553,1013.0
18048.82951291379,1277.0
18048.82957541103,1745.0
18048.829637908268,1703.0
18048.829700405502,1884.0
18048.82976290274,2008.0
18048.82982539998,1800.0
18048.829887897216,1612.0
18048.82995039445,1696.0
18048.83001289169,1665.0
18048.830075388927,1564.0
18048.830137886165,1523.0
18048.8302003834,1588.0
18048.830262880638,1720.0
18048.830325377876,2058.0
18048.830387875114,2391.0
18048.83045037235,2190.0
18048.830512869587,1929.0
18048.830575366825,1754.0
18048.830637864063,1855.0
18048.830700361297,1809.0
18048.830762858535,1505.0
18048.830825355773,1250.0
18048.83088785301,1142.0
18048.830950350246,1368.0
18048.831012847484,1778.0
18048.831075344722,1796.0
18048.83113784196,1444.0
18048.831200339195,1639.0
18048.831262836433,2109.0
18048.83132533367,2228.0
18048.831387830905,2045.0
18048.831450328144,1626.0
18048.83151282538,1002.0
18048.83157532262,663.0
18048.831637819854,703.0
18048.831700317092,412.0
18048.83176281433,90.0
18048.83182531157,-8.0
18048.831887808803,44.0
18048.83195030604,358.0
18048.83201280328,271.0
18048.832075300517,103.0
18048.83213779775,232.0
18048.83220029499,401.0
18048.832262792228,606.0
18048.832325289466,438.0
18048.8323877867,-253.0
18048.83245028394,-415.0
18048.832512781177,-93.0
18048.832575278415,-194.0
18048.83263777565,-285.0
18048.832700272887,143.0
18048.832762770126,725.0
18048.832825267364,869.0
18048.832887764598,877.0
18048.832950261836,923.0
18048.833012759074,777.0
18048.83307525631,586.0
18048.833137753547,661.0
18048.833200250785,625.0
18048.833262748023,433.0
18048.833325245258,501.0
18048.833387742496,707.0
18048.833450239734,770.0
18048.833512736972,691.0
18048.833575234206,635.0
18048.833637731444,894.0
18048.833700228683,1151.0
18048.83376272592,1167.0
18048.833825223155,878.0
18048.833887720393,464.0
18048.83395021763,679.0
18048.83401271487,819.0
18048.834075212104,574.0
18048.834137709342,669.0
18048.83420020658,640.0
18048.83426270382,388.0
18048.834325201053,653.0
18048.83438769829,869.0
18048.83445019553,724.0
18048.834512692767,447.0
18048.83457519,140.0
18048.83463768724,540.0
18048.834700184478,950.0
18048.834762681712,1080.0
18048.83482517895,778.0
18048.83488767619,605.0
18048.834950173426,706.0
18048.83501267066,529.0
18048.8350751679,354.0
18048.835137665137,205.0
18048.835200162375,361.0
18048.83526265961,504.0
18048.835325156848,474.0
18048.835387654086,641.0
18048.835450151324,475.0
18048.83551264856,315.0
18048.835575145797,260.0
18048.835637643035,462.0
18048.835700140273,567.0
18048.835762637507,198.0
18048.835825134745,-325.0
18048.835887631983,-443.0
18048.83595012922,202.0
18048.836012626456,827.0
18048.836075123694,940.0
18048.836137620932,1036.0
18048.83620011817,1183.0
18048.836262615405,652.0
18048.836325112643,-78.0
18048.83638760988,24.0
18048.83645010712,374.0
18048.836512604354,14.0
18048.83657510159,-282.0
18048.83663759883,-112.0
18048.836700096064,-103.0
18048.836762593302,-84.0
18048.83682509054,-164.0
18048.83688758778,-324.0
18048.836950085013,-33.0
18048.83701258225,262.0
18048.83707507949,657.0
18048.837137576727,1163.0
18048.837200073962,975.0
18048.8372625712,101.0
18048.837325068438,-325.0
18048.837387565676,-231.0
18048.83745006291,156.0
18048.83751256015,88.0
18048.837575057387,-377.0
18048.837637554625,-173.0
18048.83770005186,-277.0
18048.837762549098,-292.0
18048.837825046336,402.0
18048.837887543574,424.0
18048.83795004081,22.0
18048.838012538046,380.0
18048.838075035284,1047.0
18048.838137532523,931.0
18048.838200029757,507.0
18048.838262526995,-75.0
18048.838325024233,-357.0
18048.838387521468,127.0
18048.838450018706,484.0
18048.838512515944,287.0
18048.838575013182,-404.0
18048.838637510416,-736.0
18048.838700007655,-563.0
18048.838762504893,-254.0
18048.83882500213,-16.0
18048.838887499365,-104.0
18048.838949996603,-221.0
18048.83901249384,146.0
18048.83907499108,337.0
18048.839137488314,-477.0
18048.839199985552,-1049.0
18048.83926248279,-1016.0
18048.83932498003,-901.0
18048.839387477263,-84.0
18048.8394499745,492.0
18048.83951247174,215.0
18048.839574968977,-111.0
18048.83963746621,-63.0
18048.83969996345,-1.0
18048.839762460688,23.0
18048.839824957926,-68.0
18048.83988745516,-422.0
18048.8399499524,-879.0
18048.840012449637,-871.0
18048.84007494687,-758.0
18048.84013744411,-879.0
18048.840199941347,-730.0
18048.840262438585,-680.0
18048.84032493582,-428.0
18048.840387433058,-35.0
18048.840449930296,-57.0
18048.840512427534,-460.0
18048.84057492477,-1000.0
18048.840637422007,-1209.0
18048.840699919245,-1001.0
18048.840762416483,-851.0
18048.840824913717,-1121.0
18048.840887410955,-1327.0
18048.840949908194,-1475.0
18048.84101240543,-1406.0
18048.841074902666,-1361.0
18048.841137399904,-1163.0
18048.841199897142,-899.0
18048.84126239438,-1186.0
18048.841324891615,-1147.0
18048.841387388853,-1031.0
18048.84144988609,-1052.0
18048.84151238333,-1153.0
18048.841574880564,-1222.0
18048.8416373778,-1079.0
18048.84169987504,-872.0
18048.841762372278,-767.0
18048.841824869512,-1067.0
18048.84188736675,-1078.0
18048.84194986399,-769.0
18048.842012361223,-351.0
18048.84207485846,-125.0
18048.8421373557,-319.0
18048.842199852937,-700.0
18048.842262350172,-988.0
18048.84232484741,-1266.0
18048.842387344648,-1582.0
18048.842449841886,-1634.0
18048.84251233912,-1257.0
18048.84257483636,-857.0
18048.842637333597,-1059.0
18048.842699830835,-1444.0
18048.84276232807,-1314.0
18048.842824825308,-874.0
18048.842887322546,-740.0
18048.842949819784,-728.0
18048.84301231702,-625.0
18048.843074814256,-337.0
18048.843137311495,52.0
18048.843199808733,283.0
18048.843262305967,8.0
18048.843324803205,-202.0
18048.843387300443,173.0
18048.84344979768,592.0
18048.843512294916,495.0
18048.843574792154,40.0
18048.843637289392,-21.0
18048.843699786627,144.0
18048.843762283865,383.0
18048.843824781103,319.0
18048.84388727834,169.0
18048.843949775575,318.0
18048.844012272813,536.0
18048.84407477005,989.0
18048.84413726729,1089.0
18048.844199764524,911.0
18048.844262261762,750.0
18048.844324759,651.0
18048.84438725624,418.0
18048.844449753473,400.0
18048.84451225071,506.0
18048.84457474795,464.0
18048.844637245187,558.0
18048.84469974242,564.0
18048.84476223966,664.0
18048.844824736898,726.0
18048.844887234136,393.0
18048.84494973137,375.0
18048.84501222861,823.0
18048.845074725847,1090.0
18048.845137223085,934.0
18048.84519972032,768.0
18048.845262217557,647.0
18048.845324714795,633.0
18048.845387212034,869.0
18048.845449709268,1158.0
18048.845512206506,1378.0
18048.845574703744,1405.0
18048.84563720098,1616.0
18048.845699698217,1609.0
18048.845762195455,1553.0
18048.845824692693,1611.0
18048.845887189927,1551.0
18048.845949687166,1545.0
18048.846012184404,1405.0
18048.84607468164,1130.0
18048.846137178876,1187.0
18048.846199676114,1448.0
18048.846262173352,1339.0
18048.84632467059,1420.0
18048.846387167825,1936.0
18048.846449665063,2060.0
18048.8465121623,1971.0
18048.84657465954,1887.0
18048.846637156774,1474.0
18048.846699654012,1588.0
18048.84676215125,1911.0
18048.846824648488,1445.0
18048.846887145723,868.0
18048.84694964296,1112.0
18048.8470121402,1578.0
18048.847074637437,1490.0
18048.84713713467,1119.0
18048.84719963191,1140.0
18048.847262129148,1371.0
18048.847324626382,1402.0
18048.84738712362,1393.0
18048.84744962086,1438.0
18048.847512118096,1286.0
18048.84757461533,1510.0
18048.84763711257,1983.0
18048.847699609807,1925.0
18048.847762107045,2055.0
18048.84782460428,2049.0
18048.847887101518,1605.0
18048.847949598756,1380.0
18048.848012095994,1299.0
18048.84807459323,1034.0
18048.848137090466,890.0
18048.848199587705,1175.0
18048.848262084943,1547.0
18048.848324582177,1571.0
18048.848387079415,1612.0
18048.848449576653,1658.0
18048.84851207389,1117.0
18048.848574571126,894.0
18048.848637068364,1339.0
18048.848699565602,1267.0
18048.84876206284,924.0
18048.848824560075,995.0
18048.848887057313,845.0
18048.84894955455,882.0
18048.84901205179,904.0
18048.849074549023,641.0
18048.84913704626,399.0
18048.8491995435,638.0
18048.849262040734,558.0
18048.849324537972,199.0
18048.84938703521,377.0
18048.84944953245,76.0
18048.849512029683,-531.0
18048.84957452692,-700.0
18048.84963702416,-314.0
18048.849699521397,-123.0
18048.84976201863,-372.0
18048.84982451587,-494.0
18048.849887013108,-549.0
18048.849949510346,-273.0
18048.85001200758,-299.0
18048.85007450482,-674.0
18048.850137002057,-659.0
18048.850199499295,-532.0
18048.85026199653,-304.0
18048.850324493767,-232.0
18048.850386991006,-686.0
18048.850449488244,-839.0
18048.850511985478,-582.0
18048.850574482716,-580.0
18048.850636979954,-566.0
18048.850699477192,-786.0
18048.850761974427,-898.0
18048.850824471665,-404.0
18048.850886968903,-93.0
18048.850949466138,-127.0
18048.851011963376,-274.0
18048.851074460614,-385.0
18048.851136957852,-309.0
18048.851199455086,-219.0
18048.851261952324,-528.0
18048.851324449563,-742.0
18048.8513869468,-624.0
18048.851449444035,-482.0
18048.851511941273,-99.0
18048.85157443851,105.0
18048.85163693575,-108.0
18048.851699432984,-374.0
18048.851761930222,-429.0
18048.85182442746,-418.0
18048.8518869247,-320.0
18048.851949421933,-706.0
18048.85201191917,-1072.0
18048.85207441641,-665.0
18048.852136913647,-220.0
18048.85219941088,-153.0
18048.85226190812,-327.0
18048.852324405358,-545.0
18048.852386902596,-248.0
18048.85244939983,224.0
18048.85251189707,284.0
18048.852574394306,57.0
18048.85263689154,-223.0
18048.85269938878,-223.0
18048.852761886017,-195.0
18048.852824383255,-226.0
18048.85288688049,-305.0
18048.852949377728,-307.0
18048.853011874966,-426.0
18048.853074372204,-307.0
18048.85313686944,156.0
18048.853199366677,319.0
18048.853261863915,21.0
18048.853324361153,-91.0
18048.853386858387,75.0
18048.853449355625,294.0
18048.853511852863,598.0
18048.8535743501,453.0
18048.853636847336,393.0
18048.853699344574,588.0
18048.853761841812,654.0
18048.85382433905,1124.0
18048.853886836285,1156.0
18048.853949333523,664.0
18048.85401183076,476.0
18048.854074328,450.0
18048.854136825234,759.0
18048.85419932247,874.0
18048.85426181971,388.0
18048.854324316948,223.0
18048.854386814182,610.0
18048.85444931142,871.0
18048.85451180866,726.0
18048.854574305893,418.0
18048.85463680313,407.0
18048.85469930037,539.0
18048.854761797607,765.0
18048.854824294842,886.0
18048.85488679208,845.0
18048.854949289318,783.0
18048.855011786556,709.0
18048.85507428379,878.0
18048.85513678103,858.0
18048.855199278267,492.0
18048.855261775505,269.0
18048.85532427274,419.0
18048.855386769977,607.0
18048.855449267216,584.0
18048.855511764454,318.0
18048.855574261688,33.0
18048.855636758926,-60.0
18048.855699256164,162.0
18048.855761753402,438.0
18048.855824250637,625.0
18048.855886747875,503.0
18048.855949245113,316.0
18048.85601174235,663.0
18048.856074239586,1076.0
18048.856136736824,990.0
18048.856199234062,779.0
18048.856261731296,924.0
18048.856324228535,1270.0
18048.856386725773,1410.0
18048.85644922301,937.0
18048.856511720245,121.0
18048.856574217483,-70.0
18048.85663671472,192.0
18048.85669921196,478.0
18048.856761709194,377.0
18048.856824206432,295.0
18048.85688670367,538.0
18048.85694920091,742.0
18048.857011698143,714.0
18048.85707419538,526.0
18048.85713669262,545.0
18048.857199189857,543.0
18048.85726168709,442.0
18048.85732418433,423.0
18048.857386681568,129.0
18048.857449178806,-193.0
18048.85751167604,23.0
18048.85757417328,258.0
18048.857636670517,635.0
18048.857699167755,898.0
18048.85776166499,866.0
18048.857824162227,1010.0
18048.857886659465,869.0
18048.8579491567,679.0
18048.858011653938,738.0
18048.858074151176,640.0
18048.858136648414,393.0
18048.85819914565,157.0
18048.858261642887,141.0
18048.858324140125,460.0
18048.858386637363,544.0
18048.858449134597,384.0
18048.858511631835,458.0
18048.858574129074,832.0
18048.85863662631,1239.0
18048.858699123546,1033.0
18048.858761620784,453.0
18048.858824118022,-161.0
18048.85888661526,-318.0
18048.858949112495,-198.0
18048.859011609733,-87.0
18048.85907410697,16.0
18048.85913660421,207.0
18048.859199101444,448.0
18048.85926159868,223.0
18048.85932409592,-99.0
18048.859386593158,-457.0
18048.859449090392,-660.0
18048.85951158763,-555.0
18048.85957408487,-364.0
18048.859636582107,51.0
18048.85969907934,680.0
18048.85976157658,728.0
18048.859824073817,503.0
18048.859886571052,572.0
18048.85994906829,927.0
18048.860011565528,1309.0
18048.860074062766,856.0
18048.86013656,330.0
18048.86019905724,-143.0
18048.860261554477,-163.0
18048.860324051715,342.0
18048.86038654895,474.0
18048.860449046188,628.0
18048.860511543426,587.0
18048.860574040664,923.0
18048.8606365379,1460.0
18048.860699035136,1332.0
18048.860761532374,737.0
18048.860824029613,180.0
18048.860886526847,329.0
18048.860949024085,730.0
18048.861011521323,1300.0
18048.86107401856,1512.0
18048.861136515796,952.0
18048.861199013034,847.0
18048.861261510272,992.0
18048.86132400751,715.0
18048.861386504745,481.0
18048.861449001983,137.0
18048.86151149922,-58.0
18048.861573996455,365.0
18048.861636493693,433.0
18048.86169899093,285.0
18048.86176148817,200.0
18048.861823985404,-33.0
18048.861886482642,-2.0
18048.86194897988,256.0
18048.86201147712,298.0
18048.862073974353,-199.0
18048.86213647159,-565.0
18048.86219896883,-572.0
18048.862261466067,-159.0
18048.8623239633,414.0
18048.86238646054,440.0
18048.862448957778,316.0
18048.862511455016,380.0
18048.86257395225,707.0
18048.86263644949,1142.0
18048.862698946727,855.0
18048.862761443965,290.0
18048.8628239412,509.0
18048.862886438437,1025.0
18048.862948935675,1267.0
18048.863011432913,680.0
18048.863073930148,145.0
18048.863136427386,408.0
18048.863198924624,366.0
18048.86326142186,683.0
18048.863323919097,939.0
18048.863386416335,724.0
18048.863448913573,694.0
18048.863511410807,815.0
18048.863573908046,944.0
18048.863636405284,1057.0
18048.86369890252,1460.0
18048.863761399756,1385.0
18048.863823896994,1357.0
18048.863886394232,1672.0
18048.86394889147,1520.0
18048.864011388705,505.0
18048.864073885943,-52.0
18048.86413638318,-136.0
18048.86419888042,-397.0
18048.864261377654,2.0
18048.864323874892,282.0
18048.86438637213,47.0
18048.864448869368,-43.0
18048.864511366603,90.0
18048.86457386384,262.0
18048.86463636108,182.0
18048.864698858317,-246.0
18048.86476135555,-399.0
18048.86482385279,-429.0
18048.864886350028,-405.0
18048.864948847266,-204.0
18048.8650113445,-168.0
18048.86507384174,-282.0
18048.865136338976,-510.0
18048.86519883621,-621.0
18048.86526133345,-284.0
18048.865323830687,-42.0
18048.865386327925,-256.0
18048.86544882516,-282.0
18048.865511322398,0.0
18048.865573819636,364.0
18048.865636316874,666.0
18048.86569881411,318.0
18048.865761311346,30.0
18048.865823808585,24.0
18048.865886305823,-149.0
18048.865948803057,-131.0
18048.866011300295,-441.0
18048.866073797533,-1010.0
18048.86613629477,-878.0
18048.866198792006,-336.0
18048.866261289244,-33.0
18048.866323786482,-170.0
18048.86638628372,-766.0
18048.866448780955,-980.0
18048.866511278193,-633.0
18048.86657377543,-632.0
18048.86663627267,-1264.0
18048.866698769903,-1572.0
18048.86676126714,-1468.0
18048.86682376438,-1110.0
18048.866886261614,-972.0
18048.866948758852,-1065.0
18048.86701125609,-870.0
18048.86707375333,-858.0
18048.867136250563,-440.0
18048.8671987478,-448.0
18048.86726124504,-727.0
18048.867323742277,-698.0
18048.86738623951,-824.0
18048.86744873675,-869.0
18048.867511233988,-806.0
18048.867573731226,-851.0
18048.86763622846,-968.0
18048.8676987257,-959.0
18048.867761222937,-549.0
18048.867823720175,-165.0
18048.86788621741,-167.0
18048.867948714647,-21.0
18048.868011211885,179.0
18048.868073709124,520.0
18048.868136206358,997.0
18048.868198703596,1219.0
18048.868261200834,806.0
18048.868323698072,512.0
18048.868386195307,227.0
18048.868448692545,-158.0
18048.868511189783,65.0
18048.86857368702,109.0
18048.868636184256,-35.0
18048.868698681494,368.0
18048.86876117873,715.0
18048.868823675966,666.0
18048.868886173204,523.0
18048.868948670442,268.0
18048.86901116768,284.0
18048.869073664915,683.0
18048.869136162153,712.0
18048.86919865939,632.0
18048.86926115663,312.0
18048.869323653864,-162.0
18048.869386151102,-386.0
18048.86944864834,-350.0
18048.869511145578,-284.0
18048.869573642813,-187.0
18048.86963614005,-207.0
18048.86969863729,-448.0
18048.869761134527,-425.0
18048.86982363176,-229.0
18048.869886129,-108.0
18048.869948626238,-317.0
18048.870011123476,-334.0
18048.87007362071,-231.0
18048.87013611795,-170.0
18048.870198615186,123.0
18048.870261112424,204.0
18048.87032360966,-199.0
18048.870386106897,-366.0
18048.870448604135,-67.0
18048.87051110137,-63.0
18048.870573598608,-255.0
18048.870636095846,-81.0
18048.870698593084,119.0
18048.87076109032,65.0
18048.870823587557,238.0
18048.870886084795,303.0
18048.870948582033,253.0
18048.871011079267,685.0
18048.871073576505,518.0
18048.871136073743,449.0
18048.87119857098,-77.0
18048.871261068216,-560.0
18048.871323565454,-180.0
18048.871386062692,-284.0
18048.87144855993,271.0
18048.871511057165,1087.0
18048.871573554403,1285.0
18048.87163605164,1131.0
18048.87169854888,1085.0
18048.871761046114,1210.0
18048.87182354335,1071.0
18048.87188604059,1201.0
18048.871948537828,1355.0
18048.872011035062,1239.0
18048.8720735323,1143.0
18048.87213602954,1190.0
18048.872198526777,1464.0
18048.87226102401,1522.0
18048.87232352125,1487.0
18048.872386018487,1437.0
18048.87244851572,1331.0
18048.87251101296,1313.0
18048.872573510198,1049.0
18048.872636007436,1159.0
18048.87269850467,1307.0
18048.87276100191,1284.0
18048.872823499147,1706.0
18048.872885996385,1800.0
18048.87294849362,1618.0
18048.873010990857,1596.0
18048.873073488096,1564.0
18048.873135985334,1532.0
18048.873198482568,1544.0
18048.873260979806,1319.0
18048.873323477044,893.0
18048.873385974282,690.0
18048.873448471517,739.0
18048.873510968755,1184.0
18048.873573465993,1089.0
18048.87363596323,613.0
18048.873698460466,284.0
18048.873760957704,90.0
18048.873823454942,475.0
18048.87388595218,308.0
18048.873948449414,-413.0
18048.874010946653,-846.0
18048.87407344389,-757.0
18048.874135941125,-470.0
18048.874198438363,-385.0
18048.8742609356,-350.0
18048.87432343284,-262.0
18048.874385930074,-5.0
18048.874448427312,-19.0
18048.87451092455,-234.0
18048.87457342179,-537.0
18048.874635919023,-698.0
18048.87469841626,-604.0
18048.8747609135,-413.0
18048.874823410737,-110.0
18048.87488590797,-75.0
18048.87494840521,-29.0
18048.875010902448,-15.0
18048.875073399686,-61.0
18048.87513589692,264.0
18048.87519839416,582.0
18048.875260891396,333.0
18048.875323388635,-74.0
18048.87538588587,-100.0
18048.875448383107,297.0
18048.875510880345,618.0
18048.875573377583,267.0
18048.875635874818,-325.0
18048.875698372056,-447.0
18048.875760869294,-181.0
18048.87582336653,3.0
18048.875885863767,-197.0
18048.875948361005,-326.0
18048.876010858243,-248.0
18048.876073355477,-71.0
18048.876135852715,-21.0
18048.876198349953,-66.0
18048.87626084719,-84.0
18048.876323344426,-410.0
18048.876385841664,-359.0
18048.876448338902,-220.0
18048.87651083614,-80.0
18048.876573333375,84.0
18048.876635830613,5.0
18048.87669832785,212.0
18048.87676082509,392.0
18048.876823322324,517.0
18048.87688581956,309.0
18048.8769483168,-294.0
18048.877010814038,-78.0
18048.877073311272,268.0
18048.87713580851,118.0
18048.87719830575,-16.0
18048.877260802987,-87.0
18048.87732330022,34.0
18048.87738579746,462.0
18048.877448294697,645.0
18048.877510791935,42.0
18048.87757328917,-251.0
18048.877635786408,-212.0
18048.877698283646,-353.0
18048.87776078088,-246.0
18048.87782327812,-34.0
18048.877885775357,-251.0
18048.877948272595,117.0
18048.87801076983,552.0
18048.878073267068,500.0
18048.878135764306,666.0
18048.878198261544,110.0
18048.87826075878,-87.0
18048.878323256016,664.0
18048.878385753254,549.0
18048.878448250493,259.0
18048.878510747727,434.0
18048.878573244965,399.0
18048.878635742203,425.0
18048.87869823944,394.0
18048.878760736676,297.0
18048.878823233914,161.0
18048.878885731152,163.0
18048.87894822839,326.0
18048.879010725625,-8.0
18048.879073222863,-171.0
18048.8791357201,-20.0
18048.87919821734,-186.0
18048.879260714573,-197.0
18048.87932321181,-276.0
18048.87938570905,18.0
18048.879448206284,79.0
18048.879510703522,-191.0
18048.87957320076,-84.0
18048.879635698,-61.0
18048.879698195233,-30.0
18048.87976069247,-477.0
18048.87982318971,-902.0
18048.879885686947,-903.0
18048.87994818418,-272.0
18048.88001068142,487.0
18048.880073178658,243.0
18048.880135675896,-208.0
18048.88019817313,-793.0
18048.88026067037,-1262.0
18048.880323167607,-1316.0
18048.880385664845,-1501.0
18048.88044816208,-1369.0
18048.880510659317,-1078.0
18048.880573156555,-835.0
18048.880635653793,-192.0
18048.880698151028,127.0
18048.880760648266,-400.0
18048.880823145504,-562.0
18048.880885642742,-661.0
18048.880948139977,-982.0
18048.881010637215,-1078.0
18048.881073134453,-1007.0
18048.881135631687,-821.0
18048.881198128925,-489.0
18048.881260626164,-464.0
18048.8813231234,-528.0
18048.881385620636,-248.0
18048.881448117874,-233.0
18048.881510615112,-737.0
18048.88157311235,-957.0
18048.881635609585,-790.0
18048.881698106823,-710.0
18048.88176060406,-676.0
18048.8818231013,-734.0
18048.881885598534,-517.0
18048.88194809577,-333.0
18048.88201059301,-185.0
18048.882073090248,0.0
18048.882135587482,-218.0
18048.88219808472,-791.0
18048.88226058196,-968.0
18048.882323079197,-438.0
18048.88238557643,125.0
18048.88244807367,26.0
18048.882510570907,-619.0
18048.882573068146,-933.0
18048.88263556538,-536.0
18048.882698062618,-8.0
18048.882760559856,-319.0
18048.882823057094,-709.0
18048.88288555433,-443.0
18048.882948051567,-308.0
18048.883010548805,-393.0
18048.88307304604,-853.0
18048.883135543278,-1400.0
18048.883198040516,-1423.0
18048.883260537754,-1069.0
18048.88332303499,-928.0
18048.883385532226,-1016.0
18048.883448029464,-1129.0
18048.883510526703,-1123.0
18048.883573023937,-535.0
18048.883635521175,248.0
18048.883698018413,370.0
18048.88376051565,437.0
18048.883823012886,557.0
18048.883885510124,734.0
18048.883948007362,938.0
18048.8840105046,882.0
18048.884073001835,1021.0
18048.884135499073,921.0
18048.88419799631,1044.0
18048.88426049355,1223.0
18048.884322990783,807.0
18048.88438548802,817.0
18048.88444798526,704.0
18048.884510482498,658.0
18048.884572979732,1000.0
18048.88463547697,1564.0
18048.88469797421,1926.0
18048.884760471443,1418.0
18048.88482296868,692.0
18048.88488546592,526.0
18048.884947963157,944.0
18048.88501046039,668.0
18048.88507295763,119.0
18048.885135454868,140.0
18048.885197952106,323.0
18048.88526044934,781.0
18048.88532294658,734.0
18048.885385443817,275.0
18048.885447941055,-27.0
18048.88551043829,505.0
18048.885572935527,1206.0
18048.885635432765,1039.0
18048.885697930004,722.0
18048.885760427238,57.0
18048.885822924476,-54.0
18048.885885421714,462.0
18048.885947918952,188.0
18048.886010416187,-83.0
18048.886072913425,-236.0
18048.886135410663,-180.0
18048.8861979079,113.0
18048.886260405136,241.0
18048.886322902374,313.0
18048.88638539961,-24.0
18048.886447896846,-374.0
18048.886510394084,131.0
18048.886572891322,136.0
18048.88663538856,-218.0
18048.886697885795,-231.0
18048.886760383033,-412.0
18048.88682288027,-252.0
18048.88688537751,-1.0
18048.886947874744,-146.0
18048.887010371982,-703.0
18048.88707286922,-786.0
18048.887135366458,-859.0
18048.887197863693,-1049.0
18048.88726036093,-818.0
18048.88732285817,-1001.0
18048.887385355407,-1226.0
18048.88744785264,-1088.0
18048.88751034988,-895.0
18048.887572847118,-841.0
18048.887635344356,-1068.0
18048.88769784159,-1358.0
18048.88776033883,-1477.0
18048.887822836066,-1456.0
18048.887885333304,-1318.0
18048.88794783054,-1197.0
18048.888010327777,-1076.0
18048.888072825015,-1108.0
18048.888135322253,-1070.0
18048.888197819488,-811.0
18048.888260316726,-692.0
18048.888322813964,-775.0
18048.8883853112,-727.0
18048.888447808436,-157.0
18048.888510305675,479.0
18048.888572802913,697.0
18048.888635300147,370.0
18048.888697797385,41.0
18048.888760294623,-149.0
18048.88882279186,-380.0
18048.888885289096,-127.0
18048.888947786334,-92.0
18048.889010283572,-97.0
18048.88907278081,264.0
18048.889135278045,97.0
18048.889197775283,-209.0
18048.88926027252,60.0
18048.88932276976,178.0
18048.889385266993,-28.0
18048.88944776423,20.0
18048.88951026147,-107.0
18048.889572758708,-107.0
18048.889635255942,-28.0
18048.88969775318,-78.0
18048.88976025042,-124.0
18048.889822747657,375.0
18048.88988524489,891.0
18048.88994774213,861.0
18048.890010239367,1188.0
18048.8900727366,1062.0
18048.89013523384,687.0
18048.890197731078,628.0
18048.890260228316,313.0
18048.89032272555,425.0
18048.89038522279,905.0
18048.890447720027,916.0
18048.890510217265,898.0
18048.8905727145,688.0
18048.890635211737,430.0
18048.890697708975,305.0
18048.890760206214,101.0
18048.890822703448,-115.0
18048.890885200686,246.0
18048.890947697924,387.0
18048.891010195162,-97.0
18048.891072692397,-314.0
18048.891135189635,-387.0
18048.891197686873,-30.0
18048.89126018411,505.0
18048.891322681346,364.0
18048.891385178584,110.0
18048.891447675822,107.0
18048.89151017306,80.0
18048.891572670294,-217.0
18048.891635167533,-484.0
18048.89169766477,-207.0
18048.89176016201,448.0
18048.891822659243,1152.0
18048.89188515648,1233.0
18048.89194765372,852.0
18048.892010150954,489.0
18048.892072648192,235.0
18048.89213514543,371.0
18048.892197642668,183.0
18048.892260139903,-138.0
18048.89232263714,42.0
18048.89238513438,359.0
18048.892447631617,302.0
18048.89251012885,51.0
18048.89257262609,-139.0
18048.892635123328,64.0
18048.892697620566,192.0
18048.8927601178,344.0
18048.89282261504,370.0
18048.892885112276,-269.0
18048.892947609515,-656.0
18048.89301010675,-919.0
18048.893072603987,-1072.0
18048.893135101225,-792.0
18048.893197598463,-663.0
18048.893260095698,-908.0
18048.893322592936,-1008.0
18048.893385090174,-710.0
18048.893447587412,-497.0
18048.893510084647,-378.0
18048.893572581885,-343.0
18048.893635079123,-207.0
18048.893697576357,-125.0
18048.893760073595,-355.0
18048.893822570833,-282.0
18048.89388506807,-382.0
18048.893947565306,-749.0
18048.894010062544,-877.0
18048.894072559782,-279.0
18048.89413505702,40.0
18048.894197554255,-481.0
18048.894260051493,-728.0
18048.89432254873,-460.0
18048.89438504597,-172.0
18048.894447543204,103.0
18048.89451004044,249.0
18048.89457253768,-118.0
18048.894635034918,-295.0
18048.894697532152,-262.0
18048.89476002939,-501.0
18048.89482252663,-802.0
18048.894885023867,-1084.0
18048.8949475211,-1270.0
18048.89501001834,-1008.0
18048.895072515577,-331.0
18048.895135012815,126.0
18048.89519751005,-22.0
18048.895260007288,-87.0
18048.895322504526,-165.0
18048.895385001764,-573.0
18048.895447499,-573.0
18048.895509996237,-210.0
18048.895572493475,19.0
18048.89563499071,154.0
18048.895697487947,146.0
18048.895759985186,13.0
18048.895822482424,-320.0
18048.895884979658,-824.0
18048.895947476896,-956.0
18048.896009974134,-806.0
18048.896072471372,-644.0
18048.896134968607,-317.0
18048.896197465845,-146.0
18048.896259963083,-208.0
18048.89632246032,-262.0
18048.896384957556,-256.0
18048.896447454794,-17.0
18048.896509952032,-22.0
18048.89657244927,-564.0
18048.896634946504,-902.0
18048.896697443743,-816.0
18048.89675994098,-451.0
18048.89682243822,-456.0
18048.896884935453,-487.0
18048.89694743269,-275.0
18048.89700992993,-98.0
18048.897072427168,-103.0
18048.897134924402,-236.0
18048.89719742164,6.0
18048.89725991888,-17.0
18048.897322416113,-39.0
18048.89738491335,237.0
18048.89744741059,76.0
18048.897509907827,-123.0
18048.89757240506,-506.0
18048.8976349023,-755.0
18048.897697399538,-575.0
18048.897759896776,-571.0
18048.89782239401,-380.0
18048.89788489125,112.0
18048.897947388487,225.0
18048.898009885725,-242.0
18048.89807238296,-674.0
18048.898134880197,-677.0
18048.898197377435,-455.0
18048.898259874673,-592.0
18048.898322371908,-978.0
18048.898384869146,-1126.0
18048.898447366384,-994.0
18048.898509863622,-877.0
18048.898572360857,-1106.0
18048.898634858095,-1531.0
18048.898697355333,-1440.0
18048.89875985257,-936.0
18048.898822349805,-960.0
18048.898884847044,-868.0
18048.89894734428,-887.0
18048.899009841516,-1047.0
18048.899072338754,-553.0
18048.899134835992,206.0
18048.89919733323,265.0
18048.899259830465,-93.0
18048.899322327703,-303.0
18048.89938482494,-500.0
18048.89944732218,-635.0
18048.899509819414,-880.0
18048.89957231665,-1196.0
18048.89963481389,-1223.0
18048.899697311128,-712.0
18048.899759808362,-274.0
18048.8998223056,-107.0
18048.89988480284,2.0
18048.899947300077,-38.0
18048.90000979731,22.0
18048.90007229455,353.0
18048.900134791787,711.0
18048.900197289026,552.0
18048.90025978626,69.0
18048.900322283498,9.0
18048.900384780736,26.0
18048.900447277974,-18.0
18048.90050977521,-387.0
18048.900572272447,-774.0
18048.900634769685,-484.0
18048.900697266923,149.0
18048.900759764158,532.0
18048.900822261396,386.0
18048.900884758634,61.0
18048.90094725587,328.0
18048.901009753106,510.0
18048.901072250344,-2.0
18048.901134747583,-15.0
18048.901197244817,-15.0
18048.901259742055,-372.0
18048.901322239293,-526.0
18048.90138473653,-42.0
18048.901447233766,359.0
18048.901509731004,23.0
18048.901572228242,110.0
18048.90163472548,451.0
18048.901697222715,761.0
18048.901759719953,724.0
18048.90182221719,112.0
18048.90188471443,-321.0
18048.901947211663,-163.0
18048.9020097089,220.0
18048.90207220614,-51.0
18048.902134703378,-614.0
18048.902197200612,-597.0
18048.90225969785,-498.0
18048.90232219509,-564.0
18048.902384692326,-565.0
18048.90244718956,-618.0
18048.9025096868,-370.0
18048.902572184037,131.0
18048.90263468127,501.0
18048.90269717851,276.0
18048.902759675748,-18.0
18048.902822172986,175.0
18048.90288467022,336.0
18048.90294716746,388.0
18048.903009664697,352.0
18048.903072161935,227.0
18048.90313465917,469.0
18048.903197156407,672.0
18048.903259653645,860.0
18048.903322150883,688.0
18048.903384648118,254.0
18048.903447145356,187.0
18048.903509642594,157.0
18048.903572139832,56.0
18048.903634637067,5.0
18048.903697134305,-194.0
18048.903759631543,-375.0
18048.90382212878,-224.0
18048.903884626015,-176.0
18048.903947123254,-31.0
18048.90400962049,-163.0
18048.90407211773,-362.0
18048.904134614964,-358.0
18048.904197112202,-359.0
18048.90425960944,-291.0
18048.904322106675,-215.0
18048.904384603913,-337.0
18048.90444710115,-589.0
18048.90450959839,-799.0
18048.904572095624,-914.0
18048.904634592862,-845.0
18048.9046970901,-841.0
18048.904759587338,-782.0
18048.904822084573,-550.0
18048.90488458181,-421.0
18048.90494707905,-530.0
18048.905009576287,-697.0
18048.90507207352,-681.0
18048.90513457076,-389.0
18048.905197067998,-277.0
18048.905259565236,-486.0
18048.90532206247,-658.0
18048.90538455971,-873.0
18048.905447056946,-820.0
18048.905509554184,-678.0
18048.90557205142,-583.0
18048.905634548657,-568.0
18048.905697045895,-889.0
18048.905759543133,-843.0
18048.905822040368,-808.0
18048.905884537606,-707.0
18048.905947034844,-354.0
18048.906009532082,-432.0
18048.906072029316,-536.0
18048.906134526555,-278.0
18048.906197023793,-121.0
18048.906259521027,-462.0
18048.906322018265,-595.0
18048.906384515503,-637.0
18048.90644701274,-427.0
18048.906509509976,-2.0
18048.906572007214,24.0
18048.906634504452,65.0
18048.90669700169,282.0
18048.906759498925,167.0
18048.906821996163,265.0
18048.9068844934,142.0
18048.90694699064,-350.0
18048.907009487873,-559.0
18048.90707198511,-663.0
18048.90713448235,-711.0
18048.907196979588,-589.0
18048.907259476822,-654.0
18048.90732197406,-795.0
18048.9073844713,-246.0
18048.907446968537,183.0
18048.90750946577,426.0
18048.90757196301,658.0
18048.907634460247,380.0
18048.907696957485,175.0
18048.90775945472,159.0
18048.907821951958,251.0
18048.907884449196,231.0
18048.90794694643,-79.0
18048.90800944367,-141.0
18048.908071940907,-31.0
18048.908134438145,185.0
18048.90819693538,123.0
18048.908259432617,-205.0
18048.908321929855,-265.0
18048.908384427094,-72.0
18048.908446924328,383.0
18048.908509421566,352.0
18048.908571918804,-20.0
18048.908634416042,-70.0
18048.908696913277,-116.0
18048.908759410515,142.0
18048.908821907753,372.0
18048.90888440499,171.0
18048.908946902226,-91.0
18048.909009399464,252.0
18048.9090718967,461.0
18048.90913439394,138.0
18048.909196891174,15.0
18048.909259388412,-114.0
18048.90932188565,64.0
18048.90938438289,324.0
18048.909446880123,333.0
18048.90950937736,407.0
18048.9095718746,219.0
18048.909634371834,320.0
18048.909696869072,328.0
18048.90975936631,30.0
18048.909821863548,35.0
18048.909884360783,46.0
18048.90994685802,-183.0
18048.91000935526,-175.0
18048.910071852497,121.0
18048.91013434973,133.0
18048.91019684697,-231.0
18048.910259344208,-825.0
18048.910321841446,-1082.0
18048.91038433868,-727.0
18048.91044683592,-744.0
18048.910509333156,-1056.0
18048.910571830394,-1321.0
18048.91063432763,-1032.0
18048.910696824867,-763.0
18048.910759322105,-1040.0
18048.910821819343,-1437.0
18048.910884316578,-1439.0
18048.910946813816,-1053.0
18048.911009311054,-803.0
18048.911071808292,-976.0
18048.911134305527,-1348.0
18048.911196802765,-1239.0
18048.911259300003,-741.0
18048.91132179724,-521.0
18048.911384294475,-365.0
18048.911446791713,-152.0
18048.91150928895,-375.0
18048.911571786186,-865.0
18048.911634283424,-923.0
18048.911696780662,-772.0
18048.9117592779,-1129.0
18048.911821775135,-1151.0
18048.911884272373,-923.0
18048.91194676961,-676.0
18048.91200926685,-319.0
18048.912071764084,-238.0
18048.91213426132,-488.0
18048.91219675856,-781.0
18048.912259255798,-677.0
18048.912321753032,-631.0
18048.91238425027,-1010.0
18048.91244674751,-1267.0
18048.912509244747,-1304.0
18048.91257174198,-941.0
18048.91263423922,-402.0
18048.912696736457,-372.0
18048.912759233695,-473.0
18048.91282173093,-632.0
18048.912884228168,-683.0
18048.912946725406,-602.0
18048.913009222644,-814.0
18048.91307171988,-893.0
18048.913134217117,-862.0
18048.913196714355,-1022.0
18048.91325921159,-827.0
18048.913321708827,-892.0
18048.913384206066,-1052.0
18048.913446703304,-844.0
18048.913509200538,-1108.0
18048.913571697776,-1617.0
18048.913634195014,-1392.0
18048.913696692252,-895.0
18048.913759189487,-1028.0
18048.913821686725,-1542.0
18048.913884183963,-1768.0
18048.9139466812,-1353.0
18048.914009178436,-1044.0
18048.914071675674,-1483.0
18048.914134172912,-2191.0
18048.91419667015,-2447.0
18048.914259167384,-1879.0
18048.914321664623,-1445.0
18048.91438416186,-1853.0
18048.9144466591,-2089.0
18048.914509156333,-1686.0
18048.91457165357,-1116.0
18048.91463415081,-623.0
18048.914696648048,-825.0
18048.914759145282,-1448.0
18048.91482164252,-1655.0
18048.91488413976,-1484.0
18048.914946636996,-1130.0
18048.91500913423,-1345.0
18048.91507163147,-1633.0
18048.915134128707,-1265.0
18048.91519662594,-1014.0
18048.91525912318,-790.0
18048.915321620418,-625.0
18048.915384117656,-689.0
18048.91544661489,-669.0
18048.91550911213,-563.0
18048.915571609366,-170.0
18048.915634106605,230.0
18048.91569660384,116.0
18048.915759101077,61.0
18048.915821598315,207.0
18048.915884095553,261.0
18048.915946592788,469.0
18048.916009090026,296.0
18048.916071587264,197.0
18048.916134084502,416.0
18048.916196581737,372.0
18048.916259078975,635.0
18048.916321576213,815.0
18048.91638407345,549.0
18048.916446570685,503.0
18048.916509067923,719.0
18048.91657156516,969.0
18048.9166340624,1220.0
18048.916696559634,1165.0
18048.916759056872,926.0
18048.91682155411,613.0
18048.916884051345,283.0
18048.916946548583,77.0
18048.91700904582,42.0
18048.91707154306,201.0
18048.917134040294,604.0
18048.91719653753,1002.0
18048.91725903477,1301.0
18048.917321532008,1437.0
18048.917384029242,1146.0
18048.91744652648,929.0
18048.91750902372,1008.0
18048.917571520957,1143.0
18048.91763401819,1262.0
18048.91769651543,1124.0
18048.917759012667,839.0
18048.917821509905,615.0
18048.91788400714,490.0
18048.917946504378,351.0
18048.918009001616,406.0
18048.918071498854,563.0
18048.91813399609,700.0
18048.918196493327,603.0
18048.918258990565,366.0
18048.918321487803,286.0
18048.918383985038,154.0
18048.918446482276,108.0
18048.918508979514,-74.0
18048.918571476752,-285.0
18048.918633973986,-363.0
18048.918696471224,-407.0
18048.918758968462,-287.0
18048.918821465697,-323.0
18048.918883962935,-287.0
18048.918946460173,-77.0
18048.91900895741,60.0
18048.919071454646,121.0
18048.919133951884,172.0
18048.919196449122,250.0
18048.91925894636,70.0
18048.919321443595,-183.0
18048.919383940833,-34.0
18048.91944643807,-25.0
18048.91950893531,-432.0
18048.919571432543,-662.0
18048.91963392978,-600.0
18048.91969642702,-451.0
18048.919758924258,-511.0
18048.919821421492,-601.0
18048.91988391873,-425.0
18048.91994641597,-411.0
18048.920008913206,-375.0
18048.92007141044,-108.0
18048.92013390768,-80.0
18048.920196404917,-375.0
18048.920258902155,-632.0
18048.92032139939,-539.0
18048.920383896628,-55.0
18048.920446393866,241.0
18048.9205088911,14.0
18048.92057138834,-484.0
18048.920633885577,-798.0
18048.920696382815,-912.0
18048.92075888005,-1182.0
18048.920821377287,-1219.0
18048.920883874525,-1116.0
18048.920946371763,-1149.0
18048.921008868998,-935.0
18048.921071366236,-764.0
18048.921133863474,-644.0
18048.921196360712,-418.0
18048.921258857947,-510.0
18048.921321355185,-647.0
18048.921383852423,-833.0
18048.92144634966,-1072.0
18048.921508846895,-1190.0
18048.921571344134,-1377.0
18048.92163384137,-1293.0
18048.92169633861,-1045.0
18048.921758835844,-736.0
18048.921821333082,-716.0
18048.92188383032,-1009.0
18048.92194632756,-769.0
18048.922008824793,-503.0
18048.92207132203,-677.0
18048.92213381927,-906.0
18048.922196316504,-994.0
18048.92225881374,-958.0
18048.92232131098,-774.0
18048.922383808218,-375.0
18048.922446305452,-245.0
18048.92250880269,-319.0
18048.92257129993,-222.0
18048.922633797167,-247.0
18048.9226962944,-219.0
18048.92275879164,0.0
18048.922821288877,105.0
18048.922883786116,306.0
18048.92294628335,732.0
18048.923008780588,560.0
18048.923071277826,329.0
18048.923133775064,418.0
18048.9231962723,2.0
18048.923258769537,-299.0
18048.923321266775,-471.0
18048.923383764013,-686.0
18048.923446261248,-443.0
18048.923508758486,-320.0
18048.923571255724,-391.0
18048.923633752962,-547.0
18048.923696250196,-576.0
18048.923758747434,-359.0
18048.923821244673,-216.0
18048.92388374191,113.0
18048.923946239145,410.0
18048.924008736383,340.0
18048.92407123362,356.0
18048.924133730856,516.0
18048.924196228094,660.0
18048.924258725332,721.0
18048.92432122257,822.0
18048.924383719805,1027.0
18048.924446217043,1008.0
18048.92450871428,984.0
18048.92457121152,895.0
18048.924633708753,587.0
18048.92469620599,670.0
18048.92475870323,679.0
18048.924821200468,935.0
18048.924883697702,1354.0
18048.92494619494,1231.0
18048.92500869218,845.0
18048.925071189416,668.0
18048.92513368665,738.0
18048.92519618389,509.0
18048.925258681127,-49.0
18048.925321178365,-257.0
18048.9253836756,-159.0
18048.925446172838,202.0
18048.925508670076,470.0
18048.925571167314,239.0
18048.92563366455,253.0
18048.925696161787,427.0
18048.925758659025,345.0
18048.92582115626,439.0
18048.925883653497,124.0
18048.925946150735,-607.0
18048.926008647974,-923.0
18048.926071145208,-793.0
18048.926133642446,-501.0
18048.926196139684,-506.0
18048.926258636922,-715.0
18048.926321134157,-459.0
18048.926383631395,59.0
18048.926446128633,170.0
18048.92650862587,-310.0
18048.926571123106,-813.0
18048.926633620344,-829.0
18048.92669611758,-67.0
18048.92675861482,331.0
18048.926821112054,-101.0
18048.926883609292,-677.0
18048.92694610653,-645.0
18048.92700860377,-326.0
18048.927071101003,-501.0
18048.92713359824,-906.0
18048.92719609548,-1018.0
18048.927258592717,-984.0
18048.927321089952,-1058.0
18048.92738358719,-1112.0
18048.927446084428,-1054.0
18048.927508581663,-1094.0
18048.9275710789,-1261.0
18048.92763357614,-1104.0
18048.927696073377,-1279.0
18048.92775857061,-1484.0
18048.92782106785,-1575.0
18048.927883565088,-1748.0
18048.927946062326,-1784.0
18048.92800855956,-1724.0
18048.9280710568,-1601.0
18048.928133554036,-1647.0
18048.928196051274,-1595.0
18048.92825854851,-1558.0
18048.928321045747,-1671.0
18048.928383542985,-1689.0
18048.928446040223,-1800.0
18048.928508537458,-1862.0
18048.928571034696,-1698.0
18048.928633531934,-1424.0
18048.928696029172,-1228.0
18048.928758526406,-1093.0
18048.928821023645,-1324.0
18048.928883520883,-1661.0
18048.92894601812,-1972.0
18048.929008515355,-2222.0
18048.929071012593,-2243.0
18048.92913350983,-2191.0
18048.92919600707,-1944.0
18048.929258504304,-1391.0
18048.929321001542,-1045.0
18048.92938349878,-1286.0
18048.929445996015,-1349.0
18048.929508493253,-1172.0
18048.92957099049,-1331.0
18048.92963348773,-1630.0
18048.929695984963,-2043.0
18048.9297584822,-2395.0
18048.92982097944,-2230.0
18048.929883476678,-1794.0
18048.929945973912,-1327.0
18048.93000847115,-987.0
18048.93007096839,-890.0
18048.930133465627,-735.0
18048.93019596286,-575.0
18048.9302584601,-1066.0
18048.930320957337,-1454.0
18048.930383454575,-1251.0
18048.93044595181,-1009.0
18048.930508449048,-420.0
18048.930570946286,-78.0
18048.930633443524,-267.0
18048.93069594076,-106.0
18048.930758437997,362.0
18048.930820935235,505.0
18048.930883432473,71.0
18048.930945929707,-191.0
18048.931008426945,-75.0
18048.931070924184,-381.0
18048.931133421418,-265.0
18048.931195918656,472.0
18048.931258415894,529.0
18048.931320913132,415.0
18048.931383410367,442.0
18048.931445907605,602.0
18048.931508404843,833.0
18048.93157090208,412.0
18048.931633399316,213.0
18048.931695896554,273.0
18048.931758393792,442.0
18048.93182089103,466.0
18048.931883388264,-219.0
18048.931945885503,-522.0
18048.93200838274,-263.0
18048.93207087998,-172.0
18048.932133377213,-77.0
18048.93219587445,-13.0
18048.93225837169,-79.0
18048.932320868927,-140.0
18048.932383366162,102.0
18048.9324458634,437.0
18048.932508360638,518.0
18048.932570857876,366.0
18048.93263335511,67.0
18048.93269585235,-120.0
18048.932758349587,-200.0
18048.93282084682,-284.0
18048.93288334406,-359.0
18048.932945841298,-215.0
18048.933008338536,68.0
18048.93307083577,336.0
18048.93313333301,739.0
18048.933195830246,787.0
18048.933258327485,428.0
18048.93332082472,323.0
18048.933383321957,440.0
18048.933445819195,635.0
18048.933508316433,470.0
18048.933570813668,-126.0
18048.933633310906,-314.0
18048.933695808144,-85.0
18048.933758305382,22.0
18048.933820802617,-35.0
18048.933883299855,-302.0
18048.933945797093,-405.0
18048.93400829433,-82.0
18048.934070791565,203.0
18048.934133288803,309.0
18048.93419578604,186.0
18048.93425828328,154.0
18048.934320780514,328.0
18048.934383277752,516.0
18048.93444577499,564.0
18048.93450827223,643.0
18048.934570769463,530.0
18048.9346332667,775.0
18048.93469576394,960.0
18048.934758261174,720.0
18048.93482075841,318.0
18048.93488325565,-183.0
18048.934945752888,-145.0
18048.935008250122,111.0
18048.93507074736,20.0
18048.9351332446,-349.0
18048.935195741837,-360.0
18048.93525823907,-213.0
18048.93532073631,-251.0
18048.935383233547,-433.0
18048.935445730785,-678.0
18048.93550822802,-778.0
18048.935570725258,-714.0
18048.935633222496,-710.0
18048.935695719734,-581.0
18048.93575821697,-784.0
18048.935820714207,-882.0
18048.935883211445,-339.0
18048.935945708683,-33.0
18048.936008205917,214.0
18048.936070703156,108.0
18048.936133200394,-524.0
18048.93619569763,-658.0
18048.936258194866,-529.0
18048.936320692104,-733.0
18048.936383189342,-859.0
18048.936445686577,-855.0
18048.936508183815,-1150.0
18048.936570681053,-1157.0
18048.93663317829,-900.0
18048.936695675526,-628.0
18048.936758172764,-278.0
18048.936820670002,55.0
18048.93688316724,273.0
18048.936945664474,340.0
18048.937008161713,112.0
18048.93707065895,-286.0
18048.93713315619,-290.0
18048.937195653423,-386.0
18048.93725815066,-265.0
18048.9373206479,-27.0
18048.937383145138,-52.0
18048.937445642372,-49.0
18048.93750813961,-224.0
18048.93757063685,-310.0
18048.937633134086,74.0
18048.93769563132,337.0
18048.93775812856,155.0
18048.937820625797,-89.0
18048.937883123035,-277.0
18048.93794562027,-276.0
18048.938008117508,-53.0
18048.938070614746,-99.0
18048.938133111984,-382.0
18048.93819560922,-243.0
18048.938258106456,-144.0
18048.938320603695,-267.0
18048.93838310093,-335.0
18048.938445598167,-638.0
18048.938508095405,-578.0
18048.938570592643,-124.0
18048.938633089878,170.0
18048.938695587116,390.0
18048.938758084354,298.0
18048.938820581592,290.0
18048.938883078827,424.0
18048.938945576065,274.0
18048.939008073303,184.0
18048.93907057054,318.0
18048.939133067775,645.0
18048.939195565014,711.0
18048.93925806225,596.0
18048.93932055949,712.0
18048.939383056724,694.0
18048.939445553962,485.0
18048.9395080512,469.0
18048.93957054844,579.0
18048.939633045673,752.0
18048.93969554291,752.0
18048.93975804015,395.0
18048.939820537387,132.0
18048.93988303462,374.0
18048.93994553186,408.0
18048.940008029098,164.0
18048.940070526332,223.0
18048.94013302357,298.0
18048.94019552081,471.0
18048.940258018047,798.0
18048.94032051528,674.0
18048.94038301252,331.0
18048.940445509757,175.0
18048.940508006996,161.0
18048.94057050423,55.0
18048.940633001468,-437.0
18048.940695498706,-405.0
18048.940757995944,-352.0
18048.94082049318,-607.0
18048.940882990417,-434.0
18048.940945487655,-355.0
18048.941007984893,-553.0
18048.941070482128,-582.0
18048.941132979366,-295.0
18048.941195476604,-252.0
18048.941257973842,-83.0
18048.941320471076,144.0
18048.941382968314,46.0
18048.941445465553,16.0
18048.94150796279,30.0
18048.941570460025,-43.0
18048.941632957263,99.0
18048.9416954545,35.0
18048.94175795174,-261.0
18048.941820448974,-141.0
18048.941882946212,-81.0
18048.94194544345,-197.0
18048.942007940685,-317.0
18048.942070437923,-197.0
18048.94213293516,20.0
18048.9421954324,-38.0
18048.942257929633,-250.0
18048.94232042687,-464.0
18048.94238292411,-559.0
18048.942445421348,-468.0
18048.942507918582,-496.0
18048.94257041582,-504.0
18048.94263291306,-446.0
18048.942695410296,-550.0
18048.94275790753,-403.0
18048.94282040477,-624.0
18048.942882902007,-843.0
18048.942945399245,-535.0
18048.94300789648,-185.0
18048.943070393718,-90.0
18048.943132890956,58.0
18048.943195388194,25.0
18048.94325788543,57.0
18048.943320382667,289.0
18048.943382879905,250.0
18048.943445377143,162.0
18048.943507874377,-107.0
18048.943570371615,-261.0
18048.943632868853,-64.0
18048.943695366088,-301.0
18048.943757863326,-833.0
18048.943820360564,-362.0
18048.943882857802,370.0
18048.943945355037,230.0
18048.944007852275,231.0
18048.944070349513,358.0
18048.94413284675,283.0
18048.944195343985,515.0
18048.944257841224,602.0
18048.94432033846,334.0
18048.9443828357,2.0
18048.944445332934,-198.0
18048.944507830172,-53.0
18048.94457032741,228.0
18048.94463282465,119.0
18048.944695321883,-255.0
18048.94475781912,240.0
18048.94482031636,702.0
18048.944882813597,395.0
18048.944945310832,297.0
18048.94500780807,193.0
18048.945070305308,0.0
18048.945132802546,-103.0
18048.94519529978,-135.0
18048.94525779702,-94.0
18048.945320294257,-162.0
18048.94538279149,-237.0
18048.94544528873,-186.0
18048.945507785967,107.0
18048.945570283206,188.0
18048.94563278044,-175.0
18048.945695277678,-386.0
18048.945757774916,-192.0
18048.945820272154,-82.0
18048.94588276939,-250.0
18048.945945266627,-529.0
18048.946007763865,-792.0
18048.946070261103,-797.0
18048.946132758338,-289.0
18048.946195255576,-5.0
18048.946257752814,88.0
18048.946320250052,195.0
18048.946382747286,309.0
18048.946445244525,380.0
18048.946507741763,394.0
18048.946570239,43.0
18048.946632736235,-333.0
18048.946695233473,-270.0
18048.94675773071,93.0
18048.94682022795,367.0
18048.946882725184,425.0
18048.946945222422,322.0
18048.94700771966,96.0
18048.9470702169,132.0
18048.947132714133,479.0
18048.94719521137,1106.0
18048.94725770861,1326.0
18048.947320205843,658.0
18048.94738270308,186.0
18048.94744520032,378.0
18048.947507697558,640.0
18048.947570194792,468.0
18048.94763269203,410.0
18048.94769518927,642.0
18048.947757686507,1130.0
18048.94782018374,1823.0
18048.94788268098,1719.0
18048.947945178217,1209.0
18048.948007675455,1202.0
18048.94807017269,1424.0
18048.948132669928,1823.0
18048.948195167166,1542.0
18048.948257664404,632.0
18048.94832016164,451.0
18048.948382658877,779.0
18048.948445156115,1149.0
18048.948507653353,1323.0
18048.948570150587,954.0
18048.948632647825,753.0
18048.948695145064,921.0
18048.9487576423,1112.0
18048.948820139536,908.0
18048.948882636774,421.0
18048.948945134012,186.0
18048.949007631247,243.0
18048.949070128485,622.0
18048.949132625723,538.0
18048.94919512296,389.0
18048.949257620196,277.0
18048.949320117434,161.0
18048.94938261467,366.0
18048.94944511191,32.0
18048.949507609144,-436.0
18048.949570106382,-465.0
18048.94963260362,-316.0
18048.94969510086,-227.0
18048.949757598093,-54.0
18048.94982009533,237.0
18048.94988259257,-77.0
18048.949945089807,-612.0
18048.950007587042,-683.0
18048.95007008428,-538.0
18048.950132581518,-575.0
18048.950195078756,-789.0
18048.95025757599,-927.0
18048.95032007323,-675.0
18048.950382570467,-470.0
18048.950445067705,-515.0
18048.95050756494,-444.0
18048.950570062178,-640.0
18048.950632559416,-703.0
18048.95069505665,-643.0
18048.95075755389,-594.0
18048.950820051126,-660.0
18048.950882548364,-599.0
18048.9509450456,-107.0
18048.951007542837,424.0
18048.951070040075,776.0
18048.951132537313,498.0
18048.951195034548,313.0
18048.951257531786,618.0
18048.951320029024,724.0
18048.951382526262,669.0
18048.951445023496,733.0
18048.951507520735,510.0
18048.951570017973,227.0
18048.95163251521,335.0
18048.951695012445,589.0
18048.951757509683,1096.0
18048.95182000692,1321.0
18048.95188250416,1255.0
18048.951945001394,1248.0
18048.952007498632,1330.0
18048.95206999587,1311.0
18048.95213249311,1085.0
18048.952194990343,822.0
18048.95225748758,421.0
18048.95231998482,112.0
18048.952382482057,349.0
18048.95244497929,445.0
18048.95250747653,215.0
18048.952569973768,177.0
18048.952632471002,191.0
18048.95269496824,169.0
18048.95275746548,77.0
18048.952819962717,101.0
18048.95288245995,305.0
18048.95294495719,429.0
18048.953007454427,965.0
18048.953069951665,1206.0
18048.9531324489,686.0
18048.953194946138,143.0
18048.953257443376,173.0
18048.953319940614,268.0
18048.95338243785,137.0
18048.953444935087,194.0
18048.953507432325,198.0
18048.953569929563,305.0
18048.953632426797,807.0
18048.953694924036,1328.0
18048.953757421274,1639.0
18048.95381991851,1566.0
18048.953882415746,1482.0
18048.953944912984,1814.0
18048.954007410222,1803.0
18048.95406990746,1431.0
18048.954132404695,1067.0
18048.954194901933,1014.0
18048.95425739917,1406.0
18048.954319896406,1544.0
18048.954382393644,1130.0
18048.954444890882,1011.0
18048.95450738812,1042.0
18048.954569885354,795.0
18048.954632382593,840.0
18048.95469487983,1065.0
18048.95475737707,959.0
18048.954819874303,763.0
18048.95488237154,587.0
18048.95494486878,-3.0
18048.955007366018,29.0
18048.955069863252,465.0
18048.95513236049,318.0
18048.95519485773,272.0
18048.955257354966,328.0
18048.9553198522,656.0
18048.95538234944,829.0
18048.955444846677,670.0
18048.955507343915,410.0
18048.95556984115,275.0
18048.955632338388,693.0
18048.955694835626,617.0
18048.955757332864,75.0
18048.9558198301,-245.0
18048.955882327336,-79.0
18048.955944824575,381.0
18048.956007321813,929.0
18048.956069819047,1056.0
18048.956132316285,534.0
18048.956194813523,354.0
18048.956257310758,576.0
18048.956319807996,524.0
18048.956382305234,383.0
18048.956444802472,327.0
18048.956507299707,256.0
18048.956569796945,193.0
18048.956632294183,477.0
18048.95669479142,499.0
18048.956757288655,-141.0
18048.956819785893,-252.0
18048.95688228313,-45.0
18048.95694478037,114.0
18048.957007277604,118.0
18048.957069774842,-24.0
18048.95713227208,-377.0
18048.95719476932,-548.0
18048.957257266553,-211.0
18048.95731976379,164.0
18048.95738226103,58.0
18048.957444758267,43.0
18048.9575072555,151.0
18048.95756975274,-85.0
18048.957632249978,-237.0
18048.957694747216,-239.0
18048.95775724445,-547.0
18048.95781974169,-582.0
18048.957882238927,-15.0
18048.95794473616,191.0
18048.9580072334,7.0
18048.958069730637,-401.0
18048.958132227875,-689.0
18048.95819472511,-551.0
18048.958257222348,-241.0
18048.958319719586,-217.0
18048.958382216824,-621.0
18048.95844471406,-865.0
18048.958507211297,-522.0
18048.958569708535,-204.0
18048.958632205773,-187.0
18048.958694703007,63.0
18048.958757200246,574.0
18048.958819697484,821.0
18048.95888219472,556.0
18048.958944691956,293.0
18048.959007189194,11.0
18048.959069686432,-530.0
18048.95913218367,-942.0
18048.959194680905,-1215.0
18048.959257178143,-1549.0
18048.95931967538,-1389.0
18048.95938217262,-1409.0
18048.959444669854,-1310.0
18048.959507167092,-751.0
18048.95956966433,-338.0
18048.959632161568,-212.0
18048.959694658803,-307.0
18048.95975715604,-231.0
18048.95981965328,-206.0
18048.959882150513,-205.0
18048.95994464775,114.0
18048.96000714499,407.0
18048.960069642228,214.0
18048.960132139462,342.0
18048.9601946367,574.0
18048.96025713394,843.0
18048.960319631176,1285.0
18048.96038212841,1014.0
18048.96044462565,504.0
18048.960507122887,681.0
18048.960569620125,883.0
18048.96063211736,685.0
18048.960694614598,724.0
18048.960757111836,919.0
18048.960819609074,1120.0
18048.96088210631,1164.0
18048.960944603547,873.0
18048.961007100785,504.0
18048.961069598023,421.0
18048.961132095257,765.0
18048.961194592495,1070.0
18048.961257089733,1159.0
18048.96131958697,1070.0
18048.961382084206,949.0
18048.961444581444,1013.0
18048.961507078682,1457.0
18048.961569575917,1450.0
18048.961632073155,1227.0
18048.961694570393,1079.0
18048.96175706763,875.0
18048.961819564865,1080.0
18048.961882062104,869.0
18048.96194455934,570.0
18048.96200705658,569.0
18048.962069553814,479.0
18048.962132051052,965.0
18048.96219454829,1410.0
18048.96225704553,1312.0
18048.962319542763,1287.0
18048.96238204,1150.0
18048.96244453724,1293.0
18048.962507034477,1558.0
18048.96256953171,1402.0
18048.96263202895,890.0
18048.962694526188,446.0
18048.962757023426,457.0
18048.96281952066,606.0
18048.9628820179,344.0
18048.962944515137,210.0
18048.963007012375,660.0
18048.96306950961,1185.0
18048.963132006847,1690.0
18048.963194504086,1583.0
18048.96325700132,1096.0
18048.963319498558,656.0
18048.963381995796,359.0
18048.963444493034,277.0
18048.96350699027,172.0
18048.963569487507,123.0
18048.963631984745,164.0
18048.963694481983,135.0
18048.963756979218,60.0
18048.963819476456,303.0
18048.963881973694,863.0
18048.963944470932,1051.0
18048.964006968166,716.0
18048.964069465404,229.0
18048.964131962643,145.0
18048.96419445988,637.0
18048.964256957115,687.0
18048.964319454353,478.0
18048.96438195159,66.0
18048.96444444883,44.0
18048.964506946064,599.0
18048.964569443302,575.0
18048.96463194054,613.0
18048.96469443778,766.0
18048.964756935013,732.0
18048.96481943225,794.0
18048.96488192949,1028.0
18048.964944426727,869.0
18048.96500692396,370.0
18048.9650694212,664.0
18048.965131918438,1102.0
18048.965194415672,1307.0
18048.96525691291,1194.0
18048.96531941015,792.0
18048.965381907386,356.0
18048.96544440462,361.0
18048.96550690186,723.0
18048.965569399097,702.0
18048.965631896335,569.0
18048.96569439357,380.0
18048.965756890808,149.0
18048.965819388046,180.0
18048.965881885284,124.0
18048.96594438252,141.0
18048.966006879757,-83.0
18048.966069376995,26.0
18048.966131874233,295.0
18048.966194371467,90.0
18048.966256868705,-40.0
18048.966319365943,-492.0
18048.96638186318,-800.0
18048.966444360416,-390.0
18048.966506857654,130.0
18048.966569354892,-114.0
18048.96663185213,-486.0
18048.966694349365,-412.0
18048.966756846603,-33.0
18048.96681934384,95.0
18048.966881841076,-22.0
18048.966944338314,-35.0
18048.96700683555,-10.0
18048.96706933279,163.0
18048.967131830024,670.0
18048.967194327262,1043.0
18048.9672568245,847.0
18048.96731932174,258.0
18048.967381818973,102.0
18048.96744431621,348.0
18048.96750681345,200.0
18048.967569310687,204.0
18048.967631807922,132.0
18048.96769430516,206.0
18048.967756802398,468.0
18048.967819299636,421.0
18048.96788179687,621.0
18048.96794429411,592.0
18048.968006791347,463.0
18048.968069288585,583.0
18048.96813178582,574.0
18048.968194283058,553.0
18048.968256780296,510.0
18048.968319277534,386.0
18048.96838177477,495.0
18048.968444272006,757.0
18048.968506769244,535.0
18048.96856926648,531.0
18048.968631763717,737.0
18048.968694260955,752.0
18048.968756758193,842.0
18048.968819255428,796.0
18048.968881752666,786.0
18048.968944249904,790.0
18048.969006747142,632.0
18048.969069244376,659.0
18048.969131741615,776.0
18048.969194238853,626.0
18048.96925673609,542.0
18048.969319233325,734.0
18048.969381730563,912.0
18048.9694442278,1063.0
18048.96950672504,1189.0
18048.969569222274,1172.0
18048.969631719512,1184.0
18048.96969421675,1247.0
18048.96975671399,951.0
18048.969819211223,486.0
18048.96988170846,395.0
18048.9699442057,151.0
18048.970006702937,-321.0
18048.97006920017,-553.0
18048.97013169741,-304.0
18048.970194194648,47.0
18048.970256691886,-19.0
18048.97031918912,-643.0
18048.97038168636,-930.0
18048.970444183597,-651.0
18048.97050668083,-410.0
18048.97056917807,-185.0
18048.970631675307,136.0
18048.970694172545,310.0
18048.97075666978,31.0
18048.970819167018,-61.0
18048.970881664256,53.0
18048.970944161494,40.0
18048.97100665873,-3.0
18048.971069155967,200.0
18048.971131653205,418.0
18048.971194150443,669.0
18048.971256647677,722.0
18048.971319144915,856.0
18048.971381642154,1357.0
18048.97144413939,1545.0
18048.971506636626,1566.0
18048.971569133864,1173.0
18048.971631631102,679.0
18048.97169412834,222.0
18048.971756625575,91.0
18048.971819122813,201.0
18048.97188162005,380.0
18048.97194411729,632.0
18048.972006614524,613.0
18048.97206911176,339.0
18048.972131609,324.0
18048.972194106234,515.0
18048.972256603472,242.0
18048.97231910071,-28.0
18048.97238159795,138.0
18048.972444095183,105.0
18048.97250659242,-279.0
18048.97256908966,-386.0
18048.972631586897,29.0
18048.972694084132,277.0
18048.97275658137,74.0
18048.972819078608,143.0
18048.972881575846,450.0
18048.97294407308,662.0
18048.97300657032,545.0
18048.973069067557,379.0
18048.973131564795,348.0
18048.97319406203,304.0
18048.973256559268,85.0
18048.973319056506,-207.0
18048.973381553744,-217.0
18048.97344405098,-44.0
18048.973506548216,-58.0
18048.973569045454,-49.0
18048.973631542693,180.0
18048.973694039927,503.0
18048.973756537165,742.0
18048.973819034403,665.0
18048.973881531638,441.0
18048.973944028876,344.0
18048.974006526114,289.0
18048.974069023352,122.0
18048.974131520587,113.0
18048.974194017825,382.0
18048.974256515063,684.0
18048.9743190123,1057.0
18048.974381509535,1053.0
18048.974444006773,900.0
18048.97450650401,795.0
18048.97456900125,638.0
18048.974631498484,547.0
18048.974693995722,471.0
18048.97475649296,558.0
18048.9748189902,999.0
18048.974881487433,1304.0
18048.97494398467,1006.0
18048.97500648191,492.0
18048.975068979147,257.0
18048.97513147638,209.0
18048.97519397362,221.0
18048.975256470858,238.0
18048.975318968096,76.0
18048.97538146533,96.0
18048.97544396257,350.0
18048.975506459807,260.0
18048.975568957045,24.0
18048.97563145428,118.0
18048.975693951517,833.0
18048.975756448755,1047.0
18048.97581894599,655.0
18048.975881443228,595.0
18048.975943940466,731.0
18048.976006437704,803.0
18048.97606893494,845.0
18048.976131432177,951.0
18048.976193929415,973.0
18048.976256426653,757.0
18048.976318923887,497.0
18048.976381421126,396.0
18048.976443918364,507.0
18048.9765064156,720.0
18048.976568912836,793.0
18048.976631410074,595.0
18048.976693907312,263.0
18048.97675640455,12.0
18048.976818901785,-95.0
18048.976881399023,-323.0
18048.97694389626,-637.0
18048.9770063935,-768.0
18048.977068890734,-406.0
18048.977131387972,-260.0
18048.97719388521,-403.0
18048.977256382448,-239.0
18048.977318879683,112.0
18048.97738137692,221.0
18048.97744387416,432.0
18048.977506371393,564.0
18048.97756886863,241.0
18048.97763136587,76.0
18048.977693863108,-94.0
18048.977756360342,42.0
18048.97781885758,162.0
18048.97788135482,155.0
18048.977943852056,408.0
18048.97800634929,699.0
18048.97806884653,1081.0
18048.978131343767,1356.0
18048.978193841005,1092.0
18048.97825633824,862.0
18048.978318835478,1162.0
18048.978381332716,1059.0
18048.978443829954,777.0
18048.97850632719,476.0
18048.978568824426,-29.0
18048.978631321665,102.0
18048.978693818903,445.0
18048.978756316137,420.0
18048.978818813375,687.0
18048.978881310613,913.0
18048.97894380785,1017.0
18048.979006305086,894.0
18048.979068802324,482.0
18048.979131299562,152.0
18048.9791937968,-56.0
18048.979256294035,-415.0
18048.979318791273,-392.0
18048.97938128851,-40.0
18048.979443785745,208.0
18048.979506282983,120.0
18048.97956878022,-27.0
18048.97963127746,-125.0
18048.979693774694,69.0
18048.979756271932,210.0
18048.97981876917,152.0
18048.97988126641,111.0
18048.979943763643,-147.0
18048.98000626088,-398.0
18048.98006875812,-418.0
18048.980131255357,-319.0
18048.98019375259,-297.0
18048.98025624983,-398.0
18048.980318747068,-422.0
18048.980381244306,-304.0
18048.98044374154,-190.0
18048.98050623878,-132.0
18048.980568736017,-93.0
18048.980631233255,153.0
18048.98069373049,489.0
18048.980756227727,636.0
18048.980818724966,600.0
18048.980881222204,286.0
18048.980943719438,-53.0
18048.981006216676,-224.0
18048.981068713914,-262.0
18048.98113121115,85.0
18048.981193708387,89.0
18048.981256205625,182.0
18048.981318702863,730.0
18048.981381200098,786.0
18048.981443697336,1012.0
18048.981506194574,1252.0
18048.981568691812,1029.0
18048.981631189046,1152.0
18048.981693686284,1615.0
18048.981756183523,1843.0
18048.98181868076,1486.0
18048.981881177995,585.0
18048.981943675233,404.0
18048.98200617247,855.0
18048.98206866971,810.0
18048.982131166944,499.0
18048.982193664182,521.0
18048.98225616142,829.0
18048.98231865866,995.0
18048.982381155893,911.0
18048.98244365313,1245.0
18048.98250615037,1376.0
18048.982568647607,930.0
18048.98263114484,1087.0
18048.98269364208,1231.0
18048.982756139318,1000.0
18048.982818636556,808.0
18048.98288113379,629.0
18048.98294363103,1059.0
18048.983006128266,1435.0
18048.9830686255,1334.0
18048.98313112274,1198.0
18048.983193619977,879.0
18048.983256117215,661.0
18048.98331861445,876.0
18048.983381111688,1081.0
18048.983443608926,1098.0
18048.983506106164,855.0
18048.9835686034,735.0
18048.983631100637,921.0
18048.983693597875,959.0
18048.983756095113,571.0
18048.983818592347,-85.0
18048.983881089585,-89.0
18048.983943586823,-45.0
18048.98400608406,-112.0
18048.984068581296,-25.0
18048.984131078534,-246.0
18048.984193575772,-316.0
18048.98425607301,-275.0
18048.984318570245,-417.0
18048.984381067483,-464.0
18048.98444356472,-304.0
18048.98450606196,-305.0
18048.984568559194,-132.0
18048.98463105643,-51.0
18048.98469355367,-434.0
18048.984756050904,-889.0
18048.984818548142,-821.0
18048.98488104538,-364.0
18048.98494354262,-114.0
18048.985006039853,-440.0
18048.98506853709,-621.0
18048.98513103433,-204.0
18048.985193531567,121.0
18048.9852560288,-74.0
18048.98531852604,-263.0
18048.985381023278,-38.0
18048.985443520516,35.0
18048.98550601775,37.0
18048.98556851499,-26.0
18048.985631012227,-235.0
18048.985693509465,-9.0
18048.9857560067,32.0
18048.985818503937,24.0
18048.985881001176,-1.0
18048.985943498414,-310.0
18048.986005995648,-491.0
18048.986068492886,-529.0
18048.986130990124,-572.0
18048.986193487362,-518.0
18048.986255984597,-387.0
18048.986318481835,-354.0
18048.986380979073,-286.0
18048.986443476308,-374.0
18048.986505973546,-583.0
18048.986568470784,-359.0
18048.986630968022,-203.0
18048.986693465256,-461.0
18048.986755962494,-630.0
18048.986818459733,-286.0
18048.98688095697,-117.0
18048.986943454205,-730.0
18048.987005951443,-1140.0
18048.98706844868,-1171.0
18048.98713094592,-932.0
18048.987193443154,-404.0
18048.987255940392,-132.0
18048.98731843763,-59.0
18048.98738093487,350.0
18048.987443432103,398.0
18048.98750592934,282.0
18048.98756842658,272.0
18048.987630923817,127.0
18048.98769342105,365.0
18048.98775591829,654.0
18048.987818415528,807.0
18048.987880912766,557.0
18048.98794341,196.0
18048.98800590724,303.0
18048.988068404477,520.0
18048.988130901715,853.0
18048.98819339895,747.0
18048.988255896187,476.0
18048.988318393425,611.0
18048.98838089066,865.0
18048.988443387898,818.0
18048.988505885136,815.0
18048.988568382374,1141.0
18048.98863087961,1198.0
18048.988693376847,1055.0
18048.988755874085,1166.0
18048.988818371323,1208.0
18048.988880868557,1076.0
18048.988943365795,1206.0
18048.989005863034,1209.0
18048.98906836027,1090.0
18048.989130857506,1032.0
18048.989193354744,1139.0
18048.989255851982,1154.0
18048.98931834922,979.0
18048.989380846455,919.0
18048.989443343693,1043.0
18048.98950584093,1110.0
18048.98956833817,1046.0
18048.989630835404,797.0
18048.98969333264,856.0
18048.98975582988,1366.0
18048.989818327118,1276.0
18048.989880824352,861.0
18048.98994332159,1048.0
18048.99000581883,867.0
18048.990068316063,650.0
18048.9901308133,705.0
18048.99019331054,605.0
18048.990255807777,627.0
18048.990318305012,768.0
18048.99038080225,1081.0
18048.990443299488,1159.0
18048.990505796726,930.0
18048.99056829396,916.0
18048.9906307912,774.0
18048.990693288437,872.0
18048.990755785675,778.0
18048.99081828291,419.0
18048.990880780148,434.0
18048.990943277386,519.0
18048.991005774624,715.0
18048.99106827186,655.0
18048.991130769096,620.0
18048.991193266334,755.0
18048.991255763573,647.0
18048.991318260807,577.0
18048.991380758045,674.0
18048.991443255283,510.0
18048.99150575252,367.0
18048.991568249756,457.0
18048.991630746994,509.0
18048.991693244232,483.0
18048.991755741466,285.0
18048.991818238705,148.0
18048.991880735943,398.0
18048.99194323318,619.0
18048.992005730415,646.0
18048.992068227653,381.0
18048.99213072489,285.0
18048.99219322213,230.0
18048.992255719364,-73.0
18048.992318216602,96.0
18048.99238071384,-55.0
18048.99244321108,-571.0
18048.992505708313,-571.0
18048.99256820555,-317.0
18048.99263070279,-98.0
18048.992693200027,-86.0
18048.99275569726,-290.0
18048.9928181945,-140.0
18048.992880691738,150.0
18048.992943188976,278.0
18048.99300568621,177.0
18048.99306818345,344.0
18048.993130680687,803.0
18048.993193177925,840.0
18048.99325567516,870.0
18048.993318172397,844.0
18048.993380669635,609.0
18048.993443166873,630.0
18048.993505664108,1003.0
18048.993568161346,1143.0
18048.993630658584,1047.0
18048.99369315582,1075.0
18048.993755653057,916.0
18048.993818150295,539.0
18048.993880647533,611.0
18048.993943144767,785.0
18048.994005642006,938.0
18048.994068139244,1034.0
18048.99413063648,710.0
18048.994193133716,243.0
18048.994255630954,200.0
18048.994318128192,70.0
18048.99438062543,-329.0
18048.994443122665,-510.0
18048.994505619903,-407.0
18048.99456811714,49.0
18048.99463061438,506.0
18048.994693111614,347.0
18048.994755608852,47.0
18048.99481810609,210.0
18048.994880603328,427.0
18048.994943100563,552.0
18048.9950055978,455.0
18048.99506809504,75.0
18048.995130592277,-159.0
18048.99519308951,-31.0
18048.99525558675,317.0
18048.995318083988,255.0
18048.995380581222,-280.0
18048.99544307846,-384.0
18048.9955055757,-54.0
18048.995568072936,-82.0
18048.99563057017,-336.0
18048.99569306741,-458.0
18048.995755564647,-416.0
18048.995818061885,-220.0
18048.99588055912,-256.0
18048.995943056358,-443.0
18048.996005553596,-683.0
18048.996068050834,-927.0
18048.99613054807,-1090.0
18048.996193045306,-909.0
18048.996255542545,-798.0
18048.996318039783,-1086.0
18048.996380537017,-1233.0
18048.996443034255,-1083.0
18048.996505531493,-580.0
18048.99656802873,-344.0
18048.996630525966,-665.0
18048.996693023204,-807.0
18048.996755520442,-674.0
18048.99681801768,-509.0
18048.996880514915,-221.0
18048.996943012153,-68.0
18048.99700550939,170.0
18048.997068006625,692.0
18048.997130503863,733.0
18048.9971930011,686.0
18048.99725549834,730.0
18048.997317995574,647.0
18048.997380492812,656.0
18048.99744299005,686.0
18048.99750548729,786.0
18048.997567984523,818.0
18048.99763048176,1227.0
18048.997692979,1431.0
18048.997755476237,1402.0
18048.99781797347,1539.0
18048.99788047071,1298.0
18048.997942967948,1345.0
18048.998005465186,1252.0
18048.99806796242,935.0
18048.99813045966,977.0
18048.998192956897,833.0
18048.998255454135,691.0
18048.99831795137,1004.0
18048.998380448607,1084.0
18048.998442945845,921.0
18048.998505443084,1032.0
18048.998567940318,1166.0
18048.998630437556,1204.0
18048.998692934794,1426.0
18048.998755432032,1487.0
18048.998817929267,1204.0
18048.998880426505,1139.0
18048.998942923743,1613.0
18048.999005420977,1746.0
18048.999067918216,1475.0
18048.999130415454,1132.0
18048.99919291269,961.0
18048.999255409926,1127.0
18048.999317907164,997.0
18048.999380404402,813.0
18048.99944290164,529.0
18048.999505398875,259.0
18048.999567896113,232.0
18048.99963039335,262.0
18048.99969289059,446.0
18048.999755387824,284.0
18048.999817885062,253.0
18048.9998803823,394.0
18048.999942879538,-45.0
18049.000005376773,-328.0
18049.00006787401,-303.0
18049.00013037125,-499.0
18049.000192868487,-428.0
18049.00025536572,-348.0
18049.00031786296,47.0
18049.000380360198,530.0
18049.000442857436,335.0
18049.00050535467,-186.0
18049.00056785191,-75.0
18049.000630349146,724.0
18049.00069284638,1380.0
18049.00075534362,1534.0
18049.000817840857,1151.0
18049.000880338095,823.0
18049.00094283533,1055.0
18049.001005332568,1198.0
18049.001067829806,1110.0
18049.001130327044,1062.0
18049.00119282428,1021.0
18049.001255321517,1394.0
18049.001317818755,1784.0
18049.001380315993,1984.0
18049.001442813227,2073.0
18049.001505310465,1951.0
18049.001567807703,2131.0
18049.00163030494,2439.0
18049.001692802176,2363.0
18049.001755299414,2170.0
18049.001817796652,1704.0
18049.00188029389,1117.0
18049.001942791125,1160.0
18049.002005288363,1272.0
18049.0020677856,917.0
18049.00213028284,574.0
18049.002192780074,641.0
18049.00225527731,803.0
18049.00231777455,1144.0
18049.002380271788,1171.0
18049.002442769022,739.0
18049.00250526626,605.0
18049.0025677635,623.0
18049.002630260733,874.0
18049.00269275797,856.0
18049.00275525521,258.0
18049.002817752447,-209.0
18049.00288024968,-368.0
18049.00294274692,-369.0
18049.003005244158,-386.0
18049.003067741396,-271.0
18049.00313023863,-85.0
18049.00319273587,80.0
18049.003255233107,117.0
18049.003317730345,-3.0
18049.00338022758,-29.0
18049.003442724817,-224.0
18049.003505222056,-627.0
18049.003567719294,-459.0
18049.003630216528,-150.0
18049.003692713766,-268.0
18049.003755211004,-519.0
18049.003817708242,-966.0
18049.003880205477,-1040.0
18049.003942702715,-813.0
18049.004005199953,-853.0
18049.00406769719,-1119.0
18049.004130194426,-1187.0
18049.004192691664,-1088.0
18049.004255188902,-1199.0
18049.004317686136,-1173.0
18049.004380183374,-1060.0
18049.004442680613,-762.0
18049.00450517785,-625.0
18049.004567675085,-624.0
18049.004630172323,-477.0
18049.00469266956,-622.0
18049.0047551668,-542.0
18049.004817664034,-142.0
18049.004880161272,-63.0
18049.00494265851,112.0
18049.00500515575,231.0
18049.005067652983,411.0
18049.00513015022,394.0
18049.00519264746,-95.0
18049.005255144697,-90.0
18049.00531764193,347.0
18049.00538013917,470.0
18049.005442636408,495.0
18049.005505133646,236.0
18049.00556763088,-69.0
18049.00563012812,297.0
18049.005692625356,377.0
18049.005755122595,633.0
18049.00581761983,1138.0
18049.005880117067,1298.0
18049.005942614305,1765.0
18049.006005111543,2137.0
18049.006067608778,1848.0
18049.006130106016,1127.0
18049.006192603254,558.0
18049.00625510049,843.0
18049.006317597727,1045.0
18049.006380094965,1205.0
18049.006442592203,1058.0
18049.006505089437,439.0
