0,1,2,3,4,5,6,7,8,9,10
18167.242909127395,-134.25953674316406,609.0457153320312,-160.1945037841797,-1380.099365234375,-17.174272537231445,47.451297760009766,22.011159896850586,79.00308990478516,353.5694274902344,65535.0
18167.24330913595,-154.4281463623047,595.1883544921875,-166.7351837158203,-1392.5457763671875,-16.99797821044922,53.587799072265625,26.676958084106445,80.68553924560547,365.6198425292969,65535.0
18167.2437091445,-137.40774536132812,585.6021728515625,-176.61355590820312,-1418.980224609375,-22.2340030670166,52.02483367919922,22.02239990234375,80.23246002197266,347.6082458496094,65535.0
18167.244109153053,-111.16088104248047,589.7149658203125,-180.0391082763672,-1430.4307861328125,-16.759225845336914,55.91243362426758,26.067808151245117,83.25664520263672,341.5698547363281,65535.0
18167.244509161606,-103.70582580566406,597.1690673828125,-184.71351623535156,-1438.8671875,-17.009431838989258,56.45570373535156,27.03520965576172,83.83330535888672,345.9076843261719,65535.0
18167.244909170156,-108.00345611572266,590.0089111328125,-180.84500122070312,-1445.697265625,-11.729201316833496,63.64254379272461,32.28890609741211,87.14682006835938,348.52490234375,65535.0
18167.24530917871,-135.98440551757812,573.256103515625,-170.81137084960938,-1453.3414306640625,-5.3043036460876465,72.45065307617188,38.69424819946289,94.05362701416016,338.92633056640625,65535.0
18167.245709187264,-147.89501953125,567.9660034179688,-172.70687866210938,-1455.9814453125,-19.20380973815918,62.036659240722656,26.692163467407227,83.54889678955078,339.09918212890625,65535.0
18167.246109195814,-147.9436798095703,577.13330078125,-177.75628662109375,-1450.466552734375,-19.79385757446289,58.80072784423828,24.57438850402832,79.401611328125,347.7196044921875,65535.0
18167.246509204368,-121.29243469238281,580.6580200195312,-179.4478302001953,-1438.0662841796875,-15.017149925231934,68.18242645263672,29.825958251953125,85.6190185546875,343.7283020019531,65535.0
18167.24690921292,-74.87220001220703,557.70849609375,-188.86569213867188,-1432.2210693359375,-0.7829111814498901,80.11602783203125,41.17905807495117,99.18413543701172,342.661865234375,65535.0
18167.247309221475,-62.00841522216797,553.1988525390625,-184.38143920898438,-1442.001708984375,4.102551460266113,89.56087493896484,45.99265670776367,101.10868072509766,353.08892822265625,65535.0
18167.247709230025,-91.36177825927734,555.86572265625,-174.01657104492188,-1436.1580810546875,-9.78982925415039,79.2986831665039,34.277992248535156,90.59978485107422,344.4021301269531,65535.0
18167.24810923858,-101.84178161621094,557.6436767578125,-179.03634643554688,-1425.2750244140625,-0.4386911690235138,85.19842529296875,38.801658630371094,97.78016662597656,357.1285095214844,65535.0
18167.248509247132,-108.01339721679688,560.5712280273438,-197.66184997558594,-1409.6834716796875,7.091456413269043,93.33157348632812,48.74022674560547,102.29686737060547,347.80255126953125,65535.0
18167.248909255683,-98.37728881835938,555.4259033203125,-189.56298828125,-1410.2593994140625,-3.1859130859375,84.00932312011719,40.50484085083008,95.27448272705078,340.00201416015625,65535.0
18167.249309264236,-96.69772338867188,557.2799682617188,-181.16836547851562,-1400.22314453125,-3.731605291366577,84.6347885131836,39.75384521484375,97.35026550292969,339.46966552734375,65535.0
18167.24970927279,-84.41082000732422,562.849609375,-176.93392944335938,-1383.645263671875,4.059896469116211,92.68785095214844,50.983680725097656,106.20482635498047,340.3961181640625,65535.0
18167.250109281344,-77.3619384765625,563.426025390625,-166.80526733398438,-1350.960205078125,0.4360833168029785,87.340087890625,44.457061767578125,101.55631256103516,351.4587097167969,65535.0
18167.250509289894,-73.8955078125,573.2496337890625,-158.77072143554688,-1304.3724365234375,9.571884155273438,98.93921661376953,51.88689041137695,110.34123992919922,344.3614196777344,65535.0
18167.250909298447,-90.30004119873047,586.87109375,-158.09056091308594,-1283.9637451171875,5.730062007904053,93.20844268798828,53.05647659301758,105.9985580444336,344.4316101074219,65535.0
18167.251309307,-92.34420013427734,591.7456665039062,-155.5291290283203,-1284.903076171875,7.268654823303223,93.99993133544922,53.03935623168945,106.7475357055664,347.96759033203125,65535.0
18167.25170931555,-90.78758239746094,585.7255859375,-153.8958282470703,-1304.9097900390625,3.5613133907318115,89.79378509521484,47.37322998046875,102.29756927490234,332.195068359375,65535.0
18167.252109324105,-100.39761352539062,592.4935302734375,-160.7970733642578,-1317.0068359375,-0.1404258906841278,83.4333724975586,43.529388427734375,96.4029769897461,342.6867980957031,65535.0
18167.25250933266,-104.76507568359375,598.6248168945312,-169.8715057373047,-1315.480712890625,-2.0772712230682373,82.76769256591797,40.85097885131836,96.82745361328125,349.8660888671875,65535.0
18167.252909341212,-105.66180419921875,602.6563720703125,-175.56851196289062,-1317.3231201171875,-12.814576148986816,71.75672149658203,32.108619689941406,86.64522552490234,335.8330993652344,65535.0
18167.253309349762,-83.04181671142578,598.09033203125,-168.65687561035156,-1318.1971435546875,-6.954432487487793,73.91162109375,37.43616485595703,93.26628875732422,346.5860900878906,65535.0
18167.253709358316,-62.780029296875,597.5222778320312,-170.07705688476562,-1325.317138671875,-8.719411849975586,70.71640014648438,34.314247131347656,92.25569152832031,346.61669921875,65535.0
18167.25410936687,-45.797115325927734,602.7816162109375,-168.22511291503906,-1343.4246826171875,-7.406167507171631,70.4281005859375,35.91533660888672,89.89118957519531,335.2745056152344,65535.0
18167.25450937542,-31.26304054260254,603.6723022460938,-174.447509765625,-1367.8995361328125,-7.5983686447143555,67.52629089355469,36.07938003540039,91.89962005615234,333.59228515625,65535.0
18167.254909383973,5.200864791870117,595.125732421875,-166.74705505371094,-1391.5445556640625,-10.174821853637695,65.68771362304688,33.2284049987793,87.09813690185547,340.0579833984375,65535.0
18167.255309392527,44.76054382324219,593.857666015625,-156.60984802246094,-1408.4849853515625,-14.227051734924316,58.67711639404297,28.115280151367188,85.62908935546875,340.3536682128906,65535.0
18167.25570940108,58.16514587402344,603.6767578125,-163.9214630126953,-1435.6416015625,-12.29691219329834,59.39387893676758,30.533706665039062,85.9822769165039,345.4507751464844,65535.0
18167.25610940963,55.19045639038086,605.0507202148438,-170.43101501464844,-1439.640869140625,-14.048080444335938,57.49625778198242,26.988670349121094,84.52991485595703,346.6255798339844,65535.0
18167.256509418185,65.85010528564453,607.6241455078125,-169.21499633789062,-1415.9862060546875,-3.9329612255096436,68.66593170166016,39.39254379272461,94.02702331542969,339.6358947753906,65535.0
18167.25690942674,85.92259216308594,612.0014038085938,-161.94509887695312,-1365.5010986328125,-3.8830647468566895,69.58417510986328,40.09983825683594,94.17787170410156,335.337158203125,65535.0
18167.25730943529,89.3859634399414,613.8351440429688,-161.02828979492188,-1326.1678466796875,-11.647478103637695,59.689125061035156,34.47142028808594,89.77774047851562,328.22467041015625,65535.0
18167.257709443842,86.58382415771484,617.7717895507812,-147.77015686035156,-1325.761962890625,-20.85350799560547,48.53827667236328,25.96240234375,79.13835906982422,334.911865234375,65535.0
18167.258109452396,72.57704162597656,617.3900146484375,-152.05026245117188,-1306.7852783203125,-20.975704193115234,46.38173294067383,22.198545455932617,78.78192138671875,343.75177001953125,65535.0
18167.25850946095,36.701324462890625,599.6906127929688,-163.70274353027344,-1307.2957763671875,-14.022193908691406,55.12994384765625,28.529281616210938,86.1640625,330.53131103515625,65535.0
18167.2589094695,-4.712057113647461,599.0428466796875,-178.7774200439453,-1317.0897216796875,-16.99349021911621,49.7926025390625,26.121482849121094,79.03485870361328,331.98199462890625,65535.0
18167.259309478053,-25.868717193603516,592.6845092773438,-175.93682861328125,-1313.72802734375,-22.61947250366211,44.98381423950195,22.58788299560547,78.95374298095703,339.6827697753906,65535.0
18167.259709486607,-33.47537612915039,594.8607788085938,-167.64529418945312,-1310.940673828125,-25.77843475341797,41.466590881347656,17.06500816345215,75.97895050048828,334.8742370605469,65535.0
18167.260109495157,-40.900245666503906,594.2950439453125,-167.2385711669922,-1333.276611328125,-17.95439338684082,46.918540954589844,24.41335678100586,79.1919174194336,341.1907958984375,65535.0
18167.26050950371,-60.128177642822266,585.03369140625,-174.9945831298828,-1361.779052734375,-18.366750717163086,47.476768493652344,26.04977798461914,81.03218841552734,330.1094970703125,65535.0
18167.260909512264,-88.57996368408203,585.485107421875,-176.0067596435547,-1371.787841796875,-15.213152885437012,54.835205078125,30.32465934753418,82.24579620361328,338.2673034667969,65535.0
18167.261309520818,-125.53422546386719,586.9407348632812,-181.0937042236328,-1349.0101318359375,-17.536884307861328,53.73793029785156,26.779380798339844,80.47022247314453,348.6669616699219,65535.0
18167.261709529368,-147.7611541748047,578.6057739257812,-190.09767150878906,-1335.5855712890625,-26.47027015686035,44.86637496948242,19.81235122680664,76.17910766601562,342.4875793457031,65535.0
18167.26210953792,-158.53228759765625,578.5908203125,-192.2875518798828,-1335.587158203125,-14.245237350463867,55.608726501464844,31.021467208862305,82.68656158447266,342.9684753417969,65535.0
18167.262509546475,-138.32411193847656,576.2069702148438,-181.00701904296875,-1352.0303955078125,-10.908380508422852,58.61891555786133,29.98284149169922,86.20586395263672,327.28338623046875,65535.0
18167.262909555026,-83.33067321777344,568.2000732421875,-189.16632080078125,-1375.10986328125,-20.281492233276367,50.878482818603516,22.6486873626709,83.23833465576172,338.6497802734375,65535.0
18167.26330956358,-57.753150939941406,560.0318603515625,-190.5265350341797,-1384.1751708984375,-24.884071350097656,47.87852096557617,18.082590103149414,73.7646484375,345.3853454589844,65535.0
18167.263709572133,-50.43000793457031,565.3017578125,-186.98204040527344,-1379.67333984375,-14.698907852172852,54.74049758911133,23.853269577026367,81.0435791015625,342.2833557128906,65535.0
18167.264109580687,-37.47301483154297,568.323974609375,-196.77476501464844,-1391.1787109375,-18.570152282714844,51.462276458740234,21.98511505126953,80.05625915527344,337.5472106933594,65535.0
18167.264509589237,-20.1978702545166,576.3257446289062,-190.6949920654297,-1392.65185546875,-14.113182067871094,61.425479888916016,25.98931121826172,85.12096405029297,340.6058654785156,65535.0
18167.26490959779,-10.190752029418945,569.2525024414062,-196.06472778320312,-1400.46826171875,-22.43613052368164,53.94902801513672,22.558032989501953,77.29928588867188,338.6706848144531,65535.0
18167.265309606344,-5.2197723388671875,560.6239624023438,-190.8910369873047,-1396.571533203125,-23.46576690673828,51.84174346923828,21.939897537231445,77.84129333496094,332.4949951171875,65535.0
18167.265709614894,-27.607563018798828,562.0593872070312,-175.47544860839844,-1385.2279052734375,-11.176216125488281,68.49964904785156,29.471891403198242,86.4591293334961,335.31744384765625,65535.0
18167.266109623448,-58.265987396240234,556.072509765625,-183.3420867919922,-1370.5462646484375,-15.95285701751709,63.12906265258789,27.652463912963867,83.5582275390625,322.4267272949219,65535.0
18167.266509632,-68.46878051757812,557.9724731445312,-194.28915405273438,-1358.217041015625,-9.514228820800781,71.89860534667969,33.98261642456055,88.61005401611328,328.10894775390625,65535.0
18167.266909640555,-53.86327362060547,553.8306274414062,-196.4622344970703,-1346.8267822265625,-10.338622093200684,76.21160125732422,35.142391204833984,90.74076080322266,346.5528259277344,65535.0
18167.267309649105,-41.287200927734375,553.946044921875,-203.25115966796875,-1352.2283935546875,-9.528700828552246,73.46627044677734,34.95161437988281,89.69328308105469,335.671142578125,65535.0
18167.26770965766,-49.68193817138672,550.9736938476562,-195.18409729003906,-1366.368896484375,-7.153407573699951,77.9007339477539,38.18777847290039,91.93444061279297,329.722412109375,65535.0
18167.268109666213,-67.97483825683594,561.323486328125,-192.36053466796875,-1376.3232421875,-0.394803911447525,83.42533111572266,39.9779167175293,98.36698150634766,324.91070556640625,65535.0
18167.268509674763,-91.68856811523438,555.787109375,-185.28070068359375,-1392.36083984375,-1.0730618238449097,83.58988189697266,42.12759017944336,96.62964630126953,311.3304748535156,65535.0
18167.268909683316,-97.96939849853516,556.7891845703125,-183.5229949951172,-1403.556396484375,-3.8241121768951416,88.46402740478516,42.63408279418945,95.8969955444336,317.8061828613281,65535.0
18167.26930969187,-99.67759704589844,554.2459716796875,-183.92677307128906,-1410.4229736328125,-4.80021333694458,83.96554565429688,38.77685546875,95.69352722167969,310.90777587890625,65535.0
18167.269709700424,-79.13638305664062,555.7921752929688,-186.5782470703125,-1413.5565185546875,-11.741623878479004,76.33113098144531,36.39895248413086,91.50566101074219,320.21002197265625,65535.0
18167.270109708974,-65.59163665771484,564.0419311523438,-173.79847717285156,-1406.3472900390625,-9.609468460083008,76.43241119384766,34.49435806274414,90.0448989868164,335.94744873046875,65535.0
18167.270509717528,-52.95193099975586,566.0252685546875,-174.356201171875,-1405.7735595703125,-15.468812942504883,69.54765319824219,30.880226135253906,85.05155944824219,331.3092956542969,65535.0
18167.27090972608,-52.305667877197266,561.7672729492188,-177.16998291015625,-1402.3885498046875,-14.408170700073242,69.21441650390625,32.566505432128906,85.79254913330078,330.31719970703125,65535.0
18167.27130973463,-55.8129768371582,558.5237426757812,-180.8912353515625,-1400.8968505859375,-8.554771423339844,74.78646087646484,36.25448226928711,90.97097778320312,326.23651123046875,65535.0
18167.271709743185,-47.083499908447266,560.2814331054688,-182.2366943359375,-1406.671142578125,-10.814055442810059,74.69636535644531,30.950254440307617,87.77314758300781,324.1788024902344,65535.0
18167.27210975174,-56.32463073730469,559.593994140625,-174.7675018310547,-1411.649658203125,-23.2421817779541,57.194496154785156,21.01242446899414,76.146728515625,330.3806457519531,65535.0
18167.272509760292,-58.450626373291016,560.7164306640625,-168.04312133789062,-1405.94970703125,-16.787721633911133,60.50432205200195,24.230358123779297,80.85772705078125,321.8499755859375,65535.0
18167.272909768843,-50.768341064453125,548.2472534179688,-176.62380981445312,-1400.0484619140625,-11.261401176452637,68.73159790039062,29.894182205200195,83.49186706542969,312.1308288574219,65535.0
18167.273309777396,-33.183685302734375,543.7977294921875,-171.31959533691406,-1412.1409912109375,-12.752206802368164,68.8724136352539,32.539756774902344,87.09932708740234,329.4756774902344,65535.0
18167.27370978595,-25.185129165649414,554.7786254882812,-166.0314178466797,-1414.397705078125,-22.838884353637695,54.58847427368164,21.668928146362305,75.36751556396484,334.2018127441406,65535.0
18167.2741097945,-34.275123596191406,558.3339233398438,-171.91305541992188,-1406.741943359375,-12.154114723205566,59.087467193603516,27.843177795410156,83.32014465332031,333.46728515625,65535.0
18167.274509803054,-36.9998893737793,563.7951049804688,-175.44583129882812,-1402.7169189453125,-8.901598930358887,66.93356323242188,33.72195816040039,90.47734832763672,331.5618896484375,65535.0
18167.274909811607,-13.14702320098877,558.7142333984375,-175.90481567382812,-1396.405029296875,-15.440300941467285,61.687007904052734,27.08913803100586,85.49176025390625,340.81158447265625,65535.0
18167.27530982016,35.359092712402344,566.158203125,-166.57528686523438,-1383.3790283203125,-13.543401718139648,59.973106384277344,33.051822662353516,88.23351287841797,334.3558654785156,65535.0
18167.27570982871,53.349613189697266,581.6436157226562,-168.3118133544922,-1372.2669677734375,-5.276102542877197,66.71939849853516,38.47724533081055,96.08487701416016,338.5425720214844,65535.0
18167.276109837265,43.90190505981445,582.6873168945312,-161.7272491455078,-1382.5201416015625,-6.441868305206299,66.02645874023438,35.811370849609375,88.6783447265625,338.8937683105469,65535.0
18167.27650984582,29.887983322143555,582.1043090820312,-148.2425994873047,-1410.3232421875,-15.498173713684082,57.23143005371094,30.230379104614258,84.88558959960938,322.1041564941406,65535.0
18167.27690985437,17.489965438842773,582.9880981445312,-161.65223693847656,-1423.869140625,-26.208084106445312,42.63758087158203,20.300554275512695,76.11186981201172,325.5856628417969,65535.0
18167.277309862922,7.571650981903076,592.6953735351562,-165.71592712402344,-1419.0689697265625,-29.40441131591797,37.40285110473633,14.18095588684082,68.43077087402344,333.9554443359375,65535.0
18167.277709871476,4.728010177612305,594.2200927734375,-170.53814697265625,-1411.950439453125,-33.780277252197266,28.092256546020508,8.782187461853027,64.01481628417969,328.9870300292969,65535.0
18167.27810988003,-4.2020583152771,584.2109375,-182.67491149902344,-1397.5982666015625,-34.062374114990234,26.23318099975586,8.935474395751953,63.783348083496094,329.3725280761719,65535.0
18167.27850988858,-20.33169937133789,573.5853881835938,-180.23672485351562,-1397.2841796875,-38.41390609741211,24.710329055786133,7.643430709838867,61.79209899902344,332.8479309082031,65535.0
18167.278909897133,-42.61526870727539,575.691162109375,-180.35850524902344,-1382.287109375,-38.83409118652344,22.209972381591797,5.210084438323975,59.89397430419922,330.0562438964844,65535.0
18167.279309905687,-39.65088653564453,577.5214233398438,-180.62684631347656,-1370.3609619140625,-34.54390335083008,28.57730484008789,10.936802864074707,67.13774871826172,325.1560363769531,65535.0
18167.279709914237,-48.94740295410156,570.7080078125,-175.91946411132812,-1362.78173828125,-36.766326904296875,26.502363204956055,6.960125923156738,62.431724548339844,333.6953430175781,65535.0
18167.28010992279,-58.3723030090332,562.2986450195312,-183.66102600097656,-1353.273193359375,-27.745243072509766,33.027198791503906,15.312675476074219,70.33583068847656,342.82757568359375,65535.0
18167.280509931345,-37.47490692138672,556.3114013671875,-192.0975799560547,-1373.95654296875,-35.58038330078125,27.75135040283203,7.781222820281982,64.71503448486328,333.2643127441406,65535.0
18167.2809099399,-35.75130081176758,549.8811645507812,-194.90701293945312,-1394.5513916015625,-34.34010696411133,27.68122100830078,7.866537570953369,64.35709381103516,324.33026123046875,65535.0
18167.28130994845,-48.15604019165039,552.7348022460938,-197.66720581054688,-1388.23486328125,-28.8245906829834,36.24825668334961,16.47808837890625,70.36174011230469,315.8922119140625,65535.0
18167.281709957002,-30.224689483642578,555.9407348632812,-195.14588928222656,-1358.487060546875,-32.65074157714844,35.00658416748047,12.199320793151855,66.56664276123047,323.3384094238281,65535.0
18167.282109965556,-6.482344150543213,553.968505859375,-180.72349548339844,-1341.752685546875,-29.020950317382812,34.68907928466797,13.290953636169434,67.52693176269531,327.2669372558594,65535.0
18167.282509974106,1.9008828401565552,559.3409423828125,-174.47256469726562,-1358.4271240234375,-24.51264762878418,41.51291275024414,20.083738327026367,70.93164825439453,333.7419738769531,65535.0
18167.28290998266,-4.051310062408447,553.13427734375,-173.08364868164062,-1362.6937255859375,-27.95900535583496,42.81081771850586,16.914308547973633,72.78563690185547,327.761474609375,65535.0
18167.283309991213,9.641119003295898,538.676025390625,-184.36996459960938,-1386.4866943359375,-14.737251281738281,53.13825225830078,28.880613327026367,83.49752044677734,326.0757141113281,65535.0
18167.283709999767,28.973934173583984,541.7969970703125,-182.57412719726562,-1402.736328125,-25.921560287475586,44.15159225463867,22.705530166625977,75.0791015625,332.40673828125,65535.0
18167.284110008317,48.30435562133789,537.2966918945312,-183.73040771484375,-1404.1297607421875,-15.140097618103027,56.804813385009766,28.53324317932129,85.9214859008789,314.7848815917969,65535.0
18167.28451001687,57.439361572265625,530.0996704101562,-180.62538146972656,-1411.9072265625,-4.472845077514648,67.91592407226562,37.983863830566406,93.6531753540039,325.28961181640625,65535.0
18167.284910025424,63.12186050415039,524.0963745117188,-194.3065948486328,-1446.8951416015625,-7.685863971710205,70.14265441894531,37.44728469848633,93.01445007324219,337.76275634765625,65535.0
18167.285310033974,67.7593765258789,521.4606323242188,-202.08984375,-1467.2607421875,-0.28098705410957336,78.64057922363281,43.190162658691406,97.91617584228516,324.2184143066406,65535.0
18167.285710042528,48.80278778076172,520.547607421875,-197.6248016357422,-1470.4114990234375,3.936121940612793,83.77690124511719,50.300079345703125,102.75148010253906,325.92156982421875,65535.0
18167.28611005108,36.030208587646484,517.6282958984375,-192.6971435546875,-1448.1346435546875,-2.7623369693756104,80.9229736328125,41.69872283935547,97.92852783203125,333.7331848144531,65535.0
18167.286510059635,44.976409912109375,520.6713256835938,-182.90914916992188,-1442.935302734375,-5.398214340209961,78.71784973144531,38.81629180908203,93.92391204833984,334.178466796875,65535.0
18167.286910068186,60.18659591674805,516.5673217773438,-188.8190155029297,-1460.5504150390625,4.475822925567627,89.50072479248047,48.57400894165039,105.80980682373047,322.7273864746094,65535.0
18167.28731007674,65.23628234863281,515.5808715820312,-196.06564331054688,-1485.3941650390625,5.723478317260742,91.46784210205078,49.19633865356445,104.6303939819336,315.92578125,65535.0
18167.287710085293,72.94298553466797,509.70245361328125,-205.31060791015625,-1473.264404296875,6.518218517303467,91.79093170166016,50.180580139160156,103.36713409423828,309.5040588378906,65535.0
18167.288110093843,99.87342834472656,521.5208129882812,-203.8320770263672,-1452.71142578125,1.8558874130249023,90.4246826171875,43.232574462890625,101.64168548583984,320.7591552734375,65535.0
18167.288510102397,122.90958404541016,519.6632080078125,-186.59054565429688,-1451.29248046875,-1.9005202054977417,82.36798095703125,41.892822265625,98.92455291748047,325.0290832519531,65535.0
18167.28891011095,139.15794372558594,518.7501220703125,-186.1160430908203,-1433.084228515625,-4.293972492218018,83.10618591308594,40.88108444213867,95.57455444335938,323.6516418457031,65535.0
18167.289310119504,114.72429656982422,520.0172119140625,-177.3418426513672,-1406.7762451171875,-1.5939441919326782,83.77085876464844,40.95878601074219,96.31710052490234,321.6314392089844,65535.0
18167.289710128054,75.46473693847656,515.3175659179688,-189.70166015625,-1378.0362548828125,-8.69302749633789,79.86701965332031,38.76542282104492,90.78174591064453,319.8268127441406,65535.0
18167.290110136608,34.38380813598633,522.5313110351562,-192.07186889648438,-1352.1142578125,-11.28497314453125,74.5882339477539,34.198978424072266,86.4279556274414,329.81671142578125,65535.0
18167.29051014516,14.499129295349121,534.109130859375,-190.98435974121094,-1344.294677734375,-4.147003173828125,80.14898681640625,40.8927116394043,97.69647216796875,327.4263000488281,65535.0
18167.29091015371,22.79884147644043,536.3363037109375,-184.96055603027344,-1350.247314453125,-2.4899113178253174,78.79109191894531,40.39708709716797,94.65937805175781,312.24420166015625,65535.0
18167.291310162265,-9.773578643798828,545.0953979492188,-176.0471649169922,-1332.507080078125,-7.362832069396973,71.74341583251953,35.92974090576172,87.458984375,318.846435546875,65535.0
18167.29171017082,-49.62190246582031,547.116455078125,-180.9363250732422,-1327.1856689453125,-3.421950340270996,78.31156921386719,40.0808219909668,96.04981231689453,322.7987976074219,65535.0
18167.292110179373,-100.79759979248047,543.4691772460938,-189.3697052001953,-1314.3536376953125,-5.205398082733154,74.2358169555664,40.38211441040039,92.91102600097656,321.5488586425781,65535.0
18167.292510187923,-131.11566162109375,551.1187133789062,-192.16123962402344,-1310.0535888671875,-12.169764518737793,64.07991790771484,31.174606323242188,87.22732543945312,328.1669006347656,65535.0
18167.292910196476,-123.98920440673828,535.92724609375,-188.0089874267578,-1297.7847900390625,-16.39588165283203,63.1597900390625,28.142745971679688,82.56920623779297,315.02130126953125,65535.0
18167.29331020503,-112.02728271484375,539.0806884765625,-175.01087951660156,-1296.031005859375,-11.15943717956543,64.05167388916016,32.92282485961914,85.74658203125,321.37115478515625,65535.0
18167.29371021358,-101.13062286376953,545.1514282226562,-182.51136779785156,-1304.900634765625,-11.446256637573242,62.376041412353516,31.793071746826172,86.64404296875,323.00811767578125,65535.0
18167.294110222134,-73.81427764892578,548.5487060546875,-184.03240966796875,-1296.59130859375,-12.171537399291992,61.52458953857422,28.872333526611328,83.29826354980469,322.3343811035156,65535.0
18167.294510230688,-70.06964874267578,549.1809692382812,-182.347900390625,-1258.94970703125,-21.412063598632812,52.41532516479492,21.777132034301758,79.05025482177734,314.0591125488281,65535.0
18167.29491023924,-82.19271850585938,545.7179565429688,-172.52696228027344,-1225.4696044921875,-10.665031433105469,59.412200927734375,30.33134651184082,87.89666748046875,314.2880859375,65535.0
18167.29531024779,-65.66578674316406,560.84423828125,-174.8287353515625,-1225.0181884765625,-3.68046498298645,68.36958312988281,39.22226333618164,93.17737579345703,307.92877197265625,65535.0
18167.295710256345,-73.48524475097656,566.7139282226562,-178.49783325195312,-1213.4393310546875,-14.022673606872559,57.553653717041016,30.427589416503906,85.77250671386719,316.28076171875,65535.0
18167.2961102649,-96.47769165039062,565.5130615234375,-190.67689514160156,-1231.919189453125,-16.548015594482422,51.02305221557617,27.989490509033203,80.46414947509766,326.4367370605469,65535.0
18167.29651027345,-114.89812469482422,569.7030639648438,-185.34661865234375,-1315.7745361328125,-21.678791046142578,47.08409881591797,24.22246742248535,79.70158386230469,318.4724426269531,65535.0
18167.296910282003,-112.24436950683594,572.9829711914062,-182.73171997070312,-1371.348388671875,-22.39167594909668,44.49835205078125,23.229965209960938,77.7254409790039,312.41937255859375,65535.0
18167.297310290556,-91.43891143798828,566.4695434570312,-179.2202606201172,-1370.594482421875,-32.90193557739258,30.482847213745117,12.534468650817871,63.59318161010742,321.9120788574219,65535.0
18167.29771029911,-88.6365966796875,566.5590209960938,-191.9438934326172,-1354.5289306640625,-28.629549026489258,32.251251220703125,15.820036888122559,68.49224090576172,327.5704040527344,65535.0
18167.29811030766,-90.72017669677734,553.8450317382812,-190.71424865722656,-1326.4542236328125,-30.67352294921875,29.40403938293457,12.870267868041992,66.59239959716797,319.7603454589844,65535.0
18167.298510316214,-67.39424133300781,547.9445190429688,-184.21678161621094,-1358.547119140625,-28.18310546875,29.816509246826172,15.434906005859375,70.5687026977539,310.7280578613281,65535.0
18167.298910324767,-53.76042938232422,548.9823608398438,-178.55520629882812,-1398.3599853515625,-34.94969940185547,23.515178680419922,8.808446884155273,65.20260620117188,316.2543640136719,65535.0
18167.299310333317,-41.683555603027344,546.4962768554688,-187.40940856933594,-1437.86962890625,-38.09413146972656,21.460752487182617,4.159252643585205,60.64594268798828,322.7832946777344,65535.0
18167.29971034187,-29.406700134277344,545.7369384765625,-189.88336181640625,-1466.4129638671875,-32.706077575683594,25.604434967041016,7.338106632232666,65.7335433959961,319.0301513671875,65535.0
18167.300110350425,-27.397417068481445,554.784423828125,-179.42713928222656,-1507.734375,-32.656768798828125,28.46746826171875,12.592455863952637,70.38310241699219,319.7410583496094,65535.0
18167.30051035898,-19.069995880126953,550.4786376953125,-192.74862670898438,-1526.443603515625,-33.071380615234375,27.496883392333984,11.742074012756348,66.33920288085938,318.3582458496094,65535.0
18167.30091036753,-12.709314346313477,534.9552612304688,-191.7275848388672,-1537.0013427734375,-27.929603576660156,30.79843521118164,13.901954650878906,73.0219955444336,315.2738952636719,65535.0
18167.301310376082,3.0177125930786133,546.50439453125,-191.43052673339844,-1561.45068359375,-30.176809310913086,26.355531692504883,10.415474891662598,68.78411865234375,316.631103515625,65535.0
18167.301710384636,29.779449462890625,544.7048950195312,-194.580078125,-1583.86474609375,-37.97194290161133,24.070783615112305,8.09974479675293,62.283451080322266,305.78192138671875,65535.0
18167.302110393186,41.30513000488281,542.1093139648438,-192.7231903076172,-1574.5711669921875,-31.98680305480957,32.03422927856445,11.598122596740723,70.84203338623047,313.3365783691406,65535.0
18167.30251040174,41.11686706542969,548.9405517578125,-188.22865295410156,-1541.2186279296875,-27.244421005249023,36.92799758911133,18.377788543701172,72.79185485839844,317.89306640625,65535.0
18167.302910410293,34.49406814575195,543.599365234375,-191.13316345214844,-1499.7122802734375,-24.878129959106445,40.62797927856445,20.62023162841797,73.91825103759766,313.0174255371094,65535.0
18167.303310418847,14.142362594604492,539.146728515625,-194.3656005859375,-1464.0267333984375,-23.145008087158203,41.516258239746094,20.34233283996582,75.64295959472656,316.0914611816406,65535.0
18167.303710427397,-12.731046676635742,541.7896728515625,-178.94276428222656,-1450.5054931640625,-17.810440063476562,48.5613899230957,27.11794090270996,80.8510971069336,319.52459716796875,65535.0
18167.30411043595,-12.427018165588379,537.0932006835938,-202.52923583984375,-1438.8828125,-20.536746978759766,47.463871002197266,21.86137580871582,78.63406372070312,310.5843811035156,65535.0
18167.304510444505,-3.057344675064087,531.77880859375,-201.42047119140625,-1432.979248046875,-15.011589050292969,54.8115119934082,28.85138511657715,84.66271209716797,312.9510192871094,65535.0
18167.304910453055,9.58261489868164,532.2854614257812,-194.79444885253906,-1442.6534423828125,-14.554732322692871,57.44892120361328,30.406103134155273,85.16131591796875,323.1439514160156,65535.0
18167.30531046161,31.573259353637695,522.0806884765625,-201.4733123779297,-1437.052734375,-12.01600456237793,63.1861457824707,34.48505783081055,88.94133758544922,314.4029235839844,65535.0
18167.305710470162,40.31904220581055,517.1044921875,-210.1032257080078,-1405.3974609375,-12.01509952545166,67.30406188964844,33.81264877319336,90.09524536132812,326.90130615234375,65535.0
18167.306110478716,42.213653564453125,508.51361083984375,-206.31591796875,-1378.3089599609375,-6.737991809844971,70.5425796508789,35.41920852661133,90.73670959472656,323.6221618652344,65535.0
18167.306510487266,34.58534240722656,515.419189453125,-203.23097229003906,-1351.383544921875,-6.239404678344727,73.61890411376953,41.93975067138672,94.38152313232422,318.61083984375,65535.0
18167.30691049582,44.451866149902344,503.6015930175781,-199.18115234375,-1317.408203125,-8.937311172485352,73.4866714477539,35.75056076049805,92.10966491699219,314.5989990234375,65535.0
18167.307310504373,41.0103645324707,488.8588562011719,-211.8980255126953,-1302.984130859375,-4.122506618499756,78.70082092285156,41.189632415771484,96.74321746826172,320.68402099609375,65535.0
18167.307710512923,58.53123474121094,485.7821960449219,-205.5152130126953,-1301.4541015625,-5.9263434410095215,75.94287872314453,41.02238464355469,96.57098388671875,321.21978759765625,65535.0
18167.308110521477,54.84514617919922,494.9507751464844,-195.59849548339844,-1297.6431884765625,-8.545836448669434,72.36366271972656,35.039039611816406,94.02729797363281,311.6731262207031,65535.0
18167.30851053003,28.061443328857422,501.39447021484375,-201.4759521484375,-1287.74169921875,-7.536126136779785,75.55805969238281,36.86215591430664,92.32540893554688,321.0322265625,65535.0
18167.308910538584,44.03772735595703,522.7875366210938,-195.28497314453125,-1290.33740234375,-13.338940620422363,67.91950988769531,30.238557815551758,87.70275115966797,312.7424621582031,65535.0
18167.309310547134,50.03815460205078,528.7412719726562,-185.56558227539062,-1316.683349609375,-7.952718257904053,72.72737121582031,32.08097457885742,90.091796875,301.1363830566406,65535.0
18167.309710555688,51.0247802734375,528.9024047851562,-183.31646728515625,-1312.7872314453125,5.487199783325195,85.22040557861328,47.342689514160156,107.13108825683594,314.0160217285156,65535.0
18167.31011056424,45.608131408691406,533.6752319335938,-198.91067504882812,-1310.50634765625,-6.999109268188477,74.84275817871094,34.66619873046875,93.78073120117188,311.0218505859375,65535.0
18167.310510572792,25.571632385253906,528.0318603515625,-194.18499755859375,-1306.9803466796875,-5.241022109985352,77.52471923828125,36.3937873840332,92.1161880493164,305.74090576171875,65535.0
18167.310910581346,1.8794541358947754,537.9772338867188,-190.6233367919922,-1317.376708984375,-9.30610179901123,70.94528198242188,32.3001823425293,85.73951721191406,299.5581970214844,65535.0
18167.3113105899,-27.661666870117188,524.966552734375,-193.96255493164062,-1335.7457275390625,-10.81201171875,70.9098892211914,33.46164321899414,90.88823699951172,311.337158203125,65535.0
18167.311710598453,-29.346879959106445,528.2100219726562,-188.76866149902344,-1346.0517578125,-7.514035701751709,74.06449890136719,38.6917724609375,92.5974349975586,306.16485595703125,65535.0
18167.312110607003,-31.135950088500977,533.258544921875,-184.03123474121094,-1357.176025390625,-15.387368202209473,65.15829467773438,31.8426513671875,87.51181030273438,317.009033203125,65535.0
18167.312510615557,-27.423564910888672,532.4186401367188,-192.2033233642578,-1359.47802734375,-13.726609230041504,62.05378723144531,27.709903717041016,88.0439453125,316.40679931640625,65535.0
18167.31291062411,-7.494246959686279,539.4744873046875,-195.10520935058594,-1358.25341796875,-16.796724319458008,55.8466911315918,26.371305465698242,79.68653869628906,313.8431396484375,65535.0
18167.31331063266,-10.420642852783203,536.721435546875,-187.4093780517578,-1366.1162109375,-16.607013702392578,59.14291763305664,27.582326889038086,84.4697265625,321.1551208496094,65535.0
18167.313710641214,-7.78554105758667,538.3386840820312,-191.948974609375,-1385.7952880859375,-19.40595817565918,51.9982795715332,24.34678840637207,78.44036102294922,314.3548278808594,65535.0
18167.314110649768,7.0325236320495605,536.9833984375,-187.97349548339844,-1400.956298828125,-25.685718536376953,42.76805114746094,17.131853103637695,72.21712493896484,319.5955505371094,65535.0
18167.31451065832,29.020408630371094,535.3640747070312,-183.539306640625,-1424.6007080078125,-20.54090118408203,48.43671798706055,22.285337448120117,78.8976821899414,309.52734375,65535.0
18167.31491066687,34.72689437866211,535.3853149414062,-183.67013549804688,-1414.5399169921875,-17.141286849975586,54.19021224975586,27.692407608032227,83.37297821044922,316.2478332519531,65535.0
18167.315310675425,25.339710235595703,546.4962158203125,-186.88609313964844,-1398.2801513671875,-22.89255714416504,45.546958923339844,19.348773956298828,74.6206283569336,323.4228210449219,65535.0
18167.31571068398,31.058048248291016,558.4070434570312,-186.45851135253906,-1382.468017578125,-20.551231384277344,47.81001281738281,24.26479148864746,75.4176025390625,312.18084716796875,65535.0
18167.31611069253,54.953121185302734,553.2314453125,-192.29043579101562,-1380.3447265625,-22.676286697387695,47.69748306274414,23.008607864379883,77.11503601074219,306.9272155761719,65535.0
18167.316510701083,65.03215789794922,544.0670166015625,-190.42483520507812,-1406.531982421875,-24.816152572631836,43.962764739990234,22.304452896118164,76.16680908203125,319.1103515625,65535.0
18167.316910709636,59.8266487121582,545.593994140625,-190.28744506835938,-1414.348876953125,-19.504756927490234,46.786319732666016,24.332181930541992,76.95750427246094,316.92242431640625,65535.0
18167.31731071819,60.19144821166992,543.12841796875,-184.1475067138672,-1434.0257568359375,-25.171892166137695,40.62727355957031,20.624996185302734,75.2838134765625,304.4105529785156,65535.0
18167.31771072674,59.81208419799805,539.2017211914062,-179.90907287597656,-1432.16357421875,-30.467613220214844,29.942527770996094,14.01285457611084,69.539306640625,298.2402038574219,65535.0
18167.318110735294,38.91613006591797,545.6495361328125,-184.97174072265625,-1404.2928466796875,-35.76237487792969,23.146644592285156,7.583587646484375,63.24869155883789,291.8211364746094,65535.0
18167.318510743848,37.65414047241211,550.9603881835938,-194.4518280029297,-1378.6217041015625,-32.69455337524414,26.167213439941406,8.329750061035156,63.24673080444336,300.5812072753906,65535.0
18167.318910752398,48.670772552490234,532.4849243164062,-190.41075134277344,-1376.0074462890625,-25.37514877319336,35.35862350463867,16.49808120727539,74.1068344116211,311.19207763671875,65535.0
18167.31931076095,54.7876091003418,526.46728515625,-198.25006103515625,-1381.216552734375,-26.944868087768555,34.85059356689453,16.87870979309082,73.61944580078125,292.23681640625,65535.0
18167.319710769505,59.72862243652344,523.4761352539062,-197.85079956054688,-1402.6553955078125,-22.901382446289062,39.113121032714844,21.051197052001953,76.36076354980469,304.1274108886719,65535.0
18167.32011077806,69.58182525634766,516.879150390625,-207.6115264892578,-1418.7420654296875,-33.8088493347168,25.773038864135742,9.792428970336914,62.497161865234375,316.33978271484375,65535.0
18167.32051078661,74.0541000366211,517.6543579101562,-204.1977081298828,-1436.5596923828125,-33.71907043457031,27.694868087768555,9.501529693603516,66.50972747802734,305.7762756347656,65535.0
18167.320910795162,72.38618469238281,521.115234375,-206.1429443359375,-1452.0682373046875,-26.258163452148438,34.72633743286133,16.931211471557617,71.92316436767578,308.46722412109375,65535.0
18167.321310803716,53.10070037841797,513.6710205078125,-212.06443786621094,-1421.6109619140625,-24.73464584350586,38.01365280151367,19.95748519897461,75.06603240966797,308.7074890136719,65535.0
18167.321710812266,45.29356384277344,506.7550964355469,-205.84629821777344,-1368.0853271484375,-28.93277931213379,34.492088317871094,15.802389144897461,72.58550262451172,297.7043762207031,65535.0
18167.32211082082,41.994964599609375,506.30792236328125,-208.66281127929688,-1317.25927734375,-27.659099578857422,37.866363525390625,16.649534225463867,71.3955307006836,305.0621337890625,65535.0
18167.322510829374,11.595702171325684,504.59515380859375,-208.025634765625,-1262.9261474609375,-18.589664459228516,45.48899841308594,21.909944534301758,78.07823944091797,308.85040283203125,65535.0
18167.322910837927,-31.728063583374023,498.0672912597656,-207.94744873046875,-1241.576904296875,-24.555973052978516,39.89413833618164,20.197175979614258,73.52735137939453,309.2911682128906,65535.0
18167.323310846477,-75.89868927001953,504.03680419921875,-212.8625946044922,-1254.810546875,-18.111827850341797,48.80364227294922,23.66213035583496,79.40723419189453,308.5155334472656,65535.0
18167.32371085503,-78.48956298828125,498.1345520019531,-220.9417266845703,-1283.4024658203125,-23.287885665893555,44.10604476928711,20.697486877441406,78.039794921875,301.5462341308594,65535.0
18167.324110863585,-88.4342041015625,497.78717041015625,-220.49684143066406,-1318.8193359375,-26.098758697509766,39.7052001953125,18.4813289642334,71.88597106933594,313.1456604003906,65535.0
18167.324510872135,-90.72837829589844,501.43438720703125,-210.4875946044922,-1342.8634033203125,-18.193187713623047,52.71731948852539,25.352535247802734,81.32573699951172,301.831787109375,65535.0
18167.32491088069,-81.787353515625,493.1037902832031,-203.4019317626953,-1361.26220703125,-18.912111282348633,56.08909606933594,26.057931900024414,82.13463592529297,311.2843017578125,65535.0
18167.325310889242,-87.35850524902344,493.3061218261719,-214.16273498535156,-1379.8377685546875,-20.918254852294922,53.17457580566406,21.507604598999023,79.658203125,304.7553405761719,65535.0
18167.325710897796,-86.48202514648438,496.0396423339844,-213.13204956054688,-1397.320068359375,-25.536415100097656,47.46791458129883,19.04388999938965,74.1065444946289,304.8465270996094,65535.0
18167.326110906346,-64.1568374633789,488.0697326660156,-220.90724182128906,-1408.7457275390625,-20.008811950683594,47.77462387084961,20.3986759185791,74.37882232666016,296.3968200683594,65535.0
18167.3265109149,-36.461917877197266,491.5109558105469,-219.8642120361328,-1418.194580078125,-14.651086807250977,58.9931755065918,29.2106876373291,80.29204559326172,298.0492858886719,65535.0
18167.326910923453,-27.563465118408203,486.69451904296875,-215.15460205078125,-1423.2965087890625,-7.896707534790039,71.0447769165039,39.215457916259766,92.27953338623047,316.6799011230469,65535.0
18167.327310932003,-21.128950119018555,491.8580017089844,-232.1409149169922,-1411.0762939453125,3.537405014038086,83.2531509399414,47.554386138916016,101.98088073730469,298.2464599609375,65535.0
18167.327710940557,-2.219905138015747,497.64459228515625,-226.33070373535156,-1405.6265869140625,-0.9113270044326782,85.0063247680664,45.84259796142578,101.14551544189453,289.3408203125,65535.0
18167.32811094911,16.019474029541016,490.48052978515625,-217.9767608642578,-1394.191650390625,-3.213765859603882,80.19969940185547,43.12314224243164,94.84297180175781,291.5256042480469,65535.0
18167.328510957665,11.40369987487793,490.1586608886719,-208.71946716308594,-1391.01123046875,-0.22680483758449554,84.21148681640625,41.242305755615234,97.73478698730469,290.98492431640625,65535.0
18167.328910966215,2.400470733642578,505.9166259765625,-211.31686401367188,-1383.205322265625,8.854317665100098,97.46257781982422,50.25506591796875,107.43883514404297,304.7727355957031,65535.0
18167.32931097477,1.0595533847808838,514.3995361328125,-220.8129119873047,-1383.3057861328125,2.227546453475952,89.45197296142578,45.64567184448242,101.16968536376953,302.84710693359375,65535.0
18167.329710983322,21.353750228881836,515.3408813476562,-212.13441467285156,-1372.119873046875,-10.548473358154297,76.34431457519531,35.20826721191406,90.71672821044922,292.04058837890625,65535.0
18167.330110991872,29.68154525756836,526.6309814453125,-202.00135803222656,-1341.8070068359375,-18.748075485229492,64.24877166748047,25.512849807739258,81.17218780517578,301.88287353515625,65535.0
18167.330511000426,55.696571350097656,526.2762451171875,-195.12489318847656,-1336.6993408203125,-12.878866195678711,70.31315612792969,31.70949363708496,84.8807601928711,302.8034362792969,65535.0
18167.33091100898,72.0549087524414,521.7650756835938,-187.52554321289062,-1326.573486328125,-9.891167640686035,75.2402114868164,35.213314056396484,90.95497131347656,287.5174560546875,65535.0
18167.331311017533,52.077762603759766,518.6942138671875,-183.38926696777344,-1320.465576171875,-4.283963203430176,78.89237213134766,42.40951919555664,93.2745590209961,289.90032958984375,65535.0
18167.331711026083,34.80747985839844,509.8380432128906,-196.7498321533203,-1328.3548583984375,-6.581182956695557,76.08649444580078,38.775390625,91.14474487304688,297.7095642089844,65535.0
18167.332111034637,20.437253952026367,519.7587890625,-190.9379425048828,-1336.1812744140625,-15.131768226623535,67.02816772460938,29.52674102783203,89.57379150390625,302.0867004394531,65535.0
18167.33251104319,7.628602981567383,519.9735107421875,-177.75894165039062,-1351.0941162109375,-10.558780670166016,69.55978393554688,33.59544372558594,90.78939819335938,307.3844909667969,65535.0
18167.33291105174,5.3732428550720215,524.9700927734375,-179.60174560546875,-1362.28271484375,-18.575902938842773,61.50190353393555,24.07827377319336,79.5240707397461,306.95196533203125,65535.0
18167.333311060294,1.495872974395752,520.6222534179688,-189.96331787109375,-1369.131103515625,-10.436222076416016,69.7711181640625,30.260658264160156,88.15058898925781,310.3311462402344,65535.0
18167.333711068848,6.4544477462768555,520.9555053710938,-192.63841247558594,-1376.496337890625,-5.570723056793213,69.89553833007812,36.06840133666992,91.5161361694336,303.96197509765625,65535.0
18167.334111077398,19.885498046875,528.60302734375,-204.20504760742188,-1371.438720703125,-4.458797454833984,71.4551010131836,38.832115173339844,92.42322540283203,290.1252136230469,65535.0
18167.33451108595,39.76793670654297,522.9954223632812,-203.67440795898438,-1370.9171142578125,-17.93534278869629,56.07066345214844,26.439302444458008,82.01445770263672,299.57196044921875,65535.0
18167.334911094506,59.083744049072266,521.3101196289062,-190.16441345214844,-1369.0279541015625,-22.367172241210938,48.64148712158203,18.762832641601562,73.21243286132812,306.29583740234375,65535.0
18167.33531110306,65.4765396118164,527.1701049804688,-190.89840698242188,-1361.97705078125,-17.259239196777344,54.73869705200195,27.051513671875,81.2812728881836,305.2878723144531,65535.0
18167.33571111161,43.856781005859375,533.8377685546875,-178.0037841796875,-1358.088134765625,-14.964350700378418,57.86276626586914,28.641525268554688,86.46195983886719,296.3273010253906,65535.0
18167.336111120163,26.058591842651367,538.7792358398438,-166.18447875976562,-1357.0052490234375,-6.531513690948486,65.32742309570312,36.02949523925781,94.97584533691406,309.393798828125,65535.0
18167.336511128717,17.79633331298828,540.2330932617188,-168.90182495117188,-1355.18212890625,-10.799309730529785,62.6213493347168,35.789730072021484,90.23912811279297,298.3238220214844,65535.0
18167.336911137267,8.546241760253906,533.44384765625,-169.62155151367188,-1354.2110595703125,-17.263154983520508,50.11753463745117,27.911441802978516,84.2983169555664,297.2459411621094,65535.0
18167.33731114582,22.544532775878906,543.2623901367188,-173.8804168701172,-1370.44873046875,-25.43299102783203,39.527793884277344,16.698169708251953,72.04336547851562,292.71923828125,65535.0
18167.337711154374,45.620994567871094,541.59130859375,-175.7588653564453,-1376.1395263671875,-28.267778396606445,37.16793441772461,15.647713661193848,73.11030578613281,294.4351806640625,65535.0
18167.338111162928,55.760929107666016,528.7544555664062,-183.81080627441406,-1394.121826171875,-34.69029998779297,31.92486000061035,10.54024887084961,67.48611450195312,304.32830810546875,65535.0
18167.338511171478,39.56118392944336,512.6897583007812,-196.4081573486328,-1392.497802734375,-21.704383850097656,38.463470458984375,20.396690368652344,76.82767486572266,296.2560119628906,65535.0
18167.33891118003,12.350807189941406,511.33782958984375,-202.63352966308594,-1388.9444580078125,-25.785198211669922,34.65422821044922,17.437732696533203,72.8984146118164,297.8813171386719,65535.0
18167.339311188585,-50.28480911254883,513.6851196289062,-202.22088623046875,-1382.4058837890625,-37.93570327758789,24.591129302978516,7.6774821281433105,62.24336242675781,297.93109130859375,65535.0
18167.339711197135,-75.44506072998047,506.14154052734375,-206.2845916748047,-1376.948974609375,-30.673887252807617,27.246353149414062,10.536450386047363,64.4011459350586,287.3224792480469,65535.0
18167.34011120569,-56.038700103759766,502.05145263671875,-207.3332061767578,-1359.0711669921875,-29.0256290435791,30.905771255493164,9.139289855957031,67.02276611328125,296.8563232421875,65535.0
18167.340511214243,-39.806541442871094,496.0660095214844,-197.43252563476562,-1357.13427734375,-27.940845489501953,34.61936950683594,15.69430160522461,70.24344635009766,288.1064147949219,65535.0
18167.340911222796,-29.10153579711914,506.90289306640625,-199.18345642089844,-1370.6898193359375,-32.79707336425781,31.747451782226562,12.569193840026855,66.41964721679688,286.94268798828125,65535.0
18167.341311231346,-7.880368232727051,511.1048583984375,-207.12228393554688,-1364.8673095703125,-31.336286544799805,34.27755355834961,11.622518539428711,70.27619934082031,298.4304504394531,65535.0
18167.3417112399,22.675086975097656,497.7664489746094,-214.8625946044922,-1377.2001953125,-40.1902961730957,24.567110061645508,6.063784122467041,61.627288818359375,284.6172790527344,65535.0
18167.342111248454,56.579715728759766,507.5773620605469,-217.1247100830078,-1376.939697265625,-36.78160095214844,27.84320831298828,5.87588357925415,60.974979400634766,287.74261474609375,65535.0
18167.342511257004,62.796146392822266,508.46563720703125,-201.57192993164062,-1377.020751953125,-32.653846740722656,34.30781173706055,12.8590726852417,68.64338684082031,285.9931640625,65535.0
18167.342911265558,60.86168670654297,498.1807556152344,-189.24642944335938,-1357.1680908203125,-29.005098342895508,38.70561599731445,14.947203636169434,70.05827331542969,290.29302978515625,65535.0
18167.34331127411,69.7494125366211,502.2942810058594,-198.58367919921875,-1351.5916748046875,-21.80605697631836,48.481197357177734,23.051082611083984,76.30531311035156,288.5302429199219,65535.0
18167.343711282665,61.70401382446289,493.64508056640625,-194.87974548339844,-1358.5621337890625,-19.10164451599121,56.742462158203125,26.224451065063477,80.87792205810547,304.4473571777344,65535.0
18167.344111291215,40.86103820800781,497.89093017578125,-211.836669921875,-1367.778564453125,-20.02952003479004,53.39417266845703,23.784656524658203,75.94775390625,295.957763671875,65535.0
18167.34451129977,23.31089210510254,499.59747314453125,-220.69338989257812,-1380.994140625,-24.22231674194336,50.67399597167969,19.16569709777832,74.56962585449219,278.97796630859375,65535.0
18167.344911308322,10.296208381652832,496.50213623046875,-209.5611114501953,-1399.8076171875,-21.364418029785156,54.92869186401367,22.2601261138916,77.37147521972656,284.70404052734375,65535.0
18167.345311316873,9.962082862854004,478.4323425292969,-198.00863647460938,-1398.0206298828125,-26.213319778442383,55.185855865478516,21.631912231445312,73.10375213623047,289.3810119628906,65535.0
18167.345711325426,30.21703338623047,473.1830749511719,-218.67242431640625,-1399.857666015625,-20.701093673706055,57.277854919433594,23.279027938842773,75.74288177490234,283.83624267578125,65535.0
18167.34611133398,30.962717056274414,479.6732177734375,-212.55377197265625,-1402.341796875,-11.306257247924805,66.52397918701172,33.229251861572266,86.52600860595703,284.6385192871094,65535.0
18167.346511342534,40.900238037109375,483.18109130859375,-212.03878784179688,-1407.1461181640625,-14.342711448669434,66.59738159179688,30.034940719604492,89.87892150878906,288.77618408203125,65535.0
18167.346911351084,61.25376892089844,485.9400329589844,-216.619140625,-1393.882080078125,-9.323280334472656,71.01762390136719,34.17097473144531,91.59053039550781,297.3058776855469,65535.0
18167.347311359637,61.083763122558594,486.95794677734375,-208.6110076904297,-1390.7220458984375,-12.900054931640625,64.94942474365234,29.904802322387695,84.97228240966797,288.20562744140625,65535.0
18167.34771136819,42.094234466552734,480.78485107421875,-213.0193328857422,-1394.841796875,-8.788249969482422,72.30469512939453,37.2648811340332,90.41278076171875,284.39752197265625,65535.0
18167.34811137674,7.9648332595825195,485.3995056152344,-205.65135192871094,-1407.0443115234375,-12.04827880859375,70.74933624267578,32.10704040527344,86.14509582519531,292.2213439941406,65535.0
18167.348511385295,-22.366724014282227,486.7404479980469,-207.52459716796875,-1423.150146484375,-18.666227340698242,65.47921752929688,25.249053955078125,80.9756088256836,291.9750061035156,65535.0
18167.34891139385,-48.82317352294922,492.9696960449219,-200.45408630371094,-1426.7747802734375,-4.753370761871338,80.63629150390625,38.705604553222656,94.68197631835938,296.3957214355469,65535.0
18167.349311402402,-70.71580505371094,495.1233825683594,-215.15370178222656,-1414.32080078125,-4.008505344390869,77.27862548828125,34.10567855834961,90.69868469238281,304.37530517578125,65535.0
18167.349711410952,-65.10749816894531,498.9975280761719,-204.73594665527344,-1396.9581298828125,-7.0595808029174805,78.27607727050781,39.289913177490234,94.48686218261719,281.2425231933594,65535.0
18167.350111419506,-54.96540069580078,491.1007080078125,-201.75790405273438,-1370.524658203125,-6.080188274383545,80.46746063232422,38.12207794189453,92.11723327636719,286.32281494140625,65535.0
18167.35051142806,-44.8010139465332,492.61260986328125,-204.4950714111328,-1345.7491455078125,-3.881334066390991,81.38804626464844,39.855621337890625,96.83082580566406,282.32220458984375,65535.0
18167.35091143661,-15.653467178344727,486.1511535644531,-201.13414001464844,-1344.1785888671875,-4.956940650939941,81.11365509033203,41.2872314453125,97.96273040771484,289.50823974609375,65535.0
18167.351311445163,14.873513221740723,494.8398742675781,-200.19815063476562,-1332.5728759765625,-16.466768264770508,68.22676849365234,29.528287887573242,84.54804229736328,301.5267639160156,65535.0
18167.351711453717,34.68272018432617,486.46142578125,-193.9420623779297,-1339.26513671875,-14.59111499786377,62.48013687133789,26.710607528686523,81.88007354736328,277.5224609375,65535.0
18167.35211146227,34.38495635986328,480.36724853515625,-198.55686950683594,-1361.855712890625,-9.686095237731934,67.59107208251953,34.37961959838867,87.35491180419922,282.0528259277344,65535.0
18167.35251147082,15.761895179748535,486.81787109375,-201.99057006835938,-1390.2476806640625,-12.753532409667969,68.79589080810547,30.23922348022461,86.49349212646484,296.7185974121094,65535.0
18167.352911479375,5.456820487976074,495.80938720703125,-201.85508728027344,-1408.3504638671875,-15.286227226257324,63.809104919433594,28.43622589111328,81.36321258544922,287.32794189453125,65535.0
18167.35331148793,-25.50775909423828,502.8107604980469,-203.4527130126953,-1417.6475830078125,-20.541309356689453,56.46709442138672,24.276670455932617,79.1282730102539,289.67987060546875,65535.0
18167.35371149648,-33.13426971435547,504.2425842285156,-213.41094970703125,-1436.4019775390625,-27.419475555419922,49.589942932128906,18.769182205200195,75.26494598388672,295.5985107421875,65535.0
18167.354111505032,-50.47209930419922,504.867431640625,-210.74998474121094,-1455.7672119140625,-22.230815887451172,48.802310943603516,22.146411895751953,76.6535873413086,276.5522766113281,65535.0
18167.354511513586,-68.9764633178711,510.0283508300781,-206.00953674316406,-1459.8814697265625,-26.382701873779297,43.27640914916992,19.351205825805664,74.69438171386719,281.3898010253906,65535.0
18167.35491152214,-79.4727554321289,516.9901733398438,-201.50411987304688,-1437.5169677734375,-27.2578182220459,41.75554656982422,18.563501358032227,76.30703735351562,289.3853454589844,65535.0
18167.35531153069,-79.70975494384766,526.1912231445312,-194.10614013671875,-1376.82861328125,-18.5335636138916,52.30730438232422,25.95684051513672,82.83780670166016,293.3279113769531,65535.0
18167.355711539243,-69.4861831665039,524.8516845703125,-192.6202850341797,-1330.21826171875,-16.499624252319336,56.36214065551758,28.875167846679688,84.4676284790039,294.43829345703125,65535.0
18167.356111547797,-53.69390869140625,527.6788940429688,-198.93865966796875,-1305.0892333984375,-22.35127067565918,44.18507385253906,19.19762420654297,76.87035369873047,280.4712219238281,65535.0
18167.356511556347,-49.29845428466797,529.6976318359375,-198.100341796875,-1301.344482421875,-26.50052261352539,41.32801055908203,20.2156925201416,73.23043060302734,276.1873779296875,65535.0
18167.3569115649,-57.31449508666992,523.580322265625,-195.00051879882812,-1311.6505126953125,-29.61631202697754,37.57779312133789,15.924121856689453,69.41800689697266,292.4836120605469,65535.0
18167.357311573454,-53.54986572265625,522.4680786132812,-191.33029174804688,-1367.3436279296875,-26.457012176513672,39.550533294677734,16.831390380859375,72.581787109375,291.6305847167969,65535.0
18167.357711582008,-42.837440490722656,526.602783203125,-184.0456085205078,-1415.2257080078125,-32.28942108154297,32.64274978637695,12.942712783813477,68.28514862060547,291.1307373046875,65535.0
18167.358111590558,-17.73760223388672,526.48583984375,-188.76515197753906,-1449.0118408203125,-35.64797592163086,27.30792236328125,8.717288970947266,64.75565338134766,286.7279052734375,65535.0
18167.35851159911,-19.589672088623047,523.646484375,-196.0953369140625,-1472.326904296875,-24.50905990600586,35.228736877441406,20.71991539001465,76.83056640625,281.3130187988281,65535.0
18167.358911607666,-5.343348026275635,519.3277587890625,-186.7283172607422,-1492.8897705078125,-30.493328094482422,31.750530242919922,14.874065399169922,67.43479919433594,289.3409423828125,65535.0
18167.359311616216,24.41217613220215,512.4970703125,-184.90357971191406,-1491.4696044921875,-21.615440368652344,41.601985931396484,20.180173873901367,75.17670440673828,291.12518310546875,65535.0
18167.35971162477,25.935184478759766,510.9504699707031,-194.63198852539062,-1483.9925537109375,-21.35906982421875,40.39072799682617,21.404251098632812,76.18260192871094,281.1235046386719,65535.0
18167.360111633323,20.073238372802734,511.94635009765625,-202.44664001464844,-1501.34033203125,-27.36693572998047,33.82892608642578,14.999411582946777,69.72164154052734,285.7151794433594,65535.0
18167.360511641877,0.5365305542945862,503.3087158203125,-201.9955291748047,-1515.12158203125,-26.6431884765625,35.789730072021484,15.929386138916016,73.96512603759766,292.6872863769531,65535.0
18167.360911650427,17.970895767211914,489.5192565917969,-198.7631378173828,-1510.7269287109375,-24.25436019897461,39.292476654052734,18.242069244384766,76.5810317993164,291.99444580078125,65535.0
18167.36131165898,37.99530792236328,501.6019287109375,-206.31936645507812,-1503.701904296875,-21.436050415039062,44.32933044433594,23.4435977935791,75.72917175292969,289.2296142578125,65535.0
18167.361711667534,31.341764450073242,502.0757141113281,-206.35494995117188,-1473.506103515625,-16.009111404418945,53.342647552490234,29.06593132019043,81.4155502319336,290.0709228515625,65535.0
18167.362111676084,20.466678619384766,500.9061279296875,-209.08058166503906,-1415.1715087890625,-13.480083465576172,53.38496017456055,28.766185760498047,84.86595916748047,295.884521484375,65535.0
18167.362511684638,16.283506393432617,492.742431640625,-201.10296630859375,-1363.9197998046875,-10.580744743347168,59.15386962890625,31.08994483947754,90.69608306884766,293.8388366699219,65535.0
18167.36291169319,54.82383346557617,481.5853576660156,-202.08738708496094,-1332.393310546875,-6.343267440795898,63.45793533325195,37.12790298461914,91.06974029541016,289.5981750488281,65535.0
18167.363311701745,77.35992431640625,482.9488220214844,-198.00912475585938,-1317.1412353515625,-14.427547454833984,56.42694854736328,30.285930633544922,84.08390045166016,288.6485900878906,65535.0
18167.363711710295,80.33247375488281,481.6703796386719,-203.9060821533203,-1327.4276123046875,-17.676090240478516,55.38060760498047,28.448625564575195,84.44659423828125,295.3493957519531,65535.0
18167.36411171885,65.87701416015625,469.0701599121094,-208.77052307128906,-1343.9547119140625,-8.223347663879395,65.75678253173828,34.963443756103516,90.80921936035156,286.788330078125,65535.0
18167.364511727403,55.019927978515625,471.2701110839844,-207.4791259765625,-1362.1588134765625,-7.779122829437256,68.50641632080078,33.66828918457031,90.08988952636719,303.2687683105469,65535.0
18167.364911735953,46.47134780883789,471.5596618652344,-209.09263610839844,-1403.7674560546875,-10.888150215148926,64.99138641357422,34.086666107177734,88.54084014892578,296.4696350097656,65535.0
18167.365311744506,69.0591049194336,461.9714050292969,-205.004150390625,-1413.293701171875,-9.914764404296875,70.28132629394531,36.052330017089844,88.0766372680664,280.1591796875,65535.0
18167.36571175306,84.2606201171875,464.5176086425781,-212.10443115234375,-1410.680419921875,-15.668355941772461,66.67052459716797,28.630098342895508,84.85997009277344,280.5745849609375,65535.0
18167.366111761614,87.69901275634766,467.6432800292969,-219.54931640625,-1430.068115234375,-14.471102714538574,63.391082763671875,28.151060104370117,83.14738464355469,291.09796142578125,65535.0
18167.366511770164,100.09803009033203,471.7283020019531,-212.40354919433594,-1398.151611328125,3.4850502014160156,83.46576690673828,46.69457244873047,101.0843734741211,286.2845458984375,65535.0
18167.366911778718,91.8021240234375,459.5794677734375,-210.969482421875,-1369.1627197265625,0.949455976486206,87.38587188720703,44.108680725097656,102.05693054199219,282.5083923339844,65535.0
18167.36731178727,90.20154571533203,464.47314453125,-214.5580596923828,-1364.740966796875,0.20153513550758362,88.81639099121094,44.85174560546875,99.21139526367188,287.1970520019531,65535.0
18167.36771179582,98.95272064208984,454.1443786621094,-223.9325714111328,-1371.1402587890625,2.205289602279663,85.99068450927734,44.73811340332031,101.82830810546875,278.9107971191406,65535.0
18167.368111804375,110.81306457519531,446.82916259765625,-212.0280303955078,-1381.46435546875,2.577637195587158,90.22124481201172,48.15819549560547,104.08407592773438,290.0302429199219,65535.0
18167.36851181293,139.30665588378906,456.5870666503906,-195.06057739257812,-1389.6177978515625,-0.04882868751883507,89.0201644897461,45.58238220214844,99.61895751953125,285.41741943359375,65535.0
18167.368911821482,162.26516723632812,472.15008544921875,-202.70201110839844,-1404.3974609375,-3.404550790786743,83.19686889648438,37.66441345214844,92.69937896728516,277.4405822753906,65535.0
18167.369311830033,152.9754180908203,475.9103698730469,-202.0882110595703,-1425.5184326171875,-8.023907661437988,80.84151458740234,37.380088806152344,92.03843688964844,295.2295227050781,65535.0
18167.369711838586,142.29721069335938,479.678466796875,-190.34117126464844,-1436.06591796875,-6.72548246383667,82.0770492553711,39.30180358886719,92.40039825439453,286.1831359863281,65535.0
18167.37011184714,123.9237289428711,490.2469482421875,-195.57704162597656,-1436.9002685546875,1.4498449563980103,91.1204833984375,43.52925109863281,100.46186828613281,284.0055847167969,65535.0
18167.37051185569,109.94425201416016,485.72833251953125,-188.34715270996094,-1428.28759765625,-3.2755095958709717,84.17118072509766,41.487815856933594,95.18533325195312,280.0267639160156,65535.0
18167.370911864244,117.59164428710938,482.84539794921875,-168.1387176513672,-1419.87353515625,-4.470496654510498,80.38412475585938,39.71962356567383,96.43876647949219,280.4056091308594,65535.0
18167.371311872797,112.03665161132812,492.46820068359375,-176.6932830810547,-1418.077392578125,-5.767079830169678,77.0523910522461,35.87670135498047,92.16336822509766,278.5989074707031,65535.0
18167.37171188135,75.8670654296875,490.5691223144531,-176.9527130126953,-1422.64990234375,-6.806697368621826,75.27815246582031,34.29872512817383,89.51827239990234,281.8714599609375,65535.0
18167.3721118899,47.17601013183594,487.0360107421875,-183.66395568847656,-1420.677734375,-5.932481288909912,76.70355987548828,37.5548210144043,90.88301086425781,290.19122314453125,65535.0
18167.372511898455,22.814279556274414,487.7879638671875,-198.15814208984375,-1417.5076904296875,-0.029034998267889023,79.92337036132812,41.42475891113281,96.58155822753906,289.9934387207031,65535.0
18167.37291190701,1.1602545976638794,491.73492431640625,-205.55735778808594,-1404.4334716796875,-7.101997375488281,77.0468521118164,35.10723114013672,92.73968505859375,282.2655334472656,65535.0
18167.37331191556,22.066070556640625,498.9253845214844,-202.7121124267578,-1383.530029296875,-10.181647300720215,68.54757690429688,31.420774459838867,86.7957534790039,284.4230041503906,65535.0
18167.373711924112,26.37608528137207,498.9462890625,-197.92832946777344,-1356.631103515625,-5.820744037628174,70.38616180419922,37.80723190307617,91.92964172363281,290.27484130859375,65535.0
18167.374111932666,18.844207763671875,501.49456787109375,-193.44998168945312,-1340.722412109375,-2.51686954498291,74.0282211303711,40.46933364868164,95.45619201660156,285.82666015625,65535.0
18167.37451194122,17.472318649291992,506.10565185546875,-195.68124389648438,-1341.14453125,-4.076747417449951,72.58051300048828,37.9588623046875,94.4566879272461,289.0816650390625,65535.0
18167.37491194977,23.377225875854492,499.73553466796875,-190.4410400390625,-1333.6876220703125,-3.6273365020751953,73.48983001708984,37.44219207763672,93.5416259765625,284.3236083984375,65535.0
18167.375311958323,26.33770751953125,503.6788635253906,-186.57699584960938,-1328.6729736328125,-11.1027250289917,61.949981689453125,29.821922302246094,86.50385284423828,276.7475891113281,65535.0
18167.375711966877,2.0748984813690186,507.8390808105469,-184.6346435546875,-1331.7611083984375,-14.12149429321289,56.70463562011719,29.82957649230957,85.08680725097656,277.28509521484375,65535.0
18167.376111975427,-5.728664398193359,506.9735107421875,-187.04421997070312,-1349.5672607421875,-12.090890884399414,61.15229797363281,32.184757232666016,87.67048645019531,285.3641357421875,65535.0
18167.37651198398,6.641210079193115,497.50970458984375,-181.44834899902344,-1364.4476318359375,-14.57541561126709,51.46405029296875,26.47669219970703,80.78559875488281,284.0894470214844,65535.0
18167.376911992535,17.74306869506836,502.1028137207031,-170.0707244873047,-1357.9654541015625,-14.385754585266113,52.340721130371094,24.818984985351562,82.378662109375,282.0766906738281,65535.0
18167.37731200109,32.8938102722168,515.3986206054688,-173.9468536376953,-1344.7659912109375,-22.96848487854004,45.98169708251953,19.216846466064453,77.74983978271484,274.7611999511719,65535.0
18167.37771200964,29.08832550048828,514.2185668945312,-176.5535430908203,-1345.8414306640625,-8.50954818725586,57.857940673828125,34.66990280151367,91.9749526977539,287.0532531738281,65535.0
18167.378112018192,22.9345760345459,501.63140869140625,-178.89906311035156,-1363.09033203125,-15.932930946350098,52.55185317993164,26.333908081054688,82.11827850341797,300.2463684082031,65535.0
18167.378512026746,28.387481689453125,506.6487731933594,-174.6251983642578,-1369.1593017578125,-19.69293975830078,45.447853088378906,21.72980308532715,77.28434753417969,291.73583984375,65535.0
18167.378912035296,49.297977447509766,498.79241943359375,-178.95578002929688,-1366.88818359375,-16.286893844604492,47.7672119140625,27.008556365966797,82.61595153808594,289.1717224121094,65535.0
18167.37931204385,72.27997589111328,496.1892395019531,-182.642578125,-1371.882568359375,-20.033769607543945,47.17230987548828,25.316669464111328,77.52294158935547,283.9209899902344,65535.0
18167.379712052403,62.25315475463867,492.0685119628906,-184.8121795654297,-1379.0853271484375,-19.181882858276367,45.38039779663086,22.988906860351562,79.34064483642578,281.2755432128906,65535.0
18167.380112060957,31.240150451660156,495.56402587890625,-191.59335327148438,-1415.281982421875,-25.070392608642578,39.8591194152832,19.71807289123535,74.08684539794922,279.37066650390625,65535.0
18167.380512069507,-5.209548473358154,489.9330139160156,-190.56968688964844,-1450.3876953125,-21.964778900146484,41.36277389526367,22.890289306640625,73.28815460205078,282.6265869140625,65535.0
18167.38091207806,-47.185546875,489.93145751953125,-204.78707885742188,-1468.9661865234375,-19.221864700317383,46.67182159423828,24.853715896606445,81.7004165649414,287.8795471191406,65535.0
18167.381312086614,-81.97564697265625,484.5772399902344,-201.26007080078125,-1490.2271728515625,-25.435752868652344,42.0986328125,17.117231369018555,76.22343444824219,278.0469970703125,65535.0
18167.381712095164,-90.68128204345703,490.453857421875,-191.73870849609375,-1467.9656982421875,-22.105152130126953,43.81254196166992,20.00152587890625,75.39679718017578,282.7370910644531,65535.0
18167.382112103718,-91.77436065673828,483.4295959472656,-197.19430541992188,-1423.8121337890625,-16.506805419921875,47.73423767089844,25.51543617248535,80.9284896850586,290.5297546386719,65535.0
18167.38251211227,-99.97069549560547,479.11883544921875,-195.22296142578125,-1403.8880615234375,-18.435302734375,50.38413619995117,24.133039474487305,80.39701843261719,283.2485046386719,65535.0
18167.382912120825,-70.10531616210938,481.61810302734375,-188.185302734375,-1392.6220703125,-24.519567489624023,43.59003829956055,16.591331481933594,75.89005279541016,274.2856140136719,65535.0
18167.383312129376,-34.41643524169922,474.9361267089844,-195.15443420410156,-1389.6954345703125,-23.153697967529297,42.416385650634766,20.769134521484375,73.46295928955078,289.1015319824219,65535.0
18167.38371213793,-6.5638909339904785,471.8278503417969,-203.40643310546875,-1379.78076171875,-14.006683349609375,55.757545471191406,30.38984489440918,84.72742462158203,287.20745849609375,65535.0
18167.384112146483,14.306384086608887,479.6513366699219,-199.04563903808594,-1373.9161376953125,-16.006542205810547,56.63166809082031,25.88157081604004,82.3282699584961,280.20062255859375,65535.0
18167.384512155033,40.2105827331543,477.5785217285156,-199.37384033203125,-1368.6942138671875,-12.322491645812988,62.38267517089844,30.669937133789062,86.80909729003906,279.6793518066406,65535.0
18167.384912163587,49.77699661254883,470.8842468261719,-213.75143432617188,-1368.1116943359375,-19.254446029663086,58.049522399902344,23.746376037597656,79.42196655273438,287.817138671875,65535.0
18167.38531217214,53.59763717651367,472.359619140625,-204.99362182617188,-1370.611328125,-22.080902099609375,53.98427963256836,20.549386978149414,78.8310317993164,283.0737609863281,65535.0
18167.385712180694,43.871768951416016,463.74755859375,-210.73651123046875,-1357.8724365234375,-16.932106018066406,57.19868850708008,25.354400634765625,81.4074478149414,275.54541015625,65535.0
18167.386112189244,23.729339599609375,453.8824462890625,-216.0140380859375,-1361.0799560546875,-9.065897941589355,71.5831298828125,31.72773551940918,90.94217681884766,281.350830078125,65535.0
18167.386512197798,22.458904266357422,452.62078857421875,-212.49105834960938,-1368.613037109375,-7.207279205322266,75.67925262451172,36.162879943847656,92.90190887451172,290.2062072753906,65535.0
18167.38691220635,13.1604642868042,447.67919921875,-206.89964294433594,-1392.573486328125,-19.22571563720703,62.24947738647461,24.258991241455078,81.50040435791016,288.87091064453125,65535.0
18167.3873122149,-11.936298370361328,450.0642395019531,-218.5042724609375,-1401.0894775390625,-24.590900421142578,54.29783630371094,18.449556350708008,74.27482604980469,288.09210205078125,65535.0
18167.387712223455,-20.571041107177734,447.9622497558594,-208.0368194580078,-1405.93115234375,-12.254905700683594,69.5000991821289,30.24858283996582,84.8511734008789,277.5898742675781,65535.0
18167.38811223201,-23.170909881591797,466.1654052734375,-203.79779052734375,-1428.10009765625,-11.43839168548584,75.44133758544922,34.517295837402344,89.01024627685547,276.8212585449219,65535.0
18167.388512240563,-24.590465545654297,468.7698669433594,-208.2621612548828,-1437.66748046875,-12.075675010681152,73.92870330810547,32.60103225708008,86.92314147949219,283.2170104980469,65535.0
18167.388912249113,-40.770713806152344,467.99432373046875,-203.92210388183594,-1457.3216552734375,-15.513195037841797,71.58491516113281,33.11962890625,85.55609893798828,275.1101989746094,65535.0
18167.389312257666,-81.35515594482422,472.2930603027344,-209.9393768310547,-1481.0521240234375,-17.12801170349121,67.67804718017578,25.825918197631836,83.09075927734375,273.002197265625,65535.0
18167.38971226622,-101.48958587646484,476.81597900390625,-206.05340576171875,-1492.6275634765625,-6.685693264007568,74.841796875,31.953685760498047,88.34514617919922,277.05419921875,65535.0
18167.39011227477,-91.9239501953125,470.79302978515625,-195.64785766601562,-1493.1033935546875,-14.917529106140137,70.83631134033203,30.821443557739258,83.62883758544922,275.4961853027344,65535.0
18167.390512283324,-67.0993881225586,476.8544921875,-195.97622680664062,-1480.9249267578125,-8.736225128173828,76.26934051513672,35.3275260925293,89.63199615478516,284.5833435058594,65535.0
18167.390912291878,-36.026710510253906,483.178955078125,-199.1919403076172,-1457.864990234375,-1.4758388996124268,83.90007019042969,41.93968963623047,95.6707992553711,292.3500671386719,65535.0
18167.39131230043,-20.879291534423828,479.2386779785156,-193.6185760498047,-1446.179931640625,-4.60031795501709,80.71334075927734,39.812313079833984,94.6027603149414,280.3761901855469,65535.0
18167.39171230898,-28.493484497070312,486.2135314941406,-195.1144256591797,-1416.259033203125,-18.86177635192871,62.20640563964844,24.560108184814453,79.56822204589844,284.08148193359375,65535.0
18167.392112317535,-14.495523452758789,482.5426330566406,-187.43141174316406,-1401.6112060546875,-20.58400535583496,57.78398513793945,24.919048309326172,81.15379333496094,291.2476806640625,65535.0
18167.39251232609,7.291493892669678,474.11566162109375,-188.8428497314453,-1410.7149658203125,-12.305840492248535,65.71527862548828,27.915884017944336,86.66436767578125,289.5655517578125,65535.0
18167.39291233464,7.029797077178955,487.3707580566406,-202.25787353515625,-1399.5753173828125,-1.0519275665283203,77.3486099243164,41.87150573730469,98.1529541015625,279.0097351074219,65535.0
18167.393312343193,17.11808204650879,480.6591796875,-192.05516052246094,-1389.33740234375,-5.243158340454102,77.24674224853516,40.2989387512207,96.18468475341797,285.2712097167969,65535.0
18167.393712351746,28.76051139831543,482.54119873046875,-187.7678985595703,-1387.888671875,-14.631314277648926,62.42694091796875,25.377758026123047,83.21841430664062,291.6856689453125,65535.0
18167.3941123603,47.86133575439453,478.7886657714844,-192.64305114746094,-1371.270263671875,-21.62093734741211,51.69216537475586,19.918066024780273,79.34358215332031,290.9718322753906,65535.0
18167.39451236885,66.14701080322266,486.4576110839844,-193.89669799804688,-1350.946044921875,-13.633585929870605,57.39149475097656,26.898418426513672,83.82677459716797,272.3531799316406,65535.0
18167.394912377404,84.40719604492188,492.05340576171875,-201.03807067871094,-1343.790283203125,-12.83152961730957,64.9468994140625,31.136871337890625,88.6366958618164,269.67584228515625,65535.0
18167.395312385957,144.75074768066406,489.2049865722656,-178.43312072753906,-1338.1142578125,-9.448363304138184,65.07076263427734,32.15210723876953,90.12696075439453,288.66680908203125,65535.0
18167.395712394507,177.52749633789062,486.4634094238281,-179.53367614746094,-1335.2974853515625,-6.648753643035889,68.97467803955078,35.68306350708008,90.76990509033203,289.2313232421875,65535.0
18167.39611240306,182.8799285888672,493.1881103515625,-184.998046875,-1347.4840087890625,-20.657381057739258,55.38127899169922,23.69354248046875,80.77037048339844,285.47479248046875,65535.0
18167.396512411615,204.57020568847656,492.56280517578125,-184.91690063476562,-1357.6053466796875,-23.198766708374023,47.53805160522461,21.8797550201416,78.95096588134766,290.5990295410156,65535.0
18167.39691242017,224.6425018310547,496.5030212402344,-182.40151977539062,-1345.37060546875,-17.861112594604492,47.674686431884766,25.374542236328125,80.6600112915039,276.9381408691406,65535.0
18167.39731242872,234.4748992919922,509.4876403808594,-189.1522979736328,-1317.8760986328125,-19.129003524780273,46.84352493286133,22.52841567993164,77.93950653076172,273.7442321777344,65535.0
18167.397712437272,217.2835235595703,496.8642883300781,-194.73780822753906,-1317.4649658203125,-25.432748794555664,42.362125396728516,20.094532012939453,75.28718566894531,291.4889221191406,65535.0
18167.398112445826,218.00547790527344,502.5870056152344,-202.46617126464844,-1341.769775390625,-30.00789451599121,33.911319732666016,14.295312881469727,70.71305084228516,281.2153015136719,65535.0
18167.398512454376,178.08396911621094,506.2958984375,-196.15524291992188,-1386.4888916015625,-27.026121139526367,35.452144622802734,14.224535942077637,70.21392822265625,287.1925964355469,65535.0
18167.39891246293,150.41795349121094,503.9257507324219,-177.2488555908203,-1413.3006591796875,-26.73404312133789,36.20621109008789,17.151275634765625,74.07111358642578,279.37518310546875,65535.0
18167.399312471483,116.86884307861328,502.1062927246094,-184.8497772216797,-1423.13916015625,-15.200827598571777,47.832366943359375,26.064870834350586,84.54549407958984,277.656494140625,65535.0
18167.399712480037,81.06156921386719,492.6637878417969,-188.6415557861328,-1434.1131591796875,-22.193849563598633,45.27668380737305,22.446746826171875,81.3986587524414,282.2632751464844,65535.0
18167.400112488587,32.177886962890625,484.5045471191406,-190.9791717529297,-1437.053955078125,-19.50360107421875,41.83209228515625,21.01991844177246,78.91236114501953,273.24578857421875,65535.0
18167.40051249714,-14.121564865112305,486.4175720214844,-188.3924102783203,-1462.953369140625,-23.087480545043945,41.86048126220703,21.44589614868164,79.69194030761719,274.3768615722656,65535.0
18167.400912505695,-11.222771644592285,486.83990478515625,-179.2678680419922,-1473.041015625,-19.21281623840332,48.69812774658203,27.165340423583984,82.38648223876953,288.0018615722656,65535.0
18167.401312514245,-4.90990686416626,486.4541320800781,-181.49700927734375,-1457.2603759765625,-22.765174865722656,44.34260559082031,21.096921920776367,77.81535339355469,278.3348083496094,65535.0
18167.4017125228,-1.113612174987793,488.8261413574219,-180.8122100830078,-1453.694091796875,-25.374095916748047,42.72355270385742,20.04582405090332,73.6515884399414,276.5401611328125,65535.0
18167.402112531352,-45.272247314453125,495.5316162109375,-177.96827697753906,-1431.1572265625,-21.83656120300293,44.17826843261719,22.063627243041992,75.64446258544922,272.39422607421875,65535.0
18167.402512539906,-78.70597076416016,485.1849060058594,-184.68882751464844,-1425.091064453125,-26.928958892822266,40.91936111450195,18.121625900268555,73.75399017333984,278.6940612792969,65535.0
18167.402912548456,-92.53536224365234,479.0132751464844,-200.21205139160156,-1445.3310546875,-24.49365997314453,46.4565544128418,23.87679100036621,76.94509887695312,277.8716735839844,65535.0
18167.40331255701,-99.15876007080078,486.6557922363281,-201.03402709960938,-1441.2420654296875,-16.77324676513672,52.36144256591797,24.365053176879883,79.78046417236328,270.0301208496094,65535.0
18167.403712565563,-94.71605682373047,483.3813781738281,-201.85560607910156,-1431.31982421875,-25.28841781616211,41.51060104370117,17.131439208984375,73.0914077758789,285.8997497558594,65535.0
18167.404112574113,-55.97606658935547,479.38348388671875,-204.62156677246094,-1416.025634765625,-20.615890502929688,50.20882034301758,24.684091567993164,79.48654174804688,285.9969787597656,65535.0
18167.404512582667,-26.423118591308594,474.37200927734375,-204.0177764892578,-1404.810791015625,-13.258341789245605,60.05427169799805,29.219520568847656,86.74801635742188,272.86322021484375,65535.0
18167.40491259122,-18.96276092529297,475.4355163574219,-198.87770080566406,-1395.4083251953125,-15.989989280700684,58.81842041015625,27.490032196044922,84.01655578613281,284.77288818359375,65535.0
18167.405312599774,-26.687543869018555,474.23223876953125,-203.43096923828125,-1386.2001953125,-10.552167892456055,67.74722290039062,34.3867301940918,88.53919982910156,270.66302490234375,65535.0
18167.405712608324,-22.161848068237305,465.8931579589844,-203.9078369140625,-1379.29248046875,-19.022062301635742,60.32123947143555,27.301742553710938,81.96435546875,278.67120361328125,65535.0
18167.406112616878,-14.378185272216797,463.623291015625,-205.92398071289062,-1364.8665771484375,-18.841602325439453,58.012752532958984,25.148237228393555,80.6917495727539,275.70025634765625,65535.0
18167.40651262543,-17.686317443847656,460.2888488769531,-209.1763916015625,-1356.1121826171875,0.30340251326560974,80.10745239257812,43.3054313659668,98.91487884521484,270.5869140625,65535.0
18167.406912633982,-20.14544105529785,468.8361511230469,-213.2659454345703,-1370.233642578125,-3.0847902297973633,79.67759704589844,40.29930877685547,95.34270477294922,273.9882507324219,65535.0
18167.407312642536,-0.07099798321723938,470.7264404296875,-225.26136779785156,-1376.3984375,-3.245084285736084,79.49565124511719,39.007354736328125,97.10408020019531,284.2630310058594,65535.0
18167.40771265109,16.66065788269043,464.76214599609375,-220.19021606445312,-1373.33056640625,-12.481979370117188,72.15513610839844,33.270023345947266,87.89361572265625,281.06182861328125,65535.0
18167.408112659643,37.848419189453125,467.04302978515625,-200.26780700683594,-1375.4769287109375,-9.090904235839844,73.26547241210938,34.806396484375,90.93344116210938,269.2313537597656,65535.0
18167.408512668193,54.0600471496582,468.0063781738281,-191.3549041748047,-1383.45654296875,-7.693103313446045,76.25061798095703,34.784576416015625,93.40824127197266,274.8455505371094,65535.0
18167.408912676747,69.0810317993164,468.5072021484375,-192.40475463867188,-1396.0523681640625,-7.877442359924316,76.18177032470703,36.6930046081543,93.28849029541016,283.164306640625,65535.0
18167.4093126853,76.21269989013672,463.0514221191406,-193.6721954345703,-1409.0926513671875,-6.343981742858887,79.87957000732422,38.76395797729492,92.25979614257812,279.0932312011719,65535.0
18167.40971269385,75.6810073852539,478.3338317871094,-207.58856201171875,-1415.2357177734375,-3.881220817565918,79.3271713256836,41.214717864990234,95.61555480957031,270.60260009765625,65535.0
18167.410112702404,53.529624938964844,466.66839599609375,-216.24630737304688,-1412.848876953125,0.19135864078998566,88.72664642333984,45.65016555786133,101.7571792602539,280.450439453125,65535.0
18167.410512710958,26.390302658081055,472.4425964355469,-203.53414916992188,-1409.9072265625,-7.360171318054199,76.88917541503906,35.73933029174805,91.73851776123047,283.2968444824219,65535.0
18167.41091271951,37.070064544677734,471.5911865234375,-186.64385986328125,-1408.7864990234375,-16.812536239624023,62.70649337768555,27.563005447387695,82.18206787109375,276.00946044921875,65535.0
18167.41131272806,59.43116760253906,478.75323486328125,-189.4488983154297,-1414.579345703125,-8.990669250488281,71.22408294677734,34.116920471191406,90.69995880126953,278.522705078125,65535.0
18167.411712736615,36.357666015625,487.52362060546875,-194.06295776367188,-1425.4710693359375,-6.023303031921387,74.98281860351562,37.65797424316406,93.08773040771484,279.36676025390625,65535.0
18167.41211274517,6.681926727294922,486.6263732910156,-183.9562225341797,-1437.7855224609375,-15.481879234313965,67.05083465576172,32.701358795166016,85.42997741699219,271.9874267578125,65535.0
18167.41251275372,25.558557510375977,478.7854309082031,-177.1151123046875,-1461.6422119140625,-12.339101791381836,65.65775299072266,30.47064971923828,87.42071533203125,278.0321044921875,65535.0
18167.412912762273,36.83978271484375,485.2767028808594,-181.61257934570312,-1493.554443359375,-14.986950874328613,63.92152404785156,29.326141357421875,87.18055725097656,266.00537109375,65535.0
18167.413312770826,50.06433868408203,486.7876892089844,-183.0367889404297,-1499.1148681640625,-14.996320724487305,60.398807525634766,27.994604110717773,85.77918243408203,266.25,65535.0
18167.41371277938,44.6124153137207,493.44091796875,-181.27093505859375,-1499.108154296875,-15.460566520690918,60.951202392578125,26.92987060546875,83.45343780517578,287.6546936035156,65535.0
18167.41411278793,53.47480392456055,492.17608642578125,-176.76980590820312,-1493.4456787109375,-24.651790618896484,49.868003845214844,23.66983413696289,76.03934478759766,271.2003173828125,65535.0
18167.414512796484,43.91692352294922,495.27911376953125,-171.0272216796875,-1480.2593994140625,-30.8560791015625,37.52631378173828,16.30082893371582,72.13978576660156,271.46685791015625,65535.0
18167.414912805038,35.78823471069336,487.9266662597656,-180.43258666992188,-1478.30419921875,-30.430110931396484,35.908233642578125,11.03061294555664,68.43488311767578,271.74224853515625,65535.0
18167.415312813588,35.323150634765625,495.3948669433594,-175.1021728515625,-1478.9178466796875,-18.87377166748047,50.8692741394043,25.05577850341797,81.02751159667969,269.8355407714844,65535.0
18167.41571282214,37.04277038574219,506.1983337402344,-178.23455810546875,-1493.86669921875,-30.377607345581055,37.35036087036133,12.873775482177734,70.39093780517578,276.7000427246094,65535.0
18167.416112830695,31.428752899169922,496.8264465332031,-190.24441528320312,-1483.571044921875,-33.9777946472168,33.358924865722656,9.949888229370117,66.55318450927734,270.1422119140625,65535.0
18167.41651283925,40.079647064208984,494.6167297363281,-191.30831909179688,-1461.547607421875,-27.404470443725586,36.99358367919922,17.46516227722168,74.0527572631836,269.7339172363281,65535.0
18167.4169128478,55.928436279296875,498.4970397949219,-190.89401245117188,-1436.24462890625,-27.737396240234375,36.619720458984375,16.792686462402344,72.90714263916016,268.7676696777344,65535.0
18167.417312856353,83.46512603759766,492.7589416503906,-171.2605743408203,-1402.022705078125,-26.971384048461914,32.45206069946289,12.96235466003418,69.88813018798828,272.1230773925781,65535.0
18167.417712864906,101.65227508544922,500.0285339355469,-165.68263244628906,-1377.815185546875,-24.386560440063477,35.612342834472656,18.103403091430664,75.12044525146484,278.4781799316406,65535.0
18167.418112873456,115.52757263183594,504.6877136230469,-167.38601684570312,-1375.2164306640625,-25.12889862060547,36.8825569152832,17.912517547607422,74.76252746582031,274.73223876953125,65535.0
18167.41851288201,110.8647689819336,486.30322265625,-179.34622192382812,-1366.035888671875,-18.527420043945312,45.570980072021484,27.584665298461914,84.08491516113281,273.6062316894531,65535.0
18167.418912890564,89.69393920898438,497.86834716796875,-182.4287109375,-1359.9608154296875,-30.78709602355957,33.68101119995117,13.774246215820312,68.82305145263672,276.3223571777344,65535.0
18167.419312899117,33.692298889160156,495.0780334472656,-185.0944366455078,-1374.254150390625,-36.35282897949219,25.0594425201416,7.284552097320557,64.61418914794922,270.5303039550781,65535.0
18167.419712907667,8.676389694213867,485.0494689941406,-188.2306671142578,-1380.55029296875,-35.0153694152832,23.59604263305664,7.520223617553711,63.9668083190918,280.07757568359375,65535.0
18167.42011291622,4.489213466644287,488.09295654296875,-188.90049743652344,-1361.4559326171875,-37.76749038696289,22.124998092651367,4.6788859367370605,61.59715270996094,276.7327880859375,65535.0
18167.420512924775,16.407169342041016,481.4626770019531,-196.3544464111328,-1358.0009765625,-36.60765075683594,22.853370666503906,3.235017776489258,60.955013275146484,259.43585205078125,65535.0
18167.420912933325,34.75992202758789,479.0076599121094,-191.51425170898438,-1377.0330810546875,-32.53329086303711,26.647275924682617,10.947943687438965,64.7283935546875,259.3749084472656,65535.0
18167.42131294188,56.68235397338867,476.681396484375,-188.1127166748047,-1378.15771484375,-31.45911979675293,27.075016021728516,9.4972505569458,66.05240631103516,259.0822448730469,65535.0
18167.421712950432,94.43140411376953,472.61822509765625,-191.15789794921875,-1372.8424072265625,-31.47442626953125,27.75651741027832,6.9631524085998535,66.65189361572266,273.52142333984375,65535.0
18167.422112958986,132.4190216064453,467.3766784667969,-185.22616577148438,-1373.212158203125,-34.63698959350586,26.543535232543945,9.255717277526855,63.83904266357422,268.5467224121094,65535.0
18167.422512967536,127.9753646850586,473.21807861328125,-186.46908569335938,-1344.3831787109375,-29.554622650146484,35.866058349609375,15.600732803344727,71.07489776611328,274.5247802734375,65535.0
18167.42291297609,104.74181365966797,485.4703674316406,-188.9139404296875,-1332.05810546875,-31.783681869506836,30.977256774902344,10.520657539367676,65.82805633544922,271.9937744140625,65535.0
18167.423312984643,90.14105224609375,481.03619384765625,-191.0750274658203,-1328.0814208984375,-31.32550811767578,31.218198776245117,10.46570110321045,66.04548645019531,271.623046875,65535.0
18167.423712993193,87.18871307373047,474.38604736328125,-190.43399047851562,-1334.892822265625,-42.50128173828125,22.421310424804688,2.5426924228668213,56.48978042602539,266.2472229003906,65535.0
18167.424113001747,94.14603424072266,474.2909851074219,-194.37147521972656,-1330.560546875,-29.613414764404297,33.14522171020508,11.331315040588379,69.3513412475586,260.8994140625,65535.0
18167.4245130103,99.52678680419922,470.2100830078125,-190.14820861816406,-1330.8267822265625,-22.272253036499023,45.93915557861328,19.483360290527344,75.2091064453125,261.3761901855469,65535.0
18167.424913018855,87.12399291992188,465.8662109375,-191.69522094726562,-1353.3330078125,-29.01348114013672,41.37025451660156,12.828857421875,68.8866958618164,267.29718017578125,65535.0
18167.425313027405,85.04411315917969,462.904541015625,-212.6564178466797,-1359.09765625,-35.906951904296875,33.84051513671875,5.680073261260986,65.03303527832031,274.3905334472656,65535.0
18167.42571303596,81.44021606445312,448.9830627441406,-205.5993194580078,-1348.4375,-20.32586097717285,51.256591796875,24.03934669494629,77.87931060791016,272.2878723144531,65535.0
18167.426113044512,74.06190490722656,455.7299499511719,-210.9872589111328,-1354.955322265625,-22.825931549072266,48.8720588684082,21.158517837524414,77.37200927734375,267.5537414550781,65535.0
18167.426513053062,51.732635498046875,452.7494201660156,-218.455078125,-1376.6619873046875,-22.78036880493164,50.14371871948242,22.10028839111328,77.3396224975586,263.34564208984375,65535.0
18167.426913061616,56.24638366699219,457.668701171875,-203.2286834716797,-1409.5928955078125,-19.315589904785156,57.578643798828125,25.56924819946289,80.66230010986328,258.1394348144531,65535.0
18167.42731307017,79.41078186035156,454.1566162109375,-197.89138793945312,-1466.9705810546875,-21.189842224121094,58.850502014160156,23.165433883666992,80.66853332519531,272.3499450683594,65535.0
18167.427713078723,64.89812469482422,452.3620300292969,-197.46099853515625,-1485.9150390625,-9.02558708190918,69.8292007446289,32.27983856201172,89.46524810791016,270.4013977050781,65535.0
18167.428113087273,14.634977340698242,461.89959716796875,-191.87643432617188,-1471.283447265625,-12.834087371826172,68.85735321044922,32.8670654296875,89.0033187866211,260.5719909667969,65535.0
18167.428513095827,-57.38911437988281,469.4345397949219,-194.89869689941406,-1426.7972412109375,-11.563994407653809,72.7851333618164,30.829408645629883,88.91341400146484,264.37091064453125,65535.0
18167.42891310438,-89.63605499267578,471.22711181640625,-199.2074737548828,-1405.8919677734375,-5.4092535972595215,78.42484283447266,37.76591491699219,95.43795013427734,284.6815490722656,65535.0
18167.42931311293,-98.81525421142578,471.0245056152344,-206.24351501464844,-1390.8140869140625,-12.854975700378418,69.63748931884766,29.556922912597656,85.1051025390625,273.0431213378906,65535.0
18167.429713121484,-106.05549621582031,477.3697814941406,-204.17633056640625,-1387.2427978515625,-9.971945762634277,69.53777313232422,32.929569244384766,90.28070068359375,263.3256530761719,65535.0
18167.430113130038,-112.76575469970703,479.7044677734375,-192.5814971923828,-1379.9884033203125,-11.890396118164062,69.07625579833984,30.963247299194336,88.56871032714844,261.6014709472656,65535.0
18167.43051313859,-105.10171508789062,475.72979736328125,-186.14703369140625,-1385.2188720703125,-2.571263074874878,78.4050064086914,40.24333190917969,95.287109375,258.8873291015625,65535.0
18167.430913147142,-77.85018157958984,490.5541076660156,-189.4169464111328,-1377.1290283203125,0.20765140652656555,82.56437683105469,42.07648468017578,101.08612823486328,275.75836181640625,65535.0
18167.431313155696,-85.72447204589844,481.9391784667969,-199.4812774658203,-1388.6527099609375,-11.334056854248047,72.12957000732422,31.949462890625,89.11568450927734,267.8556823730469,65535.0
18167.43171316425,-93.01001739501953,477.8520202636719,-198.19552612304688,-1418.643798828125,-11.53186321258545,70.48992156982422,36.3321647644043,91.08958435058594,268.839111328125,65535.0
18167.4321131728,-77.42681884765625,483.3469543457031,-199.53402709960938,-1452.9805908203125,-14.521343231201172,64.67599487304688,30.101205825805664,86.71131134033203,254.9469757080078,65535.0
18167.432513181353,-74.72549438476562,475.3944396972656,-197.61386108398438,-1458.7762451171875,-8.869006156921387,71.66943359375,35.58677673339844,91.78475952148438,253.6518096923828,65535.0
18167.432913189907,-46.968482971191406,471.7901611328125,-195.4652557373047,-1450.1337890625,-7.484707832336426,71.7548828125,37.988338470458984,93.21929168701172,282.26507568359375,65535.0
18167.43331319846,-2.1215295791625977,472.1024475097656,-189.6123046875,-1450.8580322265625,-7.108504295349121,67.1863021850586,35.931156158447266,89.86295318603516,263.70782470703125,65535.0
18167.43371320701,47.67959213256836,478.9600524902344,-199.54226684570312,-1459.5482177734375,-9.750152587890625,64.56729888916016,31.596410751342773,89.04983520507812,258.1646728515625,65535.0
18167.434113215564,71.68621063232422,488.614990234375,-197.85060119628906,-1459.908935546875,-22.74097442626953,51.588768005371094,20.636096954345703,79.45526123046875,243.57969665527344,65535.0
18167.434513224118,74.76647186279297,490.4037780761719,-194.7018280029297,-1471.7100830078125,-16.836559295654297,54.50931930541992,26.035287857055664,84.58057403564453,259.32391357421875,65535.0
18167.434913232668,59.945762634277344,486.20355224609375,-193.9456787109375,-1483.62646484375,-14.136184692382812,57.42184829711914,31.058778762817383,85.76702880859375,262.0931091308594,65535.0
18167.43531324122,65.87022399902344,480.8481750488281,-195.17674255371094,-1507.8896484375,-17.809965133666992,53.876495361328125,28.907257080078125,83.03340911865234,264.9678039550781,65535.0
18167.435713249775,96.4854965209961,486.0075378417969,-192.14022827148438,-1520.9710693359375,-21.83396339416504,47.96696472167969,21.66838264465332,78.05029296875,270.86785888671875,65535.0
18167.43611325833,110.84487915039062,484.004638671875,-185.28863525390625,-1528.2410888671875,-21.036680221557617,42.7108268737793,20.33175277709961,76.42997741699219,261.2005920410156,65535.0
18167.43651326688,116.39088439941406,479.7691955566406,-181.90975952148438,-1536.9532470703125,-22.573041915893555,44.09572982788086,23.44280242919922,77.06676483154297,263.1261901855469,65535.0
18167.436913275433,117.27310180664062,484.78948974609375,-191.1203155517578,-1517.227783203125,-26.25390625,42.513336181640625,18.778858184814453,75.14761352539062,257.2730407714844,65535.0
18167.437313283986,91.81101989746094,485.36712646484375,-185.3494110107422,-1483.9039306640625,-24.753572463989258,38.795631408691406,20.286577224731445,73.50733184814453,265.591796875,65535.0
18167.437713292537,53.1439094543457,490.3472595214844,-189.9274139404297,-1462.8377685546875,-25.078227996826172,37.279266357421875,16.51923370361328,74.12601470947266,263.71636962890625,65535.0
18167.43811330109,-5.882449626922607,498.09515380859375,-200.12478637695312,-1443.8583984375,-20.155040740966797,40.673946380615234,19.360631942749023,77.5478286743164,265.93023681640625,65535.0
18167.438513309644,-61.4436149597168,495.77392578125,-205.14183044433594,-1425.2525634765625,-31.585426330566406,31.793235778808594,14.825944900512695,70.26616668701172,255.11642456054688,65535.0
18167.438913318198,-73.19023895263672,488.9644775390625,-207.7039794921875,-1411.6473388671875,-34.74674987792969,23.746774673461914,9.691072463989258,65.2863998413086,263.0677490234375,65535.0
18167.439313326748,-53.030704498291016,473.6805725097656,-193.48245239257812,-1387.916015625,-30.519304275512695,26.19549560546875,15.76481819152832,71.16584777832031,268.541748046875,65535.0
18167.4397133353,-47.77572250366211,489.15179443359375,-194.88034057617188,-1356.23486328125,-45.03402328491211,17.79156494140625,0.8375290632247925,58.39774703979492,277.2385559082031,65535.0
18167.440113343855,-62.46895217895508,483.3602600097656,-208.2027587890625,-1357.3028564453125,-30.16399574279785,27.878860473632812,11.756010055541992,70.2093276977539,257.433837890625,65535.0
18167.440513352405,-70.52584838867188,480.21240234375,-212.62269592285156,-1374.696533203125,-27.90196990966797,26.909896850585938,11.433408737182617,68.8887939453125,253.72010803222656,65535.0
18167.44091336096,-69.76565551757812,485.8758239746094,-212.87744140625,-1379.90625,-26.172800064086914,31.832990646362305,15.81882095336914,72.73668670654297,267.6334228515625,65535.0
18167.441313369512,-65.64788055419922,474.3335876464844,-216.78627014160156,-1374.660400390625,-23.908893585205078,36.09716796875,19.71352767944336,73.03404235839844,268.72357177734375,65535.0
18167.441713378066,-59.34264373779297,478.5004577636719,-210.6218719482422,-1372.7862548828125,-21.100841522216797,40.06887435913086,23.8004207611084,74.24729919433594,264.99652099609375,65535.0
18167.442113386616,-46.61971664428711,481.2522277832031,-212.639404296875,-1385.380126953125,-22.37743377685547,37.687801361083984,20.26038932800293,76.07936096191406,264.08270263671875,65535.0
18167.44251339517,-45.89173126220703,468.41229248046875,-212.02880859375,-1396.3271484375,-29.912290573120117,33.9634895324707,12.006705284118652,66.49002075195312,255.5608367919922,65535.0
18167.442913403724,-53.011573791503906,479.1634521484375,-212.61656188964844,-1397.8265380859375,-25.10978126525879,38.4912109375,18.2819881439209,72.61325073242188,251.73085021972656,65535.0
18167.443313412274,-52.130043029785156,477.277587890625,-225.5060272216797,-1401.6954345703125,-18.12038803100586,48.74558639526367,24.218875885009766,81.20011138916016,260.1691589355469,65535.0
18167.443713420827,-35.39214324951172,474.2279052734375,-220.9326934814453,-1405.293212890625,-13.793486595153809,54.872127532958984,27.505422592163086,83.6639633178711,272.3692626953125,65535.0
18167.44411342938,-25.46263885498047,476.0693664550781,-204.5128936767578,-1405.0531005859375,-25.250211715698242,40.313865661621094,18.00724983215332,76.13536834716797,261.7144775390625,65535.0
18167.444513437935,-19.429039001464844,469.4753723144531,-215.76565551757812,-1401.291259765625,-21.638656616210938,46.89875793457031,20.222383499145508,79.48616790771484,257.1447448730469,65535.0
18167.444913446485,-11.654250144958496,467.8790283203125,-218.07064819335938,-1409.182373046875,-16.640750885009766,48.6006965637207,24.723615646362305,80.40867614746094,257.2428283691406,65535.0
18167.44531345504,4.128807544708252,463.0162658691406,-213.4929962158203,-1398.1239013671875,-14.62890338897705,55.46281814575195,28.931941986083984,85.49132537841797,271.30780029296875,65535.0
18167.445713463592,8.18948745727539,459.5032043457031,-225.59996032714844,-1405.9205322265625,-16.142972946166992,56.451255798339844,24.89134407043457,80.59624481201172,262.2362060546875,65535.0
18167.446113472142,5.905390739440918,458.27880859375,-222.03990173339844,-1411.62109375,-9.519216537475586,64.040771484375,33.35171127319336,87.93207550048828,256.8876953125,65535.0
18167.446513480696,10.351213455200195,455.6703186035156,-224.01220703125,-1412.515625,-15.410843849182129,60.57435607910156,28.032207489013672,84.65943145751953,262.50726318359375,65535.0
18167.44691348925,20.24709701538086,450.5133972167969,-223.08265686035156,-1410.3570556640625,-15.128642082214355,60.84569549560547,26.34324836730957,82.55781555175781,259.89208984375,65535.0
18167.4473134978,30.944427490234375,450.096435546875,-216.91831970214844,-1422.2557373046875,-8.293097496032715,72.36015319824219,36.26438522338867,91.34844207763672,265.4310302734375,65535.0
18167.447713506353,40.07175064086914,438.0946044921875,-222.5269012451172,-1428.0606689453125,-9.74342155456543,71.8658447265625,35.34995651245117,90.94180297851562,251.5790557861328,65535.0
18167.448113514907,35.604278564453125,452.858642578125,-211.72015380859375,-1422.101318359375,-17.29558753967285,62.125404357910156,23.0191593170166,79.73734283447266,251.0857391357422,65535.0
18167.44851352346,25.400325775146484,453.2019958496094,-213.72216796875,-1414.90673828125,-14.127192497253418,60.85445785522461,26.389509201049805,81.73115539550781,259.0566711425781,65535.0
18167.44891353201,12.50428581237793,461.50555419921875,-223.72879028320312,-1421.7554931640625,-10.874180793762207,67.92681121826172,33.093196868896484,89.14885711669922,255.73301696777344,65535.0
18167.449313540565,22.082101821899414,462.2745666503906,-222.72718811035156,-1420.1641845703125,-16.6612491607666,62.87117385864258,27.560142517089844,83.05596923828125,245.3942413330078,65535.0
18167.44971354912,10.804327964782715,458.1469421386719,-213.93650817871094,-1424.5631103515625,-16.926700592041016,57.99388122558594,24.48329734802246,82.04325103759766,259.25604248046875,65535.0
18167.45011355767,14.483810424804688,464.6217346191406,-215.7803192138672,-1431.6407470703125,-21.917633056640625,57.75531768798828,22.874174118041992,80.49462890625,238.02786254882812,65535.0
18167.450513566222,19.373855590820312,469.48077392578125,-216.90089416503906,-1438.2340087890625,-23.921497344970703,56.055843353271484,22.230422973632812,78.49848937988281,237.32623291015625,65535.0
18167.450913574776,30.880542755126953,480.664794921875,-199.5638427734375,-1419.4154052734375,-18.119569778442383,57.102455139160156,23.94253921508789,79.08631134033203,259.98529052734375,65535.0
18167.45131358333,27.14811897277832,470.1932678222656,-194.1402130126953,-1407.4317626953125,-9.430416107177734,67.14393615722656,33.45621871948242,93.56404876708984,262.33404541015625,65535.0
18167.45171359188,33.060577392578125,469.8158264160156,-210.0975799560547,-1415.7020263671875,-10.06762981414795,67.30036926269531,33.002716064453125,89.36559295654297,243.89817810058594,65535.0
18167.452113600433,42.339054107666016,478.1775207519531,-200.7410430908203,-1411.09375,-7.905396461486816,66.4377670288086,32.70460510253906,88.40601348876953,249.31275939941406,65535.0
18167.452513608987,46.02369689941406,474.5628967285156,-207.96885681152344,-1422.0059814453125,-13.312941551208496,64.23125457763672,28.8940486907959,86.65856170654297,244.64259338378906,65535.0
18167.452913617537,61.50904846191406,473.52197265625,-209.74794006347656,-1417.3848876953125,-17.373735427856445,61.878421783447266,28.15719223022461,84.1539535522461,247.7702178955078,65535.0
18167.45331362609,72.42505645751953,483.1923828125,-207.5426025390625,-1414.7607421875,-23.233762741088867,50.17096710205078,21.206300735473633,76.68621826171875,251.84988403320312,65535.0
18167.453713634644,65.01390838623047,488.69024658203125,-203.4612274169922,-1413.3001708984375,-21.86284637451172,45.63174057006836,22.500717163085938,76.792236328125,239.4767303466797,65535.0
18167.454113643198,47.12067794799805,482.10601806640625,-208.36245727539062,-1409.9368896484375,-30.924720764160156,37.569091796875,13.083950996398926,67.174560546875,258.1904296875,65535.0
18167.454513651748,26.23659324645996,488.91156005859375,-206.4710235595703,-1408.037841796875,-30.09499740600586,36.49028778076172,13.077902793884277,67.69721221923828,266.23065185546875,65535.0
18167.454913660302,10.591230392456055,484.1166687011719,-201.81935119628906,-1411.3978271484375,-25.25265884399414,40.78028106689453,17.268009185791016,70.79135131835938,242.3805694580078,65535.0
18167.455313668856,-28.56818962097168,499.016845703125,-193.1730499267578,-1413.194580078125,-25.17115592956543,40.9370231628418,16.80354118347168,73.39286804199219,246.8485870361328,65535.0
18167.455713677406,-53.0652961730957,502.2852783203125,-191.98155212402344,-1412.08154296875,-40.03171157836914,24.144554138183594,3.6934921741485596,61.127742767333984,254.06715393066406,65535.0
18167.45611368596,-33.52851867675781,492.03460693359375,-198.57749938964844,-1422.7767333984375,-30.757049560546875,31.930688858032227,12.802773475646973,69.74617767333984,265.5133972167969,65535.0
18167.456513694513,-14.96301555633545,498.681396484375,-200.92518615722656,-1436.082275390625,-32.993125915527344,29.89801025390625,8.109522819519043,66.20951080322266,244.3843536376953,65535.0
18167.456913703067,1.8142268657684326,504.1273193359375,-203.00430297851562,-1447.927978515625,-32.68974685668945,28.584941864013672,8.773070335388184,64.31375885009766,240.85267639160156,65535.0
18167.457313711617,9.403841972351074,499.7987060546875,-199.55142211914062,-1435.5430908203125,-27.50383186340332,32.92256546020508,17.087390899658203,73.85087585449219,250.1468048095703,65535.0
18167.45771372017,10.31995677947998,502.451416015625,-196.09246826171875,-1409.9130859375,-32.68991470336914,29.510435104370117,13.593280792236328,66.47599792480469,244.9412078857422,65535.0
18167.458113728724,33.61309814453125,494.2832946777344,-198.36024475097656,-1398.33642578125,-33.14447784423828,22.784015655517578,9.741348266601562,63.29341506958008,249.45970153808594,65535.0
18167.458513737274,8.69252872467041,490.3887634277344,-199.0010986328125,-1380.9576416015625,-34.407447814941406,22.598649978637695,7.597879886627197,64.64860534667969,258.32232666015625,65535.0
18167.458913745828,-19.487031936645508,486.0532531738281,-209.04129028320312,-1382.4259033203125,-29.926250457763672,24.995512008666992,12.711668014526367,64.29651641845703,244.16043090820312,65535.0
18167.45931375438,-33.62178039550781,484.2735900878906,-197.9368438720703,-1397.2476806640625,-28.74002456665039,30.712095260620117,15.956372261047363,72.329833984375,235.6575927734375,65535.0
18167.459713762935,-64.21717071533203,477.1362609863281,-202.8863983154297,-1393.924072265625,-43.131168365478516,18.101181030273438,5.141379356384277,60.150352478027344,252.7472686767578,65535.0
18167.460113771485,-83.44839477539062,473.8935852050781,-210.7305450439453,-1393.48291015625,-37.74059295654297,19.915590286254883,7.947902679443359,61.491912841796875,248.68482971191406,65535.0
18167.46051378004,-85.42963409423828,477.2080078125,-205.6131591796875,-1399.761474609375,-36.0718879699707,23.83440399169922,7.958992958068848,62.02579116821289,257.06097412109375,65535.0
18167.460913788593,-87.49897003173828,483.7877502441406,-208.2720489501953,-1403.4144287109375,-34.51283645629883,24.403690338134766,9.503623008728027,65.46134185791016,249.36941528320312,65535.0
18167.461313797143,-69.58493041992188,484.5395812988281,-210.2794647216797,-1406.1268310546875,-38.322696685791016,18.610523223876953,4.310327053070068,59.64745330810547,243.9822998046875,65535.0
18167.461713805696,-51.83863067626953,481.01885986328125,-203.69236755371094,-1402.8746337890625,-33.527313232421875,23.33456039428711,8.53586196899414,65.3510971069336,255.98928833007812,65535.0
18167.46211381425,-19.547962188720703,481.5662841796875,-215.88551330566406,-1405.297607421875,-31.90407371520996,29.587024688720703,12.589009284973145,68.22650909423828,257.6192321777344,65535.0
18167.462513822804,27.54068946838379,478.3318786621094,-219.11196899414062,-1398.486083984375,-25.567596435546875,34.01401901245117,19.374984741210938,71.00511169433594,258.0638122558594,65535.0
18167.462913831354,53.804073333740234,489.1665344238281,-213.255126953125,-1398.27392578125,-24.481843948364258,36.00052261352539,18.847888946533203,74.6015625,249.9551544189453,65535.0
18167.463313839908,54.70554733276367,480.00335693359375,-198.94935607910156,-1398.4365234375,-24.487825393676758,40.06195831298828,18.788410186767578,75.7298812866211,242.57965087890625,65535.0
18167.46371384846,60.16184616088867,467.618408203125,-196.74984741210938,-1402.5887451171875,-29.310853958129883,35.012489318847656,14.38398265838623,67.70597839355469,249.29376220703125,65535.0
18167.46411385701,74.41079711914062,486.5439147949219,-210.72283935546875,-1400.197509765625,-25.767488479614258,34.96471405029297,16.698293685913086,74.84313201904297,253.34059143066406,65535.0
18167.464513865565,75.58306884765625,490.9445495605469,-214.68936157226562,-1406.5074462890625,-21.49542808532715,43.33150100708008,20.073345184326172,75.17963409423828,241.24017333984375,65535.0
18167.46491387412,66.46864318847656,497.77813720703125,-216.8489532470703,-1409.481689453125,-23.113414764404297,42.714996337890625,21.27931785583496,75.96837615966797,256.1333312988281,65535.0
18167.465313882672,49.36812973022461,497.69512939453125,-221.8431396484375,-1412.003662109375,-22.634929656982422,46.10023880004883,21.784042358398438,77.19986724853516,247.2087860107422,65535.0
18167.465713891223,25.93208885192871,488.4914245605469,-220.11224365234375,-1409.1656494140625,-17.088539123535156,52.57310104370117,24.20263671875,80.5964126586914,253.42987060546875,65535.0
18167.466113899776,14.57437801361084,484.9345703125,-223.36936950683594,-1406.43359375,-17.365461349487305,55.684547424316406,24.646352767944336,80.72452545166016,246.64439392089844,65535.0
18167.46651390833,4.600217819213867,492.0003967285156,-222.01283264160156,-1425.36279296875,-19.785001754760742,55.382022857666016,25.562665939331055,78.3500747680664,243.49623107910156,65535.0
18167.46691391688,-7.286243915557861,488.4709777832031,-222.08792114257812,-1427.52685546875,-14.963837623596191,60.76581573486328,26.204254150390625,82.05062103271484,238.60629272460938,65535.0
18167.467313925434,-14.911004066467285,492.7558288574219,-213.56076049804688,-1425.008544921875,-13.755624771118164,61.74309539794922,27.873205184936523,83.2386474609375,239.73985290527344,65535.0
18167.467713933987,-28.704843521118164,495.4929504394531,-217.90988159179688,-1408.1845703125,-15.911273002624512,64.1654281616211,30.79329490661621,83.51881408691406,258.0165710449219,65535.0
18167.46811394254,-43.10078048706055,492.4273376464844,-210.7362823486328,-1415.541015625,-16.538694381713867,63.95660400390625,28.875850677490234,84.72081756591797,246.2258758544922,65535.0
18167.46851395109,-49.88231658935547,503.61590576171875,-208.83534240722656,-1436.314697265625,-14.61447525024414,63.03329849243164,27.023767471313477,82.39984130859375,238.28977966308594,65535.0
18167.468913959645,-76.54122924804688,510.52655029296875,-213.630615234375,-1434.6673583984375,-14.425955772399902,62.93357467651367,25.97564697265625,83.33695983886719,244.5241241455078,65535.0
18167.4693139682,-70.5528564453125,501.88507080078125,-210.53607177734375,-1427.036376953125,-13.437389373779297,66.70525360107422,29.616296768188477,85.06904602050781,234.91546630859375,65535.0
18167.46971397675,-24.52857780456543,495.9764099121094,-210.5275421142578,-1429.5546875,-11.992417335510254,67.40959930419922,28.915672302246094,85.51998138427734,244.7181854248047,65535.0
18167.470113985302,4.584502220153809,495.1476745605469,-213.72250366210938,-1415.378173828125,-13.284690856933594,70.10648345947266,31.183320999145508,86.38289642333984,250.60142517089844,65535.0
18167.470513993856,25.05230140686035,490.9748840332031,-219.61398315429688,-1411.4564208984375,-21.211824417114258,58.285247802734375,22.89916229248047,78.4253921508789,245.51280212402344,65535.0
18167.47091400241,49.42588424682617,494.5067138671875,-206.80514526367188,-1410.868408203125,-25.412351608276367,50.55344009399414,19.0661678314209,74.1963119506836,250.86097717285156,65535.0
18167.47131401096,73.68592071533203,482.337158203125,-197.46243286132812,-1415.908935546875,-28.716279983520508,44.937129974365234,14.157898902893066,70.86660766601562,241.94322204589844,65535.0
18167.471714019513,67.79963684082031,478.4278869628906,-198.0907440185547,-1432.6834716796875,-23.792713165283203,48.01504135131836,16.500810623168945,73.77554321289062,248.39852905273438,65535.0
18167.472114028067,61.29182052612305,481.0525207519531,-200.60621643066406,-1446.5364990234375,-21.01756477355957,51.29270935058594,21.398603439331055,77.6085433959961,266.24371337890625,65535.0
18167.472514036617,59.212486267089844,484.40673828125,-200.5324249267578,-1440.56640625,-21.24443817138672,51.81378936767578,20.12255096435547,76.81181335449219,245.2733154296875,65535.0
18167.47291404517,65.29337310791016,493.4667663574219,-191.75881958007812,-1421.8184814453125,-25.990598678588867,43.08570861816406,15.037726402282715,72.12738037109375,240.1605682373047,65535.0
18167.473314053725,68.97090148925781,503.37628173828125,-199.04867553710938,-1415.9326171875,-26.168519973754883,43.525177001953125,17.561214447021484,74.15412139892578,235.27981567382812,65535.0
18167.47371406228,63.500144958496094,501.9756164550781,-192.99270629882812,-1408.407470703125,-27.52102279663086,42.439517974853516,17.170974731445312,73.64482116699219,247.13766479492188,65535.0
18167.47411407083,62.82418441772461,510.1767883300781,-190.48904418945312,-1403.9530029296875,-30.754018783569336,37.3051643371582,13.527714729309082,66.83687591552734,237.6331329345703,65535.0
18167.474514079382,59.36610794067383,501.86279296875,-193.0823211669922,-1395.878173828125,-25.64695167541504,42.86238098144531,17.58349609375,73.12117767333984,237.56419372558594,65535.0
18167.474914087936,56.424190521240234,493.3256530761719,-190.30348205566406,-1382.3253173828125,-25.7805233001709,39.821537017822266,15.569087982177734,72.34366607666016,246.9880828857422,65535.0
18167.475314096486,23.714767456054688,509.2810363769531,-183.17691040039062,-1370.0860595703125,-20.551700592041016,44.089698791503906,23.3854923248291,80.28618621826172,236.9159393310547,65535.0
18167.47571410504,14.054070472717285,511.4595642089844,-184.33773803710938,-1368.992919921875,-30.080581665039062,35.32965087890625,13.178910255432129,70.10540771484375,226.3976287841797,65535.0
18167.476114113593,-6.983057498931885,516.112548828125,-192.93861389160156,-1361.872802734375,-20.561115264892578,42.96295928955078,22.555219650268555,78.34538269042969,238.0106964111328,65535.0
18167.476514122147,-33.044254302978516,516.8758544921875,-188.73558044433594,-1361.4107666015625,-26.742801666259766,35.251773834228516,18.031803131103516,74.32801055908203,249.0945281982422,65535.0
18167.476914130697,-18.0466251373291,516.441162109375,-193.7948455810547,-1355.053955078125,-30.93520164489746,31.526290893554688,11.239459991455078,66.88516998291016,246.86553955078125,65535.0
18167.47731413925,0.9714993834495544,507.49005126953125,-196.05274963378906,-1354.545166015625,-35.766902923583984,24.340206146240234,8.805188179016113,66.06716918945312,239.88558959960938,65535.0
18167.477714147804,41.04059600830078,502.43865966796875,-192.42465209960938,-1379.57373046875,-29.081472396850586,30.393672943115234,11.928834915161133,70.70867156982422,240.0584259033203,65535.0
18167.478114156354,69.98827362060547,491.045654296875,-190.52001953125,-1392.499755859375,-26.596031188964844,33.80332946777344,17.516050338745117,73.15572357177734,235.45120239257812,65535.0
18167.478514164908,76.25503540039062,487.2015380859375,-192.88099670410156,-1402.648681640625,-24.63482093811035,34.4149055480957,20.396728515625,75.79075622558594,245.92384338378906,65535.0
18167.47891417346,83.50792694091797,490.42242431640625,-202.5640869140625,-1420.307373046875,-20.235321044921875,36.361610412597656,21.715185165405273,77.76596069335938,242.1625213623047,65535.0
18167.479314182016,86.54049682617188,491.90740966796875,-207.06829833984375,-1417.65771484375,-40.757972717285156,17.604156494140625,4.348484516143799,59.867408752441406,247.83982849121094,65535.0
18167.479714190566,114.9678726196289,489.7335205078125,-200.61203002929688,-1421.098388671875,-36.18210220336914,18.74867057800293,4.997282981872559,63.59480667114258,240.89877319335938,65535.0
18167.48011419912,118.77540588378906,480.65948486328125,-202.95355224609375,-1426.0076904296875,-30.35561180114746,28.76865577697754,12.535393714904785,68.83576202392578,234.5587158203125,65535.0
18167.480514207673,97.88762664794922,484.30224609375,-206.6426544189453,-1450.7491455078125,-28.956684112548828,27.545459747314453,13.113179206848145,69.3633041381836,246.19956970214844,65535.0
18167.480914216223,84.25157928466797,485.58416748046875,-200.54994201660156,-1488.340087890625,-29.5967960357666,27.9251708984375,12.589292526245117,68.41456604003906,250.766845703125,65535.0
18167.481314224777,87.16678619384766,481.9976806640625,-211.54258728027344,-1504.4498291015625,-47.165489196777344,14.260662078857422,-0.1587246209383011,52.234195709228516,245.90545654296875,65535.0
18167.48171423333,99.87907409667969,483.9549560546875,-209.81521606445312,-1502.5701904296875,-33.04861831665039,23.670528411865234,7.065881729125977,64.19219970703125,251.90255737304688,65535.0
18167.482114241884,79.41586303710938,484.52484130859375,-201.3821258544922,-1499.5081787109375,-26.398696899414062,33.45560836791992,16.81949806213379,73.14893341064453,242.8243408203125,65535.0
18167.482514250434,56.072261810302734,485.84576416015625,-203.4755096435547,-1502.9696044921875,-28.856801986694336,35.22428894042969,12.745814323425293,68.75048065185547,237.009033203125,65535.0
18167.482914258988,43.35451126098633,496.6824035644531,-201.6499481201172,-1510.7940673828125,-34.55704879760742,27.493892669677734,5.712104320526123,65.00518798828125,240.34544372558594,65535.0
18167.48331426754,38.28475570678711,485.83734130859375,-199.01116943359375,-1521.2579345703125,-22.667888641357422,40.43094253540039,20.341482162475586,77.32243347167969,250.78335571289062,65535.0
18167.48371427609,34.45159149169922,484.5227966308594,-198.3074493408203,-1528.28076171875,-28.826608657836914,34.61179733276367,13.81145191192627,69.07584381103516,230.0355682373047,65535.0
18167.484114284645,12.784374237060547,490.235107421875,-209.75753784179688,-1534.9237060546875,-31.463788986206055,35.57656478881836,10.076791763305664,68.35568237304688,240.2163848876953,65535.0
18167.4845142932,-21.842182159423828,500.47174072265625,-214.9434814453125,-1521.109130859375,-28.80311393737793,39.749027252197266,14.724282264709473,72.11830139160156,242.3472442626953,65535.0
18167.484914301753,-40.4265022277832,494.4863586425781,-209.67909240722656,-1519.49658203125,-22.82063102722168,47.07963562011719,21.535402297973633,76.87185668945312,248.44229125976562,65535.0
18167.485314310303,-51.437721252441406,493.64703369140625,-215.84066772460938,-1552.461181640625,-24.46595001220703,46.59736633300781,20.831037521362305,75.28323364257812,240.81631469726562,65535.0
18167.485714318856,-49.32964324951172,484.4864501953125,-223.08314514160156,-1568.6839599609375,-16.42214012145996,56.07268524169922,28.457340240478516,82.3028793334961,241.9493865966797,65535.0
18167.48611432741,-21.199363708496094,484.862060546875,-225.75726318359375,-1570.4764404296875,-25.78264617919922,47.40331268310547,16.594974517822266,71.55156707763672,250.5915069580078,65535.0
18167.48651433596,19.556800842285156,487.120849609375,-222.39013671875,-1571.7939453125,-29.055789947509766,41.93159484863281,12.276907920837402,69.69816589355469,235.48008728027344,65535.0
18167.486914344514,31.495616912841797,478.2951965332031,-228.37838745117188,-1575.47314453125,-24.68819808959961,52.26742172241211,21.128822326660156,77.11669921875,243.97579956054688,65535.0
18167.487314353068,-3.6236226558685303,480.8240661621094,-227.39694213867188,-1570.2696533203125,-10.549519538879395,65.40653228759766,30.789531707763672,88.1591567993164,252.78062438964844,65535.0
18167.48771436162,-40.026634216308594,483.1673278808594,-224.66775512695312,-1568.218505859375,-22.795352935791016,55.69136047363281,20.123966217041016,77.52352142333984,236.2650604248047,65535.0
18167.48811437017,-79.45008850097656,488.9473571777344,-218.04067993164062,-1564.262451171875,-17.342113494873047,62.2169075012207,26.146516799926758,84.64956665039062,229.84678649902344,65535.0
18167.488514378725,-97.55430603027344,500.5247497558594,-207.85845947265625,-1562.208251953125,-11.978729248046875,68.80213928222656,30.90680503845215,86.7533187866211,244.9589080810547,65535.0
18167.48891438728,-72.83219909667969,495.0694580078125,-190.3239288330078,-1553.7276611328125,-11.768781661987305,66.95967864990234,31.313215255737305,85.48664093017578,248.24322509765625,65535.0
18167.48931439583,-70.82125091552734,494.509521484375,-185.95977783203125,-1544.3826904296875,-9.188179016113281,68.65210723876953,31.441797256469727,89.56672668457031,233.56407165527344,65535.0
18167.489714404383,-66.26689910888672,495.1192932128906,-197.8390655517578,-1559.92578125,-14.291441917419434,66.0014877319336,29.01749038696289,87.1938705444336,239.0029754638672,65535.0
18167.490114412936,-41.09587478637695,503.3533935546875,-194.12271118164062,-1570.5477294921875,-12.610533714294434,66.69161987304688,28.57135772705078,86.7876968383789,237.0167999267578,65535.0
