time,X_NOSE,Y_NOSE,Z_NOSE,visibility_NOSE,X_LEFT_EYE_INNER,Y_LEFT_EYE_INNER,Z_LEFT_EYE_INNER,visibility_LEFT_EYE_INNER,X_LEFT_EYE,Y_LEFT_EYE,Z_LEFT_EYE,visibility_LEFT_EYE,X_LEFT_EYE_OUTER,Y_LEFT_EYE_OUTER,Z_LEFT_EYE_OUTER,visibility_LEFT_EYE_OUTER,X_RIGHT_EYE_OUTER,Y_RIGHT_EYE_OUTER,Z_RIGHT_EYE_OUTER,visibility_RIGHT_EYE_OUTER,X_RIGHT_EYE,Y_RIGHT_EYE,Z_RIGHT_EYE,visibility_RIGHT_EYE,X_RIGHT_EYE_OUTER,Y_RIGHT_EYE_OUTER,Z_RIGHT_EYE_OUTER,visibility_RIGHT_EYE_OUTER,X_LEFT_EAR,Y_LEFT_EAR,Z_LEFT_EAR,visibility_LEFT_EAR,X_RIGHT_EAR,Y_RIGHT_EAR,Z_RIGHT_EAR,visibility_RIGHT_EAR,X_MOUTH_LEFT,Y_MOUTH_LEFT,Z_MOUTH_LEFT,visibility_MOUTH_LEFT,X_MOUTH_RIGHT,Y_MOUTH_RIGHT,Z_MOUTH_RIGHT,visibility_MOUTH_RIGHT,X_LEFT_SHOULDER,Y_LEFT_SHOULDER,Z_LEFT_SHOULDER,visibility_LEFT_SHOULDER,X_RIGHT_SHOULDER,Y_RIGHT_SHOULDER,Z_RIGHT_SHOULDER,visibility_RIGHT_SHOULDER,X_LEFT_ELBOW,Y_LEFT_ELBOW,Z_LEFT_ELBOW,visibility_LEFT_ELBOW,X_RIGHT_ELBOW,Y_RIGHT_ELBOW,Z_RIGHT_ELBOW,visibility_RIGHT_ELBOW,X_LEFT_WRIST,Y_LEFT_WRIST,Z_LEFT_WRIST,visibility_LEFT_WRIST,X_RIGHT_WRIST,Y_RIGHT_WRIST,Z_RIGHT_WRIST,visibility_RIGHT_WRIST,X_LEFT_PINKY,Y_LEFT_PINKY,Z_LEFT_PINKY,visibility_LEFT_PINKY,X_RIGHT_PINKY,Y_RIGHT_PINKY,Z_RIGHT_PINKY,visibility_RIGHT_PINKY,X_LEFT_INDEX,Y_LEFT_INDEX,Z_LEFT_INDEX,visibility_LEFT_INDEX,X_RIGHT_INDEX,Y_RIGHT_INDEX,Z_RIGHT_INDEX,visibility_RIGHT_INDEX,X_LEFT_THUMB,Y_LEFT_THUMB,Z_LEFT_THUMB,visibility_LEFT_THUMB,X_RIGHT_THUMB,Y_RIGHT_THUMB,Z_RIGHT_THUMB,visibility_RIGHT_THUMB,X_LEFT_HIP,Y_LEFT_HIP,Z_LEFT_HIP,visibility_LEFT_HIP,X_RIGHT_HIP,Y_RIGHT_HIP,Z_RIGHT_HIP,visibility_RIGHT_HIP,X_LEFT_KNEE,Y_LEFT_KNEE,Z_LEFT_KNEE,visibility_LEFT_KNEE,X_RIGHT_KNEE,Y_RIGHT_KNEE,Z_RIGHT_KNEE,visibility_RIGHT_KNEE,X_LEFT_ANKLE,Y_LEFT_ANKLE,Z_LEFT_ANKLE,visibility_LEFT_ANKLE,X_RIGHT_ANKLE,Y_RIGHT_ANKLE,Z_RIGHT_ANKLE,visibility_RIGHT_ANKLE,X_LEFT_HEEL,Y_LEFT_HEEL,Z_LEFT_HEEL,visibility_LEFT_HEEL,X_RIGHT_HEEL,Y_RIGHT_HEEL,Z_RIGHT_HEEL,visibility_RIGHT_HEEL,X_LEFT_FOOT_INDEX,Y_LEFT_FOOT_INDEX,Z_LEFT_FOOT_INDEX,visibility_LEFT_FOOT_INDEX,X_RIGHT_FOOT_INDEX,Y_RIGHT_FOOT_INDEX,Z_RIGHT_FOOT_INDEX,visibility_RIGHT_FOOT_INDEX
19187.73435245952,0.45207521319389343,0.23029568791389465,-1.0174767971038818,0.9999691247940063,0.4537074565887451,0.20730704069137573,-0.9612607359886169,0.9999357461929321,0.46105027198791504,0.20621588826179504,-0.9613209962844849,0.9999270439147949,0.4679742157459259,0.2051122784614563,-0.961297869682312,0.9999136924743652,0.423331618309021,0.20876696705818176,-0.9948951601982117,0.9999500513076782,0.40804770588874817,0.208537757396698,-0.9950394034385681,0.9999465942382812,0.3893115818500519,0.2085959017276764,-0.9951720237731934,0.9999440908432007,0.45573845505714417,0.21233227849006653,-0.6116147637367249,0.9999111890792847,0.34030795097351074,0.2186030149459839,-0.7745294570922852,0.9999558925628662,0.4585587978363037,0.2524818480014801,-0.8851354718208313,0.9999792575836182,0.42770877480506897,0.2552154064178467,-0.9309998750686646,0.9999884366989136,0.5456565618515015,0.3486020267009735,-0.36725708842277527,0.9998446702957153,0.1871759593486786,0.3675044775009155,-0.6160869598388672,0.9998093247413635,0.5884171724319458,0.5143529176712036,-0.13210152089595795,0.9763514995574951,0.13509424030780792,0.5318918228149414,-0.75120609998703,0.987060546875,0.6420572996139526,0.6455256342887878,-0.4012112319469452,0.9750057458877563,0.29166218638420105,0.5493623614311218,-1.1589962244033813,0.9691044688224792,0.6583398580551147,0.6893126964569092,-0.4942067861557007,0.9554993510246277,0.3526807129383087,0.5573081970214844,-1.275014042854309,0.9516474008560181,0.6411963701248169,0.6882554888725281,-0.5885045528411865,0.9587199687957764,0.35767459869384766,0.5314332246780396,-1.3192380666732788,0.9522488713264465,0.6295108795166016,0.6786307096481323,-0.4430816173553467,0.9596638679504395,0.33980920910835266,0.527121901512146,-1.1807688474655151,0.9399899244308472,0.5024557709693909,0.633143424987793,0.0961749404668808,0.9965518712997437,0.3244808614253998,0.6553375124931335,-0.09578975290060043,0.9978721141815186,0.48972761631011963,0.8393763899803162,0.3664214313030243,0.9552809000015259,0.34990009665489197,0.871498167514801,0.10938414931297302,0.9814157485961914,0.484276682138443,0.9556826949119568,1.1652171611785889,0.8831797242164612,0.35826432704925537,0.9851073026657104,0.7577823996543884,0.9211468696594238,0.4635096490383148,0.9698306322097778,1.2256451845169067,0.8315970301628113,0.35982632637023926,0.9850438833236694,0.808710515499115,0.7217949032783508,0.5404975414276123,1.01748788356781,0.9498391151428223,0.8421198725700378,0.3888229727745056,1.08334481716156,0.4272332489490509,0.8182754516601562
19204.401019126188,0.45015180110931396,0.22945013642311096,-1.0385245084762573,0.9999772310256958,0.45277097821235657,0.20645958185195923,-0.9808539152145386,0.9999542236328125,0.46051958203315735,0.20533159375190735,-0.9809135794639587,0.9999487400054932,0.4676178991794586,0.20422396063804626,-0.9808672070503235,0.9999393224716187,0.42087164521217346,0.20807191729545593,-1.0140680074691772,0.9999638795852661,0.40476053953170776,0.2079956829547882,-1.0142502784729004,0.9999620914459229,0.38527148962020874,0.20818307995796204,-1.0143930912017822,0.9999592304229736,0.4568450450897217,0.2121768295764923,-0.62531977891922,0.9999393224716187,0.33600008487701416,0.2190558910369873,-0.7869043350219727,0.9999680519104004,0.4580273926258087,0.25169703364372253,-0.9045857787132263,0.9999855756759644,0.4253537058830261,0.25503453612327576,-0.9501153826713562,0.9999915361404419,0.5442171096801758,0.34976089000701904,-0.37761247158050537,0.9998692274093628,0.1903991401195526,0.36899375915527344,-0.6240681409835815,0.9998185038566589,0.5926963686943054,0.5156590342521667,-0.14475858211517334,0.9813558459281921,0.1363467425107956,0.5323494672775269,-0.7696570754051208,0.9879977703094482,0.6458150148391724,0.6497198939323425,-0.4184693992137909,0.9800150990486145,0.2934534251689911,0.5482895374298096,-1.2003697156906128,0.9690262079238892,0.657966136932373,0.6920992136001587,-0.5125933289527893,0.9621785879135132,0.35195794701576233,0.5535558462142944,-1.3187923431396484,0.9506146907806396,0.6411853432655334,0.6898593902587891,-0.6051365733146667,0.9649592638015747,0.357024222612381,0.5271117091178894,-1.362825870513916,0.9510317444801331,0.6307910680770874,0.6797002553939819,-0.45907872915267944,0.9652324318885803,0.34002235531806946,0.5237574577331543,-1.2223073244094849,0.9381935596466064,0.5035178661346436,0.6331313848495483,0.09476149082183838,0.9963911175727844,0.3258475959300995,0.6540592908859253,-0.09440592676401138,0.9977013468742371,0.4898211359977722,0.8381253480911255,0.3734320402145386,0.9454057812690735,0.3452499210834503,0.8772225975990295,0.1143321618437767,0.9771466851234436,0.48313674330711365,0.961578369140625,1.1436272859573364,0.8676232695579529,0.35996443033218384,0.987500011920929,0.7402321100234985,0.904841959476471,0.46079862117767334,0.9720037579536438,1.200990915298462,0.8173943161964417,0.3633806109428406,1.0238481760025024,0.7881617546081543,0.685338020324707,0.5386488437652588,1.0245236158370972,0.9170313477516174,0.8290519714355469,0.3990466296672821,1.0934953689575195,0.3971550464630127,0.7900107502937317
19221.067685792856,0.4509812891483307,0.22846472263336182,-1.00565505027771,0.9999674558639526,0.4526386260986328,0.20569097995758057,-0.9479110836982727,0.9999347925186157,0.4602380692958832,0.20457673072814941,-0.947993814945221,0.9999271631240845,0.4674241542816162,0.20364314317703247,-0.9479928016662598,0.9999151229858398,0.4215169847011566,0.20730280876159668,-0.9808106422424316,0.9999473094940186,0.4057323634624481,0.2073076069355011,-0.9809854626655579,0.9999438524246216,0.3863571584224701,0.2075265347957611,-0.9811384081840515,0.9999411106109619,0.456122487783432,0.2123112976551056,-0.5994367599487305,0.9999158382415771,0.33714842796325684,0.21886762976646423,-0.7593032121658325,0.9999532699584961,0.45926550030708313,0.25004076957702637,-0.8747246265411377,0.9999803304672241,0.4271094799041748,0.2532293498516083,-0.9197688698768616,0.9999884366989136,0.5425095558166504,0.3511112928390503,-0.3674739897251129,0.9998452663421631,0.18721026182174683,0.3686186373233795,-0.6003642082214355,0.9997811913490295,0.5877184867858887,0.5154203772544861,-0.14525003731250763,0.9787953495979309,0.13664332032203674,0.53078293800354,-0.7456958293914795,0.9861211180686951,0.6442756056785583,0.6462312340736389,-0.4195980131626129,0.977260410785675,0.2936972379684448,0.5486379861831665,-1.171452283859253,0.9661858081817627,0.6594239473342896,0.6897444128990173,-0.5153485536575317,0.9586406350135803,0.3534258008003235,0.5561055541038513,-1.289331078529358,0.947232723236084,0.6420040726661682,0.6877501010894775,-0.6079838275909424,0.9616983532905579,0.3570534884929657,0.5289354920387268,-1.3304466009140015,0.9476667642593384,0.6312103271484375,0.677910327911377,-0.4605802297592163,0.9621767401695251,0.3407219350337982,0.5250476598739624,-1.192516565322876,0.9346891641616821,0.5022980570793152,0.633284866809845,0.0911250039935112,0.9961264729499817,0.32531893253326416,0.654146671295166,-0.09073742479085922,0.9975987076759338,0.4858650267124176,0.8437466621398926,0.341431200504303,0.9477023482322693,0.35107794404029846,0.8752805590629578,0.09790805727243423,0.9758111238479614,0.4851813018321991,0.9572281241416931,1.1469004154205322,0.8564504981040955,0.3618994355201721,0.9889476895332336,0.7465258240699768,0.8951711058616638,0.46484947204589844,0.9682984352111816,1.208092212677002,0.79736328125,0.36829036474227905,1.0174429416656494,0.7972260117530823,0.6616795063018799,0.5412214398384094,1.0207737684249878,0.9277509450912476,0.810211718082428,0.39780694246292114,1.0878009796142578,0.4100246727466583,0.7714197635650635
19237.734352459524,0.4537145793437958,0.23143097758293152,-1.0410776138305664,0.9999691247940063,0.45598843693733215,0.20804890990257263,-0.9866932034492493,0.999933123588562,0.46323534846305847,0.20691102743148804,-0.9867348670959473,0.9999245405197144,0.4699445962905884,0.205672025680542,-0.9867119789123535,0.9999103546142578,0.4255351126194,0.20980972051620483,-1.0212783813476562,0.9999493360519409,0.40995532274246216,0.20965546369552612,-1.02143394947052,0.9999463558197021,0.39097800850868225,0.20986124873161316,-1.0215638875961304,0.9999440908432007,0.45749232172966003,0.21248161792755127,-0.6392859816551208,0.999909520149231,0.3405275344848633,0.21940621733665466,-0.8054921627044678,0.9999551773071289,0.45974957942962646,0.2533780634403229,-0.9085566997528076,0.9999785423278809,0.42881783843040466,0.25639769434928894,-0.9553929567337036,0.9999878406524658,0.5467687845230103,0.3478863835334778,-0.38771945238113403,0.9998301267623901,0.18369172513484955,0.3683110475540161,-0.6442668437957764,0.9998157620429993,0.5892007946968079,0.5138601660728455,-0.1422131061553955,0.9753732681274414,0.1398991346359253,0.5320945978164673,-0.7648409605026245,0.9877265095710754,0.6426699161529541,0.6445238590240479,-0.40424948930740356,0.9716830849647522,0.2947060167789459,0.5473616719245911,-1.151723861694336,0.9701228737831116,0.658022403717041,0.6877298355102539,-0.4946596622467041,0.9493510127067566,0.3561895787715912,0.5539544820785522,-1.2659915685653687,0.9526650309562683,0.6411111354827881,0.6868348717689514,-0.5897267460823059,0.9528370499610901,0.3583020865917206,0.526642382144928,-1.310907006263733,0.9531279802322388,0.6298694014549255,0.6775445938110352,-0.446382611989975,0.9543548226356506,0.34046125411987305,0.5225682854652405,-1.1733890771865845,0.9405195713043213,0.5041865110397339,0.6308705806732178,0.09480072557926178,0.9961114525794983,0.3223314881324768,0.6531798839569092,-0.09440011531114578,0.9977684020996094,0.49071046710014343,0.8391156792640686,0.36307933926582336,0.9617728590965271,0.3465081751346588,0.8721972703933716,0.10978718847036362,0.9845350980758667,0.48406198620796204,0.9549518823623657,1.1689555644989014,0.8979031443595886,0.3559415638446808,0.9860754013061523,0.7594825029373169,0.9342176914215088,0.46177172660827637,0.9701980948448181,1.2299888134002686,0.844113826751709,0.3608066439628601,0.986792802810669,0.8100192546844482,0.7438558340072632,0.5364241600036621,1.0234861373901367,0.9523679614067078,0.8591744303703308,0.38501274585723877,1.0876342058181763,0.4243752956390381,0.8404772281646729
19254.40101912619,0.4571613073348999,0.22910702228546143,-0.9552891254425049,0.9999771118164062,0.45681676268577576,0.20602330565452576,-0.8969871997833252,0.9999535083770752,0.4634932577610016,0.2050306797027588,-0.8970453143119812,0.9999488592147827,0.46979132294654846,0.20407366752624512,-0.8969869017601013,0.9999394416809082,0.4274666905403137,0.20711275935173035,-0.9350429177284241,0.9999629259109497,0.411781370639801,0.20686113834381104,-0.9351489543914795,0.9999607801437378,0.39241063594818115,0.20681199431419373,-0.9352402687072754,0.9999563694000244,0.4539169371128082,0.21131309866905212,-0.552743673324585,0.9999425411224365,0.34073516726493835,0.21689468622207642,-0.7361974120140076,0.9999656677246094,0.4621469974517822,0.25058960914611816,-0.8262982964515686,0.999984622001648,0.4322313964366913,0.253510981798172,-0.87799471616745,0.9999904632568359,0.5425525903701782,0.34934982657432556,-0.33061692118644714,0.9998879432678223,0.18649831414222717,0.3697505593299866,-0.5910110473632812,0.9998094439506531,0.5893723964691162,0.5133452415466309,-0.09710490703582764,0.9800426959991455,0.14480073750019073,0.5280959010124207,-0.7679347395896912,0.9863800406455994,0.6430714130401611,0.6401833891868591,-0.35855555534362793,0.9823281764984131,0.2887587249279022,0.5444348454475403,-1.2127842903137207,0.9714686870574951,0.6587955951690674,0.6849533915519714,-0.4482642114162445,0.9671914577484131,0.34502384066581726,0.5494445562362671,-1.331398844718933,0.9566365480422974,0.6430588960647583,0.684050440788269,-0.5400829315185547,0.9697062969207764,0.34364262223243713,0.5236703157424927,-1.37421715259552,0.9570940732955933,0.6326818466186523,0.6748425960540771,-0.3992738723754883,0.9701395034790039,0.32834792137145996,0.5198225975036621,-1.2354762554168701,0.9457814693450928,0.5027351975440979,0.6328071355819702,0.09544092416763306,0.9974660873413086,0.32255658507347107,0.6531890630722046,-0.09502378851175308,0.998327910900116,0.4894578456878662,0.8372639417648315,0.3980598747730255,0.956230878829956,0.34901121258735657,0.8681815266609192,0.14335180819034576,0.9800693988800049,0.485282838344574,0.9547112584114075,1.1734092235565186,0.885807991027832,0.35549381375312805,0.9860214591026306,0.7794057130813599,0.9139182567596436,0.4647091329097748,0.9698766469955444,1.232077717781067,0.8386820554733276,0.3539172410964966,0.9854916334152222,0.8293613791465759,0.726422905921936,0.5442977547645569,1.0194560289382935,0.9641755819320679,0.8425029516220093,0.3897600471973419,1.0798360109329224,0.4593484401702881,0.8031418919563293
19271.06768579286,0.45841604471206665,0.22879335284233093,-0.9806898236274719,0.9999650716781616,0.45774781703948975,0.20569917559623718,-0.9229866862297058,0.9999253749847412,0.4644244909286499,0.20445778965950012,-0.9230533242225647,0.9999158382415771,0.47057855129241943,0.20325708389282227,-0.9229978322982788,0.9999023675918579,0.42827996611595154,0.20748460292816162,-0.962539553642273,0.9999438524246216,0.4129737317562103,0.2074531614780426,-0.9626815915107727,0.9999401569366455,0.3941364288330078,0.20764142274856567,-0.9628269672393799,0.999937891960144,0.45456767082214355,0.2109690010547638,-0.5809248685836792,0.9998970031738281,0.3431164026260376,0.21778902411460876,-0.7695193886756897,0.9999496936798096,0.463981568813324,0.24999400973320007,-0.8519689440727234,0.9999756813049316,0.4337037205696106,0.2537151575088501,-0.9052338600158691,0.9999866485595703,0.5461530685424805,0.3481564223766327,-0.34834524989128113,0.9998292922973633,0.1884753704071045,0.3693203330039978,-0.6280397772789001,0.9997949004173279,0.5872539281845093,0.5137758255004883,-0.10944371670484543,0.9755327701568604,0.1352977305650711,0.5319334864616394,-0.7614746689796448,0.9885498881340027,0.6428595185279846,0.6443129181861877,-0.37733787298202515,0.9774906635284424,0.2948991656303406,0.5481410622596741,-1.149624228477478,0.9748537540435791,0.6585752964019775,0.6884135007858276,-0.46984460949897766,0.9594867825508118,0.3541845381259918,0.5555315017700195,-1.2653752565383911,0.9598787426948547,0.6419579982757568,0.687089741230011,-0.5626652240753174,0.9624669551849365,0.3576195538043976,0.5277546644210815,-1.3093699216842651,0.9601917862892151,0.6310789585113525,0.6772267818450928,-0.4191076457500458,0.963090717792511,0.3408840596675873,0.5238254070281982,-1.17088782787323,0.9487794637680054,0.5029659867286682,0.6348236203193665,0.10133923590183258,0.9966561794281006,0.3258369266986847,0.6568434238433838,-0.10096978396177292,0.9979984164237976,0.48987337946891785,0.8400605916976929,0.41567322611808777,0.9571308493614197,0.3490985035896301,0.8725277185440063,0.14090150594711304,0.9817842245101929,0.4845157861709595,0.9543766975402832,1.2114909887313843,0.8927329778671265,0.35847848653793335,0.9857486486434937,0.7953787446022034,0.921348512172699,0.4628865718841553,0.9698700904846191,1.2720494270324707,0.8393598198890686,0.3597630262374878,0.9866167902946472,0.8471078276634216,0.7250743508338928,0.5422186851501465,1.0181117057800293,1.0001418590545654,0.8582978248596191,0.3954179584980011,1.0824055671691895,0.47022348642349243,0.8217060565948486
19287.734352459527,0.45466122031211853,0.2292858064174652,-1.0109584331512451,0.9999481439590454,0.4548579752445221,0.2064647078514099,-0.9516485929489136,0.9998985528945923,0.4618304967880249,0.20533472299575806,-0.9517651796340942,0.9998871088027954,0.46841657161712646,0.20429575443267822,-0.9517673850059509,0.9998705387115479,0.42474475502967834,0.20788255333900452,-0.9907050132751465,0.9999172687530518,0.4089342951774597,0.20769789814949036,-0.9908941984176636,0.9999127388000488,0.38924771547317505,0.2076844573020935,-0.991102933883667,0.9999064207077026,0.453833669424057,0.21200016140937805,-0.5863684415817261,0.9998688697814941,0.3385016620159149,0.21854263544082642,-0.7738431692123413,0.9999271631240845,0.4615080952644348,0.2506083846092224,-0.8724600076675415,0.9999701976776123,0.4303842782974243,0.2542206943035126,-0.9255516529083252,0.9999818801879883,0.5471211075782776,0.3490605354309082,-0.3273426592350006,0.9998400211334229,0.18770477175712585,0.36922144889831543,-0.6120845079421997,0.9997227787971497,0.5904239416122437,0.5140793323516846,-0.08364662528038025,0.9787335991859436,0.1465958058834076,0.5301104187965393,-0.7486979961395264,0.9847940802574158,0.642953634262085,0.6474283337593079,-0.3773777186870575,0.9779455065727234,0.2905162274837494,0.5486189723014832,-1.1827328205108643,0.9649667143821716,0.6563081741333008,0.6902487277984619,-0.47668004035949707,0.9591225981712341,0.3431732952594757,0.5558064579963684,-1.3035039901733398,0.9469032287597656,0.6415925025939941,0.6885018348693848,-0.5706053376197815,0.9626991152763367,0.346044659614563,0.5279096961021423,-1.3549480438232422,0.9482481479644775,0.6307532787322998,0.6787237524986267,-0.41951218247413635,0.9630715847015381,0.33084359765052795,0.5235288143157959,-1.2072466611862183,0.9337320923805237,0.5061299204826355,0.6341659426689148,0.1046777218580246,0.9960511326789856,0.3252179026603699,0.6551731824874878,-0.104298435151577,0.9970748424530029,0.49131453037261963,0.8401471376419067,0.3289085924625397,0.9283859133720398,0.34713876247406006,0.8789054155349731,0.07375866174697876,0.9603812098503113,0.48271217942237854,0.9604659676551819,1.1637593507766724,0.8105161786079407,0.36044690012931824,0.9892368912696838,0.7483050227165222,0.8515126705169678,0.45897603034973145,0.9719195365905762,1.2277346849441528,0.7658935189247131,0.3598560094833374,0.9879262447357178,0.8011152148246765,0.5946345925331116,0.5362334847450256,1.0255153179168701,0.9328912496566772,0.763517439365387,0.39796411991119385,1.0982125997543335,0.39323922991752625,0.7117952704429626
19304.401019126195,0.45407235622406006,0.22811856865882874,-0.9914197325706482,0.9999679327011108,0.4546992778778076,0.20521289110183716,-0.9314705729484558,0.9999380111694336,0.46188414096832275,0.20412367582321167,-0.9315701723098755,0.9999303817749023,0.4685851037502289,0.2031676471233368,-0.9315593242645264,0.9999202489852905,0.424060583114624,0.2064780592918396,-0.9670894145965576,0.9999480247497559,0.40848028659820557,0.20628106594085693,-0.967241108417511,0.9999433755874634,0.3891333043575287,0.20626813173294067,-0.9673959612846375,0.99993896484375,0.4557725489139557,0.21125724911689758,-0.5727962851524353,0.9999219179153442,0.3398630619049072,0.2169933319091797,-0.7452795505523682,0.9999516010284424,0.4615662693977356,0.24963901937007904,-0.8568053841590881,0.9999814033508301,0.4303327798843384,0.25251540541648865,-0.9055442810058594,0.9999880790710449,0.5481332540512085,0.34932419657707214,-0.33649376034736633,0.9998724460601807,0.19262057542800903,0.3678068518638611,-0.581967294216156,0.9997548460960388,0.5915488004684448,0.5140348076820374,-0.10695382207632065,0.9819003939628601,0.1444365680217743,0.527808666229248,-0.7305439710617065,0.9846386313438416,0.644572913646698,0.6474691033363342,-0.39360034465789795,0.9820823669433594,0.2896210253238678,0.5479305386543274,-1.180220365524292,0.9660316109657288,0.6569119691848755,0.6906184554100037,-0.491985559463501,0.9662773013114929,0.34374547004699707,0.5547510981559753,-1.301296353340149,0.9485412836074829,0.6418704390525818,0.6890271902084351,-0.5863695740699768,0.968955934047699,0.3472141921520233,0.5276107788085938,-1.349220633506775,0.9495208263397217,0.6317132711410522,0.6792566776275635,-0.4354277551174164,0.9690561890602112,0.33135783672332764,0.523552417755127,-1.2044909000396729,0.9366788268089294,0.5057821273803711,0.634946346282959,0.09194906800985336,0.9967963099479675,0.32749366760253906,0.6557634472846985,-0.0915289893746376,0.9977400302886963,0.49075478315353394,0.8423675894737244,0.3252265155315399,0.9513155221939087,0.3456476330757141,0.8780874609947205,0.09215559810400009,0.9738820195198059,0.48655596375465393,0.9608310461044312,1.1484249830245972,0.861515998840332,0.3592979907989502,0.9881265163421631,0.7577825784683228,0.8939067721366882,0.465823769569397,0.971606433391571,1.2106174230575562,0.8067596554756165,0.36172178387641907,0.9856924414634705,0.8095782995223999,0.6605769395828247,0.5377863645553589,1.0262268781661987,0.9215201139450073,0.8133605718612671,0.39277225732803345,1.0921821594238281,0.4139254689216614,0.7728129029273987
19321.067685792863,0.4526844620704651,0.23207813501358032,-1.0388472080230713,0.9999759197235107,0.4536949098110199,0.20837494730949402,-0.9857314229011536,0.9999499320983887,0.4609159529209137,0.20694896578788757,-0.9857754111289978,0.9999439716339111,0.46784916520118713,0.20559343695640564,-0.9857601523399353,0.9999357461929321,0.42306557297706604,0.21033930778503418,-1.0188195705413818,0.9999591112136841,0.4072670340538025,0.210107684135437,-1.0189881324768066,0.9999557733535767,0.3878495395183563,0.20999211072921753,-1.0190895795822144,0.9999527931213379,0.45513880252838135,0.21206945180892944,-0.6482120752334595,0.9999339580535889,0.33806413412094116,0.21909373998641968,-0.8100700974464417,0.9999605417251587,0.46037814021110535,0.25266698002815247,-0.910616934299469,0.999983549118042,0.4286140203475952,0.25627565383911133,-0.9562147259712219,0.9999892711639404,0.546424388885498,0.34879863262176514,-0.41909390687942505,0.9998682737350464,0.18697991967201233,0.3669299781322479,-0.6453035473823547,0.9998036026954651,0.5914891362190247,0.5129854679107666,-0.19471025466918945,0.9817801117897034,0.14710785448551178,0.5287984609603882,-0.7778053283691406,0.9868790507316589,0.642627477645874,0.6473519802093506,-0.4474717080593109,0.9813960194587708,0.2954571545124054,0.5475354790687561,-1.1767271757125854,0.9692853093147278,0.6568877696990967,0.6911658048629761,-0.5377821326255798,0.9643183350563049,0.349018394947052,0.5523796677589417,-1.2911384105682373,0.9521470665931702,0.6414121389389038,0.690584123134613,-0.6296969652175903,0.9666187167167664,0.3504985272884369,0.5267350673675537,-1.333573341369629,0.9523752927780151,0.6307945251464844,0.6804649829864502,-0.48729589581489563,0.9672145247459412,0.3351534903049469,0.5224907398223877,-1.1984513998031616,0.9405983686447144,0.501200795173645,0.6301210522651672,0.08113101124763489,0.9966701865196228,0.32470741868019104,0.6493431329727173,-0.0808209776878357,0.9978787899017334,0.48907193541526794,0.8374713063240051,0.3952118456363678,0.9546478390693665,0.34325170516967773,0.8694761395454407,0.14905938506126404,0.9814283847808838,0.48308151960372925,0.958175778388977,1.1227842569351196,0.8895953297615051,0.3569979965686798,0.9848315119743347,0.7534092664718628,0.9202628135681152,0.45922571420669556,0.9716006517410278,1.176302433013916,0.8335212469100952,0.35694026947021484,0.985905647277832,0.7996332049369812,0.7077609896659851,0.5424555540084839,1.0193840265274048,0.9031499624252319,0.8540861010551453,0.3870030641555786,1.084717035293579,0.4263199269771576,0.8178800344467163
19337.73435245953,0.44972190260887146,0.22760009765625,-1.021061897277832,0.9999428987503052,0.4522402286529541,0.20464935898780823,-0.9634495973587036,0.9998831748962402,0.4599796235561371,0.20345652103424072,-0.9635749459266663,0.999872088432312,0.46729543805122375,0.20230793952941895,-0.9636265635490417,0.9998573064804077,0.42076945304870605,0.20679345726966858,-0.9942446351051331,0.9999030828475952,0.40445587038993835,0.207028329372406,-0.9944468140602112,0.9998940229415894,0.3852704167366028,0.2074030637741089,-0.9946213960647583,0.9998886585235596,0.45915642380714417,0.2105044424533844,-0.6063287854194641,0.9998471736907959,0.33719658851623535,0.21806472539901733,-0.7563610672950745,0.9999053478240967,0.4595245122909546,0.24913501739501953,-0.8858334422111511,0.9999632835388184,0.4259937107563019,0.25283849239349365,-0.9281487464904785,0.9999758005142212,0.5480548143386841,0.34880319237709045,-0.3657301068305969,0.9998061060905457,0.19525082409381866,0.36607974767684937,-0.5802472233772278,0.9996683597564697,0.5927475690841675,0.5133541822433472,-0.15131260454654694,0.9822577834129333,0.14809338748455048,0.5227895975112915,-0.6852242350578308,0.9828670620918274,0.6403692364692688,0.6496111154556274,-0.43758320808410645,0.9777987599372864,0.29522064328193665,0.5483886003494263,-1.0857564210891724,0.9550949931144714,0.6557484865188599,0.6931562423706055,-0.5358811616897583,0.9581737518310547,0.34732839465141296,0.5520662665367126,-1.1988645792007446,0.9309999942779541,0.6385537385940552,0.6925008296966553,-0.6297242045402527,0.9612667560577393,0.3511887192726135,0.526801586151123,-1.2461074590682983,0.9324127435684204,0.6264423131942749,0.6811025738716125,-0.4788505733013153,0.9620891213417053,0.33620351552963257,0.5234463214874268,-1.1083844900131226,0.9169518947601318,0.5001904368400574,0.6337831020355225,0.08232257515192032,0.9950922727584839,0.3208101987838745,0.6495522856712341,-0.08198338001966476,0.9966378211975098,0.48423129320144653,0.8501461744308472,0.30025938153266907,0.9408267736434937,0.3376947045326233,0.8760567903518677,0.07011435180902481,0.9696823954582214,0.4812711775302887,0.9677859544754028,1.0513089895248413,0.8448246717453003,0.3574734330177307,0.9941832423210144,0.6754504442214966,0.8840649127960205,0.4584871530532837,0.975493848323822,1.105790138244629,0.7740011811256409,0.3563031852245331,0.9916355609893799,0.7201698422431946,0.6101698875427246,0.5355835556983948,1.0342079401016235,0.8074546456336975,0.7940319776535034,0.3840012848377228,1.1042672395706177,0.314805805683136,0.760161280632019
19354.4010191262,0.45147189497947693,0.2317522168159485,-1.02255117893219,0.9999464750289917,0.4538985788822174,0.208927184343338,-0.966902494430542,0.9998854398727417,0.46166589856147766,0.20768797397613525,-0.9670205116271973,0.9998719692230225,0.46905824542045593,0.20651307702064514,-0.967079758644104,0.999858021736145,0.42241930961608887,0.21036633849143982,-1.0015552043914795,0.9999066591262817,0.40656521916389465,0.20989888906478882,-1.001778244972229,0.9998973608016968,0.38728201389312744,0.20963194966316223,-1.0019594430923462,0.999893069267273,0.45809435844421387,0.21308207511901855,-0.611916720867157,0.9998517036437988,0.33938756585121155,0.21842741966247559,-0.780596911907196,0.9999129772186279,0.45957162976264954,0.2526826858520508,-0.8868702054023743,0.9999673366546631,0.427440881729126,0.25554561614990234,-0.9346280097961426,0.9999794960021973,0.5431200861930847,0.3485492765903473,-0.36797404289245605,0.9998282194137573,0.18969860672950745,0.36449381709098816,-0.6077008843421936,0.9997535347938538,0.5903987288475037,0.5126675963401794,-0.14074258506298065,0.9812383055686951,0.14601869881153107,0.5264808535575867,-0.7073502540588379,0.9840394854545593,0.6394863128662109,0.6466774940490723,-0.4165038764476776,0.9788511991500854,0.29375961422920227,0.5477771759033203,-1.0891263484954834,0.9570618867874146,0.6558431386947632,0.6893144845962524,-0.5127783417701721,0.9603374600410461,0.3464682996273041,0.5537734031677246,-1.2031164169311523,0.9349502921104431,0.6393334269523621,0.6892786026000977,-0.6082971692085266,0.9633996486663818,0.3520234525203705,0.5273138284683228,-1.2538869380950928,0.9365283250808716,0.6272609829902649,0.6789409518241882,-0.45832911133766174,0.9638047814369202,0.3367535471916199,0.5232787132263184,-1.113129734992981,0.9213812947273254,0.4985020160675049,0.6328694820404053,0.09252353012561798,0.9950537085533142,0.3238772749900818,0.6507860422134399,-0.09228654205799103,0.9967711567878723,0.48563966155052185,0.8471256494522095,0.3583204448223114,0.9374086856842041,0.3382077217102051,0.8823925256729126,0.09145146608352661,0.9712064266204834,0.47848567366600037,0.9595544934272766,1.119625210762024,0.8419348001480103,0.35723933577537537,0.9978330135345459,0.7047052979469299,0.8894149661064148,0.45510077476501465,0.9712256789207458,1.1772410869598389,0.7795810103416443,0.36399319767951965,1.0377343893051147,0.7508837580680847,0.6211503148078918,0.5400882363319397,1.0265693664550781,0.8908450603485107,0.8115799427032471,0.3980890214443207,1.1072869300842285,0.3458726406097412,0.7725988626480103
19371.067685792867,0.45428282022476196,0.228500097990036,-0.994939923286438,0.9999473094940186,0.4550573527812958,0.20604175329208374,-0.9373020529747009,0.9998950958251953,0.46231770515441895,0.2049238085746765,-0.9374353289604187,0.9998822212219238,0.46916770935058594,0.20393747091293335,-0.9375039935112,0.9998691082000732,0.42460793256759644,0.2074114978313446,-0.9729819893836975,0.9999147653579712,0.4088226556777954,0.2072344422340393,-0.9731759428977966,0.9999063014984131,0.3892620801925659,0.20721927285194397,-0.9733424782752991,0.9999027252197266,0.4564058780670166,0.2118910849094391,-0.5834579467773438,0.999866247177124,0.33929046988487244,0.21771952509880066,-0.7561661601066589,0.9999222755432129,0.462080717086792,0.249503955245018,-0.8606718182563782,0.9999674558639526,0.4309549331665039,0.2525039315223694,-0.909611165523529,0.9999792575836182,0.5445351004600525,0.35054630041122437,-0.35247164964675903,0.9998200535774231,0.18610602617263794,0.36728769540786743,-0.5852929353713989,0.9997088313102722,0.5919497609138489,0.5123516321182251,-0.13530182838439941,0.9804286360740662,0.1464349329471588,0.5272659063339233,-0.7124388813972473,0.9841145277023315,0.6407321691513062,0.6456080675125122,-0.41557446122169495,0.9775775074958801,0.28855326771736145,0.5483351945877075,-1.1287896633148193,0.9622181057929993,0.6568013429641724,0.6892768144607544,-0.5121285915374756,0.9578776955604553,0.34251898527145386,0.5541502237319946,-1.2447009086608887,0.9421865344047546,0.6407075524330139,0.6891294121742249,-0.6057979464530945,0.9610817432403564,0.3471706807613373,0.5277361273765564,-1.293454885482788,0.943528413772583,0.6286917924880981,0.6788992881774902,-0.45705199241638184,0.9616380333900452,0.3314138948917389,0.5235614776611328,-1.1527345180511475,0.9296493530273438,0.49964281916618347,0.6343173384666443,0.08212639391422272,0.9957345128059387,0.32187196612358093,0.6521288156509399,-0.08180934935808182,0.9970510005950928,0.4837583303451538,0.8526225090026855,0.3245609998703003,0.9438799023628235,0.3402606248855591,0.8801490068435669,0.09249033778905869,0.9672873616218567,0.47954800724983215,0.9680895805358887,1.0778017044067383,0.8421837091445923,0.36016562581062317,0.9949178099632263,0.7114730477333069,0.8723331093788147,0.4563002288341522,0.9748049378395081,1.132975697517395,0.7721238136291504,0.37299296259880066,1.0334992408752441,0.758015513420105,0.5991665720939636,0.5356716513633728,1.0339202880859375,0.8378697633743286,0.7950190901756287,0.3872056007385254,1.1018667221069336,0.35777977108955383,0.7477725148200989
19387.734352459534,0.45738065242767334,0.22656136751174927,-1.0014227628707886,0.9999411106109619,0.45705655217170715,0.20368367433547974,-0.9415640830993652,0.9998834133148193,0.4638216495513916,0.20259961485862732,-0.9416839480400085,0.9998689889907837,0.47026705741882324,0.20169514417648315,-0.9417407512664795,0.999854326248169,0.4273507595062256,0.2052392065525055,-0.980339765548706,0.9999035596847534,0.41184452176094055,0.20527222752571106,-0.9805277585983276,0.9998935461044312,0.39291584491729736,0.20539098978042603,-0.9806968569755554,0.9998875856399536,0.4561747908592224,0.21028050780296326,-0.5838735103607178,0.9998506307601929,0.3432042598724365,0.21613973379135132,-0.7700949311256409,0.9999071359634399,0.4647347927093506,0.24736391007900238,-0.8663439750671387,0.9999639987945557,0.43422308564186096,0.25072234869003296,-0.9191514849662781,0.9999758005142212,0.5457149744033813,0.35031673312187195,-0.3522357940673828,0.9998027682304382,0.18711645901203156,0.36686578392982483,-0.6081688404083252,0.9996204376220703,0.5932351350784302,0.5149670243263245,-0.13112559914588928,0.9797358512878418,0.14855554699897766,0.528436541557312,-0.7304202914237976,0.980937659740448,0.6405330300331116,0.6479982137680054,-0.4099538028240204,0.9764674305915833,0.2947864830493927,0.5503774881362915,-1.1272320747375488,0.9572234153747559,0.6566282510757446,0.6917315721511841,-0.5070444941520691,0.9560356736183167,0.34865644574165344,0.5556172132492065,-1.2432925701141357,0.9366573095321655,0.6394116878509521,0.6910309791564941,-0.6002716422080994,0.9592859148979187,0.35391125082969666,0.5299170613288879,-1.2924586534500122,0.9379860162734985,0.6268109679222107,0.680555522441864,-0.451460599899292,0.960218608379364,0.33857133984565735,0.5255743861198425,-1.1510111093521118,0.922607958316803,0.5031862854957581,0.6352548599243164,0.08721085637807846,0.9959753155708313,0.3221368193626404,0.6534643769264221,-0.0868586003780365,0.9970955848693848,0.4874266982078552,0.8481420278549194,0.3021283745765686,0.9495018720626831,0.34002864360809326,0.8792122602462769,0.0811467170715332,0.9677355885505676,0.4823019206523895,0.9654399752616882,1.1256523132324219,0.8509772419929504,0.35993534326553345,0.9917066693305969,0.750554621219635,0.8855739235877991,0.4610830545425415,0.9741964936256409,1.1878029108047485,0.7901228666305542,0.37623870372772217,1.026336431503296,0.8021491765975952,0.6243076324462891,0.5333119630813599,1.031286358833313,0.8967819213867188,0.803844690322876,0.38098272681236267,1.0967683792114258,0.402282178401947,0.7682854533195496
19404.401019126202,0.45715105533599854,0.22722172737121582,-0.9728792309761047,0.999940037727356,0.45707225799560547,0.204410582780838,-0.9136210083961487,0.999880313873291,0.46387556195259094,0.2032856047153473,-0.9137284159660339,0.9998651742935181,0.4703769087791443,0.20233741402626038,-0.9137721657752991,0.9998514652252197,0.4274870753288269,0.2061205506324768,-0.952704906463623,0.9999041557312012,0.4120093882083893,0.20617610216140747,-0.9528942108154297,0.9998949766159058,0.3930054008960724,0.20628926157951355,-0.9530855417251587,0.9998904466629028,0.4562946557998657,0.21092507243156433,-0.5615100264549255,0.999843955039978,0.34305453300476074,0.21681475639343262,-0.7499069571495056,0.9999074935913086,0.46411970257759094,0.24810318648815155,-0.8402355909347534,0.9999631643295288,0.4337804615497589,0.25147441029548645,-0.8936851024627686,0.9999765157699585,0.5470415949821472,0.3500990867614746,-0.33308300375938416,0.9997977614402771,0.18926957249641418,0.3652012050151825,-0.5900877118110657,0.9996578693389893,0.594399631023407,0.5142044425010681,-0.11279430240392685,0.9807060956954956,0.1510169953107834,0.5264994502067566,-0.7153915762901306,0.982029378414154,0.6422150135040283,0.6474148035049438,-0.39080551266670227,0.9779912233352661,0.2840409278869629,0.5486294627189636,-1.1172304153442383,0.9580467939376831,0.6570723056793213,0.6903953552246094,-0.4868692457675934,0.9580928683280945,0.33865952491760254,0.5564730763435364,-1.2314980030059814,0.9376515746116638,0.640155553817749,0.689446747303009,-0.580043375492096,0.9615693688392639,0.34510284662246704,0.5303712487220764,-1.282063364982605,0.9392861723899841,0.6282407641410828,0.679125964641571,-0.43215981125831604,0.9619089365005493,0.3286149501800537,0.5254639387130737,-1.1413216590881348,0.9240100979804993,0.5033753514289856,0.6341094374656677,0.08827616274356842,0.9954400062561035,0.32419002056121826,0.6528608202934265,-0.08790178596973419,0.996964156627655,0.48684632778167725,0.843864917755127,0.28681641817092896,0.9455769062042236,0.340185284614563,0.876948356628418,0.056221749633550644,0.9655470252037048,0.48086604475975037,0.9641346335411072,1.0742827653884888,0.8394250869750977,0.35988834500312805,0.9903167486190796,0.6947725415229797,0.8763977885246277,0.45856088399887085,0.9737321734428406,1.1326282024383545,0.7755638360977173,0.3696662485599518,1.0296939611434937,0.7426255941390991,0.6005054712295532,0.5313462018966675,1.0282564163208008,0.8383549451828003,0.7883577346801758,0.3781493306159973,1.0982202291488647,0.33922839164733887,0.7493311762809753
19421.06768579287,0.4532640278339386,0.2302892804145813,-1.0051202774047852,0.9999514818191528,0.45446527004241943,0.20732420682907104,-0.9478440284729004,0.9998998641967773,0.461761474609375,0.2060883641242981,-0.9479613304138184,0.9998891353607178,0.46871617436408997,0.20498687028884888,-0.9479972720146179,0.9998743534088135,0.4239588677883148,0.20898383855819702,-0.9834170341491699,0.9999186992645264,0.4082917869091034,0.208831787109375,-0.9836215972900391,0.9999115467071533,0.38897034525871277,0.20887073874473572,-0.9837917685508728,0.9999058246612549,0.45660048723220825,0.21263974905014038,-0.5928382873535156,0.9998736381530762,0.3390161395072937,0.21880170702934265,-0.7663629651069641,0.9999232292175293,0.4609598219394684,0.2511240541934967,-0.8703948855400085,0.9999697208404541,0.42947959899902344,0.254312664270401,-0.9195841550827026,0.9999805688858032,0.5444445013999939,0.3508005142211914,-0.3613685965538025,0.9998276233673096,0.18722732365131378,0.36815205216407776,-0.5919453501701355,0.999714195728302,0.5930631160736084,0.5131458044052124,-0.1322765350341797,0.9821142554283142,0.1484558880329132,0.5264965295791626,-0.7173398733139038,0.9834648370742798,0.6396211385726929,0.6460272669792175,-0.40205684304237366,0.9807634353637695,0.2864018678665161,0.547440230846405,-1.1339478492736816,0.9592624306678772,0.65559983253479,0.6895816326141357,-0.4965851306915283,0.963226318359375,0.3403623402118683,0.5553677082061768,-1.2502390146255493,0.9387273192405701,0.6402149200439453,0.6897166967391968,-0.5905903577804565,0.9660594463348389,0.3471324145793915,0.5281857252120972,-1.2995644807815552,0.940065324306488,0.6285814046859741,0.6793322563171387,-0.44288501143455505,0.9661744832992554,0.3304590880870819,0.5240997672080994,-1.1581809520721436,0.9253296256065369,0.5006723999977112,0.6351929306983948,0.08112068474292755,0.9956278800964355,0.3234558403491974,0.6518133282661438,-0.08084087818861008,0.9970431923866272,0.483818918466568,0.8483563661575317,0.3590981960296631,0.9489747881889343,0.3393454849720001,0.8792785406112671,0.11773351579904556,0.9708124399185181,0.4813075363636017,0.960999071598053,1.1340664625167847,0.8593981862068176,0.3598322570323944,0.9956346154212952,0.7507834434509277,0.8879730701446533,0.4586254358291626,0.9722997546195984,1.192405104637146,0.7966118454933167,0.3713921010494232,1.0327099561691284,0.7989934086799622,0.6253297328948975,0.5375828146934509,1.0267318487167358,0.902001142501831,0.8228559494018555,0.3901011347770691,1.1023541688919067,0.3965042531490326,0.7711997032165527
19437.734352459538,0.4537861943244934,0.22897157073020935,-1.0124125480651855,0.9999468326568604,0.4552452564239502,0.20678287744522095,-0.9554691314697266,0.9998939037322998,0.4629366397857666,0.2056865394115448,-0.955559492111206,0.9998818635940552,0.47012364864349365,0.20464074611663818,-0.95560222864151,0.9998668432235718,0.4239221513271332,0.20820352435112,-0.9909673929214478,0.999913215637207,0.40831491351127625,0.2078736126422882,-0.9911580085754395,0.9999061822891235,0.3888948857784271,0.20778462290763855,-0.9913113117218018,0.9999005794525146,0.45850870013237,0.21245065331459045,-0.6040326356887817,0.9998589754104614,0.3395366668701172,0.21774503588676453,-0.7764225602149963,0.9999181032180786,0.4616151750087738,0.25060850381851196,-0.879124104976654,0.9999662637710571,0.42957738041877747,0.2538365423679352,-0.927854061126709,0.9999780654907227,0.5458671450614929,0.3486759662628174,-0.3696082532405853,0.9997981190681458,0.19038689136505127,0.36774128675460815,-0.6102393865585327,0.9996658563613892,0.592593252658844,0.5155144333839417,-0.14539416134357452,0.9787203073501587,0.14853104948997498,0.5273135900497437,-0.7250516414642334,0.9814018607139587,0.6398914456367493,0.6483868360519409,-0.41215312480926514,0.9741904735565186,0.2957162857055664,0.5508981943130493,-1.1109760999679565,0.9527978897094727,0.6553314924240112,0.6919447183609009,-0.5053864121437073,0.9524357914924622,0.35419395565986633,0.5560624599456787,-1.223262906074524,0.9302953481674194,0.637765645980835,0.6908754706382751,-0.5971303582191467,0.9560104012489319,0.3587598204612732,0.5313023328781128,-1.2691084146499634,0.9318338632583618,0.6252772808074951,0.6805016398429871,-0.45249438285827637,0.9572613835334778,0.34203457832336426,0.5273260474205017,-1.133133053779602,0.9162522554397583,0.5052932500839233,0.6325569152832031,0.08708589524030685,0.9954541921615601,0.32426512241363525,0.6497758626937866,-0.08675524592399597,0.9968258142471313,0.4874804615974426,0.8451253771781921,0.3126865327358246,0.943548321723938,0.3411649763584137,0.8756763935089111,0.08033324778079987,0.9699621200561523,0.4828212559223175,0.96192467212677,1.0961930751800537,0.8470144271850586,0.3576686680316925,0.9883354902267456,0.7153472900390625,0.8868734836578369,0.4599342942237854,0.9719144701957703,1.1547409296035767,0.7863914966583252,0.35908153653144836,0.9861536026000977,0.7638726234436035,0.6279094815254211,0.5346740484237671,1.02913236618042,0.8697697520256042,0.7977414727210999,0.3855351507663727,1.0941346883773804,0.37149444222450256,0.7632122039794922
19454.401019126206,0.4533001780509949,0.2300819456577301,-1.011175274848938,0.9999511241912842,0.4551657736301422,0.2068811058998108,-0.9548008441925049,0.9999040365219116,0.46246537566185,0.20557847619056702,-0.9549176096916199,0.999893307685852,0.46929931640625,0.20443406701087952,-0.9550113677978516,0.9998815059661865,0.4241465926170349,0.2087429165840149,-0.9904036521911621,0.9999195337295532,0.40827396512031555,0.20857909321784973,-0.9905930757522583,0.9999117851257324,0.38885214924812317,0.20852521061897278,-0.99074786901474,0.9999071359634399,0.4569682478904724,0.21192586421966553,-0.602408766746521,0.9998797178268433,0.33940550684928894,0.21806439757347107,-0.7751596570014954,0.9999245405197144,0.46100807189941406,0.25086474418640137,-0.8765639066696167,0.999969482421875,0.42924630641937256,0.2540116310119629,-0.9255727529525757,0.9999796152114868,0.5443898439407349,0.3501191735267639,-0.36983197927474976,0.9998144507408142,0.18635542690753937,0.36661964654922485,-0.5992156863212585,0.9996631145477295,0.5916385650634766,0.5146313905715942,-0.15196706354618073,0.9799178242683411,0.1466602385044098,0.5298997759819031,-0.7164351940155029,0.9816710948944092,0.6391531229019165,0.6482467651367188,-0.42020469903945923,0.9750891327857971,0.2945641279220581,0.5477527379989624,-1.111058235168457,0.9570021629333496,0.6549843549728394,0.6918416023254395,-0.5140550136566162,0.953407883644104,0.34747010469436646,0.5523807406425476,-1.2225569486618042,0.9351221919059753,0.638719379901886,0.6913151144981384,-0.6059074401855469,0.9569342136383057,0.35112130641937256,0.525987982749939,-1.267822027206421,0.9365152716636658,0.6263991594314575,0.6811016201972961,-0.4606974720954895,0.9580779671669006,0.33614447712898254,0.521920919418335,-1.133032202720642,0.9214838147163391,0.5010521411895752,0.6324893236160278,0.07993209362030029,0.9951024055480957,0.31938743591308594,0.6505593061447144,-0.07960063964128494,0.9964094758033752,0.48400336503982544,0.8520714044570923,0.27611324191093445,0.9402015805244446,0.339537113904953,0.8783919811248779,0.0634150430560112,0.9638004899024963,0.48194050788879395,0.9694727063179016,1.0375217199325562,0.8260387778282166,0.3597898483276367,0.9953352212905884,0.6768757700920105,0.8642343878746033,0.46112462878227234,0.9765932559967041,1.0933620929718018,0.7538600564002991,0.35789090394973755,0.9926013946533203,0.7229417562484741,0.5809276700019836,0.5321904420852661,1.0364289283752441,0.8009265661239624,0.7685012221336365,0.3881292939186096,1.1012449264526367,0.32476678490638733,0.7300263047218323
19471.067685792874,0.45194289088249207,0.2314264178276062,-1.0222442150115967,0.9999489784240723,0.4542867839336395,0.2083778977394104,-0.9657943844795227,0.9998979568481445,0.4618781805038452,0.20707497000694275,-0.9659149050712585,0.9998860359191895,0.46908479928970337,0.20587587356567383,-0.9659978151321411,0.9998738765716553,0.42297929525375366,0.21008914709091187,-1.0006027221679688,0.9999158382415771,0.40703269839286804,0.20972511172294617,-1.0008152723312378,0.9999072551727295,0.38767683506011963,0.20950233936309814,-1.0009815692901611,0.9999032020568848,0.4580114185810089,0.21271762251853943,-0.6088853478431702,0.9998688697814941,0.338985800743103,0.21855729818344116,-0.7780208587646484,0.9999185800552368,0.46022656559944153,0.2522015869617462,-0.8858129382133484,0.9999668598175049,0.42816683650016785,0.2552696168422699,-0.9337802529335022,0.9999781847000122,0.5447708964347839,0.34987229108810425,-0.36954832077026367,0.9998087286949158,0.18779151141643524,0.36742880940437317,-0.5989904403686523,0.9996737241744995,0.591554582118988,0.5143496990203857,-0.15644732117652893,0.9800698757171631,0.14733973145484924,0.530744194984436,-0.718222975730896,0.9814683198928833,0.6391630172729492,0.6480440497398376,-0.4359216094017029,0.9747452735900879,0.2950272560119629,0.5481104850769043,-1.1215002536773682,0.9545823335647583,0.6548684239387512,0.6916369795799255,-0.5310444235801697,0.9525593519210815,0.3465336859226227,0.5528188943862915,-1.2343151569366455,0.9311590790748596,0.6392909288406372,0.6912040710449219,-0.6247116923332214,0.956217885017395,0.350485622882843,0.526749312877655,-1.2795209884643555,0.9327133297920227,0.6272246241569519,0.681010901927948,-0.4772374629974365,0.9572346210479736,0.33574092388153076,0.5229803323745728,-1.1434839963912964,0.9168234467506409,0.501495361328125,0.6323823928833008,0.08334542065858841,0.9944414496421814,0.3208230137825012,0.6502160429954529,-0.08302965015172958,0.9961379170417786,0.48316308856010437,0.8538804054260254,0.2795570492744446,0.9341951608657837,0.3404804468154907,0.8795703053474426,0.05212324112653732,0.9623936414718628,0.48036646842956543,0.967506468296051,1.033408761024475,0.8163137435913086,0.3595750629901886,0.9964433312416077,0.656122088432312,0.8629631996154785,0.4590514898300171,0.9746696352958679,1.0884191989898682,0.7449682950973511,0.3726048171520233,1.035810112953186,0.7006314992904663,0.571296751499176,0.5345686078071594,1.0341134071350098,0.7918592691421509,0.7638917565345764,0.3885931670665741,1.1054136753082275,0.2943745255470276,0.7290789484977722
19487.73435245954,0.4547579884529114,0.22775325179100037,-0.9965147972106934,0.9999587535858154,0.4549297094345093,0.205302894115448,-0.9381401538848877,0.9999202489852905,0.4621576964855194,0.20414963364601135,-0.9382357597351074,0.9999103546142578,0.46907415986061096,0.20314627885818481,-0.9382391571998596,0.9998972415924072,0.4243803918361664,0.20677685737609863,-0.9766483306884766,0.9999350309371948,0.4085385501384735,0.20666936039924622,-0.9768299460411072,0.9999302625656128,0.3890354633331299,0.20674288272857666,-0.9770228862762451,0.9999263286590576,0.4552520513534546,0.21139103174209595,-0.5862950086593628,0.9999028444290161,0.33924898505210876,0.2172166109085083,-0.7719889283180237,0.9999415874481201,0.4623582363128662,0.2490246742963791,-0.8637146353721619,0.9999756813049316,0.4307187795639038,0.2525743544101715,-0.9163369536399841,0.9999843835830688,0.5464922785758972,0.34961992502212524,-0.35213637351989746,0.9998295307159424,0.18720948696136475,0.36713680624961853,-0.6057854294776917,0.9997137188911438,0.590745210647583,0.5170495510101318,-0.11220481246709824,0.978950560092926,0.14985378086566925,0.5263863801956177,-0.7581191658973694,0.9842830896377563,0.6408509016036987,0.6497156023979187,-0.3801215887069702,0.9773876070976257,0.2869381308555603,0.5471177101135254,-1.209661602973938,0.9683188199996948,0.6535952091217041,0.6908334493637085,-0.47314468026161194,0.9584448933601379,0.34004056453704834,0.5529032945632935,-1.3283082246780396,0.9525220394134521,0.6376128196716309,0.6902132630348206,-0.5660509467124939,0.961653470993042,0.34057116508483887,0.5246610641479492,-1.376650333404541,0.953416645526886,0.627154529094696,0.6798434257507324,-0.420795738697052,0.9626981616020203,0.32609760761260986,0.5207676887512207,-1.233720302581787,0.9406610131263733,0.5038425326347351,0.6343516707420349,0.0806393250823021,0.9967328310012817,0.32415759563446045,0.6514798402786255,-0.08023345470428467,0.9977322816848755,0.4853143095970154,0.8423834443092346,0.28058284521102905,0.9526351690292358,0.3405512869358063,0.8744451403617859,0.08366506546735764,0.9668658971786499,0.480926513671875,0.9629961848258972,1.100674033164978,0.8613435626029968,0.3601360619068146,0.9907019734382629,0.7503231763839722,0.8818459510803223,0.4610426127910614,0.9721599221229553,1.1620539426803589,0.8039084672927856,0.3627890944480896,0.9911946654319763,0.8017187714576721,0.6371553540229797,0.5279460549354553,1.0284184217453003,0.869040846824646,0.8069077134132385,0.3756977319717407,1.0910395383834839,0.4053121507167816,0.7567883729934692
19504.40101912621,0.4523223638534546,0.23123157024383545,-1.061640977859497,0.9999681711196899,0.4554518759250641,0.20816463232040405,-1.0060451030731201,0.9999312162399292,0.4635851979255676,0.20701977610588074,-1.0061044692993164,0.9999222755432129,0.47131067514419556,0.2060013711452484,-1.006093144416809,0.9999085664749146,0.4228588044643402,0.2094307839870453,-1.0398110151290894,0.9999480247497559,0.4064975678920746,0.20900139212608337,-1.0400128364562988,0.9999443292617798,0.3869873583316803,0.20875146985054016,-1.0401657819747925,0.9999415874481201,0.4602316915988922,0.2129913568496704,-0.6542488932609558,0.9999076128005981,0.3385411202907562,0.2181638479232788,-0.8184292316436768,0.9999538660049438,0.46056777238845825,0.25254026055336,-0.9280704855918884,0.9999783039093018,0.4270859360694885,0.25538238883018494,-0.9744277596473694,0.9999877214431763,0.5422155857086182,0.3495047986507416,-0.40243756771087646,0.9997937083244324,0.18798039853572845,0.3656853437423706,-0.651536226272583,0.9998052716255188,0.5871391892433167,0.5174897909164429,-0.16638454794883728,0.9749147295951843,0.14920467138290405,0.5300149917602539,-0.7699195742607117,0.9861277341842651,0.6383202075958252,0.65057772397995,-0.4192424416542053,0.9693013429641724,0.3012094795703888,0.5496923923492432,-1.1620333194732666,0.9618241786956787,0.6516574621200562,0.6912387013435364,-0.5086861848831177,0.9446088075637817,0.3566133379936218,0.5563785433769226,-1.275986909866333,0.9405274987220764,0.6362193822860718,0.6910368204116821,-0.6004582643508911,0.9482287168502808,0.3593270480632782,0.527470588684082,-1.3211965560913086,0.9409769177436829,0.6258884072303772,0.679820716381073,-0.4592759907245636,0.9502883553504944,0.34386202692985535,0.5234047174453735,-1.1839613914489746,0.9266877174377441,0.49812939763069153,0.6337018013000488,0.09407150000333786,0.9950700998306274,0.3233671188354492,0.650044858455658,-0.09379729628562927,0.9972991347312927,0.48722875118255615,0.8353201746940613,0.3966262936592102,0.943155825138092,0.34084153175354004,0.8720415830612183,0.12108170241117477,0.977786123752594,0.48099350929260254,0.9545223712921143,1.1366524696350098,0.8683766722679138,0.35704439878463745,0.9925272464752197,0.7269870638847351,0.9119662046432495,0.45623278617858887,0.9684179425239563,1.191159963607788,0.8151984214782715,0.3625769317150116,1.0274872779846191,0.7719604969024658,0.6863837838172913,0.5371608138084412,1.0189768075942993,0.9087722897529602,0.8384251594543457,0.39401137828826904,1.0959268808364868,0.3751213550567627,0.8050458431243896
19521.067685792877,0.4495939016342163,0.2315520942211151,-1.05983304977417,0.9999624490737915,0.4528019428253174,0.20733726024627686,-1.0031427145004272,0.9999253749847412,0.4604286253452301,0.2059708535671234,-1.003225564956665,0.9999170303344727,0.46787717938423157,0.20476287603378296,-1.0032451152801514,0.9999046325683594,0.4206792712211609,0.20915502309799194,-1.0376486778259277,0.9999376535415649,0.40430814027786255,0.20909586548805237,-1.0378434658050537,0.9999336004257202,0.3856000006198883,0.20921453833580017,-1.0380314588546753,0.9999282360076904,0.4580337107181549,0.2122318148612976,-0.640760600566864,0.9999066591262817,0.33725592494010925,0.21912047266960144,-0.8083983659744263,0.9999428987503052,0.45825475454330444,0.2529410719871521,-0.9216669201850891,0.9999771118164062,0.424979567527771,0.25602594017982483,-0.9691408276557922,0.9999853372573853,0.545388400554657,0.34909987449645996,-0.3792310655117035,0.9998464584350586,0.18809209764003754,0.36558085680007935,-0.6347370743751526,0.9997410178184509,0.5894950032234192,0.5138537883758545,-0.13776902854442596,0.9795779585838318,0.14979325234889984,0.5245077610015869,-0.7729931473731995,0.9829730987548828,0.6404510736465454,0.6465767621994019,-0.4074932634830475,0.9765315055847168,0.2875208854675293,0.5509166717529297,-1.2091407775878906,0.9580225348472595,0.6536010503768921,0.6896085143089294,-0.5007405281066895,0.9562575817108154,0.34092357754707336,0.5571046471595764,-1.3261096477508545,0.9377225637435913,0.6373486518859863,0.6882507801055908,-0.5935187935829163,0.9598376750946045,0.3458758592605591,0.5315566062927246,-1.3777567148208618,0.9391472935676575,0.6262391209602356,0.6782187819480896,-0.44811227917671204,0.9605085253715515,0.3299599885940552,0.526948869228363,-1.2342532873153687,0.9243444800376892,0.5023227334022522,0.6317890286445618,0.09403757005929947,0.9957950115203857,0.32206252217292786,0.650185763835907,-0.09367568045854568,0.9970827698707581,0.48918402194976807,0.8366749286651611,0.2935762107372284,0.9351074695587158,0.345452219247818,0.8767443895339966,0.05924491584300995,0.9648637175559998,0.4831228256225586,0.964392900466919,1.080835223197937,0.8331344723701477,0.36249586939811707,0.9934963583946228,0.6944248676300049,0.8730601668357849,0.4610879421234131,0.9761515259742737,1.1391884088516235,0.7789393067359924,0.3625008463859558,1.0278375148773193,0.7422813177108765,0.6089381575584412,0.534740149974823,1.026273488998413,0.842047393321991,0.7834134101867676,0.3933393657207489,1.097461462020874,0.33548831939697266,0.7382333278656006
19537.734352459545,0.4576265811920166,0.2316090166568756,-0.9974094033241272,0.9999563694000244,0.4589874744415283,0.20712032914161682,-0.9404899477958679,0.9999115467071533,0.46667855978012085,0.20602458715438843,-0.9405815005302429,0.9998999834060669,0.4738702178001404,0.2050134837627411,-0.9406014680862427,0.9998853206634521,0.42705801129341125,0.20903992652893066,-0.978482723236084,0.9999301433563232,0.4098966121673584,0.2093796730041504,-0.9786794781684875,0.9999247789382935,0.3900638520717621,0.2098791003227234,-0.978826105594635,0.999921441078186,0.45840635895729065,0.21336966753005981,-0.5889107584953308,0.9998806715011597,0.33941933512687683,0.22098439931869507,-0.7725418210029602,0.9999363422393799,0.46598902344703674,0.25181400775909424,-0.8637500405311584,0.999971866607666,0.4333515167236328,0.25525709986686707,-0.9157958626747131,0.9999829530715942,0.5413051247596741,0.3502535820007324,-0.354345440864563,0.9998118281364441,0.18657229840755463,0.37007638812065125,-0.6098438501358032,0.9997453093528748,0.5872561931610107,0.5158583521842957,-0.1381128430366516,0.9760357737541199,0.15151947736740112,0.5303016304969788,-0.7365762591362,0.9832888245582581,0.6366328597068787,0.6486997604370117,-0.4108548164367676,0.972227931022644,0.28927308320999146,0.548686146736145,-1.130897879600525,0.9596846103668213,0.6506463885307312,0.6902025938034058,-0.5036582350730896,0.949177086353302,0.3444131016731262,0.5537173748016357,-1.2454051971435547,0.9395888447761536,0.6347901225090027,0.6896130442619324,-0.5931671857833862,0.9527338147163391,0.3468211591243744,0.525964081287384,-1.2896324396133423,0.9403908252716064,0.6231157183647156,0.6790930032730103,-0.4505248963832855,0.9535327553749084,0.3307327628135681,0.5218169093132019,-1.152652621269226,0.9247131943702698,0.4991222620010376,0.6344117522239685,0.09198180586099625,0.996098518371582,0.3221900761127472,0.6500772833824158,-0.09174022823572159,0.9974608421325684,0.4839616119861603,0.8402490615844727,0.38553833961486816,0.9471614956855774,0.33965003490448,0.870540976524353,0.1212325319647789,0.9753575921058655,0.4793398380279541,0.9574833512306213,1.1384475231170654,0.8759824633598328,0.3578479588031769,0.9905291795730591,0.7477530837059021,0.9066251516342163,0.45650172233581543,0.9695705771446228,1.1948411464691162,0.8172245621681213,0.36106938123703003,1.0219237804412842,0.7957305312156677,0.6628655195236206,0.5382498502731323,1.0204286575317383,0.9147773385047913,0.8485292792320251,0.3888496160507202,1.0908563137054443,0.4071144163608551,0.8053592443466187
19554.401019126213,0.45264720916748047,0.23133498430252075,-1.0442067384719849,0.9999687671661377,0.4559410512447357,0.20786386728286743,-0.9868724942207336,0.9999356269836426,0.46417558193206787,0.20668551325798035,-0.9869462251663208,0.9999285936355591,0.47200876474380493,0.20561769604682922,-0.986946702003479,0.9999167919158936,0.4227537214756012,0.20938247442245483,-1.0197482109069824,0.9999492168426514,0.40606769919395447,0.20911341905593872,-1.0199509859085083,0.9999456405639648,0.3864513635635376,0.20901957154273987,-1.020093321800232,0.9999417066574097,0.46177253127098083,0.21288520097732544,-0.6300293207168579,0.9999161958694458,0.33779609203338623,0.21843719482421875,-0.7911757230758667,0.9999513626098633,0.4613933563232422,0.25247442722320557,-0.9094081521034241,0.9999783039093018,0.4273723363876343,0.25527191162109375,-0.9549053311347961,0.9999865293502808,0.5420897603034973,0.3496412932872772,-0.389244019985199,0.9998021721839905,0.18820199370384216,0.36673682928085327,-0.6154756546020508,0.9997455477714539,0.586951494216919,0.51761794090271,-0.1649738848209381,0.9764716029167175,0.15251100063323975,0.527267336845398,-0.7559589743614197,0.9821632504463196,0.6370503902435303,0.6479201912879944,-0.42434802651405334,0.9712528586387634,0.2890421152114868,0.5456727147102356,-1.1825354099273682,0.9537822008132935,0.6521996259689331,0.6898515224456787,-0.5135573148727417,0.9476255774497986,0.3425597846508026,0.550836443901062,-1.297111988067627,0.9305632710456848,0.6350375413894653,0.6898126602172852,-0.6050314903259277,0.9510241150856018,0.34609875082969666,0.521970808506012,-1.3402812480926514,0.9310275912284851,0.622421383857727,0.6792657971382141,-0.4638362228870392,0.9525886178016663,0.32973793148994446,0.5165891647338867,-1.2046345472335815,0.9149961471557617,0.501552402973175,0.6333997845649719,0.08903365582227707,0.9953267574310303,0.32484200596809387,0.6501424908638,-0.08877207338809967,0.9971920847892761,0.4848508834838867,0.8404350280761719,0.3606441915035248,0.9455560445785522,0.3393230438232422,0.8713294267654419,0.10149665176868439,0.9767034649848938,0.47955960035324097,0.9601929783821106,1.0912890434265137,0.8752317428588867,0.3610840439796448,0.995669424533844,0.6967222690582275,0.9108923673629761,0.4558063745498657,0.9731385111808777,1.144187331199646,0.8173913359642029,0.36592793464660645,1.028398036956787,0.7401573657989502,0.6709733009338379,0.5401285886764526,1.0210373401641846,0.8562990427017212,0.8412982821464539,0.39216065406799316,1.0973384380340576,0.3409512937068939,0.8029455542564392
19571.06768579288,0.4535840153694153,0.23076006770133972,-1.0057321786880493,0.9999599456787109,0.4555314779281616,0.20693784952163696,-0.9477865099906921,0.9999196529388428,0.4635360538959503,0.20571750402450562,-0.9478850364685059,0.9999111890792847,0.47114697098731995,0.20465761423110962,-0.9479086995124817,0.9998984336853027,0.422868013381958,0.2090165913105011,-0.983108401298523,0.9999349117279053,0.40613704919815063,0.2092789113521576,-0.983314037322998,0.9999300241470337,0.3864714205265045,0.20970162749290466,-0.9834656119346619,0.9999241828918457,0.4584302306175232,0.212866872549057,-0.5924370288848877,0.9999001026153564,0.3375053107738495,0.22010308504104614,-0.7644505500793457,0.9999375343322754,0.4628162980079651,0.25151410698890686,-0.8713990449905396,0.999974250793457,0.42887869477272034,0.2548251152038574,-0.9200736880302429,0.9999829530715942,0.5399187803268433,0.3506943881511688,-0.3570784330368042,0.9998114705085754,0.18971772491931915,0.3693193793296814,-0.5946823954582214,0.9996984004974365,0.5889477729797363,0.5169751048088074,-0.13569772243499756,0.9779748916625977,0.1580476462841034,0.5286227464675903,-0.7301057577133179,0.9785518050193787,0.6380120515823364,0.649061918258667,-0.3982541561126709,0.9737633466720581,0.2844928801059723,0.5487266778945923,-1.1506237983703613,0.946161150932312,0.6509121060371399,0.6904276013374329,-0.48842233419418335,0.9514920711517334,0.34076982736587524,0.5558971166610718,-1.2647747993469238,0.9227493405342102,0.6343750357627869,0.6902883052825928,-0.5785025358200073,0.9551069736480713,0.3440496027469635,0.5269591212272644,-1.3113610744476318,0.9240813255310059,0.6229297518730164,0.6793378591537476,-0.43730801343917847,0.9560044407844543,0.3270852267742157,0.5227547883987427,-1.1741427183151245,0.9068373441696167,0.5030065178871155,0.6331415176391602,0.08942332863807678,0.9953600764274597,0.3274165391921997,0.6500502228736877,-0.08916554600000381,0.9970096349716187,0.4843235909938812,0.8399211764335632,0.35872238874435425,0.9389307498931885,0.3402005136013031,0.8696852922439575,0.1020209863781929,0.9698194861412048,0.47990667819976807,0.9568138718605042,1.1006901264190674,0.8539652824401855,0.358284592628479,0.9926649332046509,0.7084051370620728,0.8899070024490356,0.45655807852745056,0.9703527092933655,1.1555248498916626,0.7931399345397949,0.35955217480659485,1.0285956859588623,0.7533069849014282,0.6255743503570557,0.5402297973632812,1.0194050073623657,0.87005215883255,0.8189687728881836,0.38711121678352356,1.0968791246414185,0.35504990816116333,0.7694903016090393
19587.73435245955,0.4528071880340576,0.23333591222763062,-1.0626224279403687,0.9999741315841675,0.4545348882675171,0.21009838581085205,-1.0072200298309326,0.9999456405639648,0.4620737135410309,0.20869281888008118,-1.0072648525238037,0.9999390840530396,0.4692680835723877,0.20730480551719666,-1.0072485208511353,0.9999279975891113,0.4235241413116455,0.21190145611763,-1.042096734046936,0.999957799911499,0.407586008310318,0.21148037910461426,-1.0422766208648682,0.9999551773071289,0.3884962499141693,0.2112026810646057,-1.0424162149429321,0.9999518394470215,0.4563814103603363,0.2139016091823578,-0.6537781357765198,0.9999295473098755,0.3390811085700989,0.2197892665863037,-0.8229076266288757,0.999962329864502,0.4603871703147888,0.25434207916259766,-0.9278914928436279,0.9999827146530151,0.4282238483428955,0.2577807903289795,-0.9757234454154968,0.9999897480010986,0.5421940088272095,0.3487517833709717,-0.4023468792438507,0.9998462200164795,0.18724222481250763,0.3675927519798279,-0.6499632596969604,0.9997971653938293,0.5879513621330261,0.5150033831596375,-0.15949846804141998,0.9796608686447144,0.1474388986825943,0.5314092636108398,-0.7813050150871277,0.9857615232467651,0.6408272981643677,0.6468960642814636,-0.41270676255226135,0.976608395576477,0.29870131611824036,0.5489752292633057,-1.1918416023254395,0.9642552733421326,0.6545363664627075,0.6896114349365234,-0.5027917623519897,0.9562129974365234,0.35720983147621155,0.554044246673584,-1.3079406023025513,0.9448630213737488,0.6381641030311584,0.6884328126907349,-0.5954917669296265,0.9592695832252502,0.3583468198776245,0.5256440043449402,-1.354166030883789,0.9452160596847534,0.6277771592140198,0.6773216724395752,-0.45288461446762085,0.959895670413971,0.3379717171192169,0.5217866897583008,-1.2145715951919556,0.9309238791465759,0.5010182857513428,0.6304730176925659,0.08771451562643051,0.9960733652114868,0.3258837163448334,0.6493344902992249,-0.08737184852361679,0.997654378414154,0.4878689646720886,0.832556426525116,0.3669954240322113,0.957599401473999,0.34322404861450195,0.8689725995063782,0.12142791599035263,0.9804917573928833,0.4807215631008148,0.954918622970581,1.1252917051315308,0.8953706622123718,0.3575543165206909,0.9905970692634583,0.7426100373268127,0.9249837398529053,0.4582560658454895,0.9698696732521057,1.1811480522155762,0.8438198566436768,0.36032775044441223,0.9919026494026184,0.789314866065979,0.71664959192276,0.5361207723617554,1.0197619199752808,0.8960071206092834,0.8607591986656189,0.3897281289100647,1.0868991613388062,0.3975394666194916,0.8256354331970215
19604.401019126217,0.4552153944969177,0.22907793521881104,-0.9881371855735779,0.9999645948410034,0.45499715209007263,0.2060176432132721,-0.9305720925331116,0.9999254941940308,0.4617881178855896,0.20467892289161682,-0.9306492209434509,0.9999164342880249,0.4683558940887451,0.2035028040409088,-0.9306213855743408,0.9999030828475952,0.4250079095363617,0.20803341269493103,-0.9672456979751587,0.999943733215332,0.40934744477272034,0.2080722153186798,-0.9674456715583801,0.999940037727356,0.3901105523109436,0.20824578404426575,-0.9676162600517273,0.9999377727508545,0.453914076089859,0.21126917004585266,-0.5860001444816589,0.9998973608016968,0.34089410305023193,0.2184995710849762,-0.7625525593757629,0.9999504089355469,0.46289554238319397,0.24968408048152924,-0.8586624264717102,0.999976634979248,0.43202540278434753,0.2533724308013916,-0.908552348613739,0.9999866485595703,0.5427738428115845,0.34902533888816833,-0.3489832878112793,0.9998108744621277,0.192180335521698,0.3675423562526703,-0.6141163110733032,0.9998151659965515,0.5881096124649048,0.5152469873428345,-0.1272895783185959,0.9767048358917236,0.15266065299510956,0.5299893021583557,-0.7287325859069824,0.9880619049072266,0.6352414488792419,0.6454390287399292,-0.4028371274471283,0.9741084575653076,0.2990529239177704,0.5506707429885864,-1.1118569374084473,0.9704214334487915,0.6503399014472961,0.6883512139320374,-0.49664679169654846,0.9522603154182434,0.347805917263031,0.5580894947052002,-1.226203203201294,0.9528393745422363,0.6348651051521301,0.6885032057762146,-0.587489128112793,0.9556825757026672,0.3512503504753113,0.5300042629241943,-1.2731810808181763,0.9534202218055725,0.6237315535545349,0.6772494316101074,-0.4432770013809204,0.9564528465270996,0.33685022592544556,0.5257976055145264,-1.1340237855911255,0.9407771825790405,0.49939703941345215,0.6330006718635559,0.09937489777803421,0.9952670335769653,0.32721424102783203,0.6522592902183533,-0.09910428524017334,0.9973836541175842,0.48574042320251465,0.8350656032562256,0.3909245729446411,0.9408125281333923,0.3408060371875763,0.869003176689148,0.10269886255264282,0.9761812686920166,0.4802221953868866,0.9554492235183716,1.1206873655319214,0.8663561940193176,0.3572218418121338,0.990582287311554,0.7021301984786987,0.9067646861076355,0.45611703395843506,0.9704505205154419,1.1738672256469727,0.8118658661842346,0.3590410351753235,1.0274553298950195,0.7464407682418823,0.6709814071655273,0.5419132709503174,1.019486427307129,0.8924527168273926,0.8371921181678772,0.3934667706489563,1.0954664945602417,0.3524410128593445,0.8007782697677612
19621.067685792885,0.4522923529148102,0.22860318422317505,-1.0277202129364014,0.9999698400497437,0.45412006974220276,0.2063497006893158,-0.9727921485900879,0.9999366998672485,0.46201667189598083,0.20513811707496643,-0.9728648662567139,0.999930739402771,0.46941667795181274,0.20405671000480652,-0.9728606343269348,0.9999195337295532,0.42210182547569275,0.20812034606933594,-1.0048422813415527,0.9999504089355469,0.40605857968330383,0.20804649591445923,-1.005050778388977,0.9999476671218872,0.38650593161582947,0.20818835496902466,-1.0052063465118408,0.9999440908432007,0.45931074023246765,0.21220245957374573,-0.6291856169700623,0.9999179840087891,0.3383380174636841,0.21850302815437317,-0.7861746549606323,0.9999533891677856,0.46109285950660706,0.24986882507801056,-0.8975858092308044,0.9999796152114868,0.42806515097618103,0.25352632999420166,-0.941872239112854,0.9999874830245972,0.544775128364563,0.3488259017467499,-0.3946325182914734,0.9998223185539246,0.18750280141830444,0.3685742914676666,-0.61688232421875,0.9997722506523132,0.5886521339416504,0.5155895948410034,-0.17041096091270447,0.9799847602844238,0.15552732348442078,0.5281599164009094,-0.7451452612876892,0.9850118160247803,0.636650562286377,0.6484875679016113,-0.4267408847808838,0.9753631949424744,0.2970486879348755,0.5492519736289978,-1.154281735420227,0.9603214859962463,0.6516541838645935,0.6916431784629822,-0.5177287459373474,0.953920304775238,0.3536038100719452,0.5546376705169678,-1.2670191526412964,0.9391666054725647,0.6351999044418335,0.6917309165000916,-0.6075865030288696,0.9571169018745422,0.35571786761283875,0.5266488790512085,-1.3110253810882568,0.9396952986717224,0.6233348250389099,0.680255115032196,-0.46560660004615784,0.9583863615989685,0.3354950249195099,0.5224683284759521,-1.1759562492370605,0.9253760576248169,0.5015495419502258,0.6312094330787659,0.08217217028141022,0.995229959487915,0.3244587182998657,0.648906946182251,-0.08186962455511093,0.99716717004776,0.486050009727478,0.8405795693397522,0.3533054292201996,0.9441479444503784,0.3419298529624939,0.8710680603981018,0.10575081408023834,0.9748938679695129,0.4797099828720093,0.9612246751785278,1.0624364614486694,0.866701602935791,0.360455721616745,0.9929553866386414,0.6803702116012573,0.9031517505645752,0.45710790157318115,0.9727123379707336,1.1134216785430908,0.8038107752799988,0.3647325932979584,1.0315356254577637,0.7219668030738831,0.6569253206253052,0.5382064580917358,1.0258607864379883,0.8281795978546143,0.8259298801422119,0.3896929621696472,1.1005386114120483,0.3265801966190338,0.7858608961105347
19637.734352459553,0.45448553562164307,0.2315138876438141,-0.9941608309745789,0.9999656677246094,0.4563692510128021,0.20856544375419617,-0.9363813996315002,0.9999315738677979,0.4641750156879425,0.20728608965873718,-0.9365089535713196,0.9999217987060547,0.4714372456073761,0.20611625909805298,-0.9365867972373962,0.9999126195907593,0.42401769757270813,0.21032372117042542,-0.971915066242218,0.9999403953552246,0.407505065202713,0.20992884039878845,-0.9720751047134399,0.9999333620071411,0.3873452842235565,0.20970895886421204,-0.9721928834915161,0.9999301433563232,0.4587331712245941,0.2128453254699707,-0.5799227952957153,0.999907374382019,0.33792588114738464,0.2184646725654602,-0.7527132034301758,0.9999401569366455,0.46241986751556396,0.2519952654838562,-0.8585712909698486,0.9999775886535645,0.42956262826919556,0.2553715407848358,-0.9074895977973938,0.999984860420227,0.5426422357559204,0.3494979739189148,-0.34928974509239197,0.9998617172241211,0.18537381291389465,0.368584007024765,-0.5796995759010315,0.9997151494026184,0.5876249670982361,0.5135854482650757,-0.13788223266601562,0.9797810316085815,0.15414869785308838,0.5300228595733643,-0.7079417705535889,0.9809526801109314,0.6384191513061523,0.6474241614341736,-0.4272400140762329,0.9780775308609009,0.2883499562740326,0.5480033755302429,-1.1276776790618896,0.9613734483718872,0.6541934609413147,0.6902185082435608,-0.5247710943222046,0.959328830242157,0.3410339653491974,0.5530309081077576,-1.2458679676055908,0.9427549242973328,0.6388252377510071,0.6901553869247437,-0.618689239025116,0.9623255133628845,0.34407103061676025,0.526558518409729,-1.2915818691253662,0.9441091418266296,0.6265664100646973,0.6801123023033142,-0.4691011607646942,0.9629665017127991,0.32836467027664185,0.5221495628356934,-1.1507723331451416,0.9299640655517578,0.49979692697525024,0.6347386837005615,0.08371704816818237,0.996921181678772,0.3223380446434021,0.6523194909095764,-0.08345898240804672,0.9975384473800659,0.48592156171798706,0.850053608417511,0.29867398738861084,0.9524444937705994,0.34087881445884705,0.8789440393447876,0.08199402689933777,0.9728689193725586,0.4846523106098175,0.9614284038543701,1.1097691059112549,0.8673696517944336,0.3597973585128784,0.9917986989021301,0.7392881512641907,0.9025240540504456,0.4636821746826172,0.9714797139167786,1.171244502067566,0.8045210242271423,0.35955286026000977,0.9898952841758728,0.7903578877449036,0.6531604528427124,0.5397342443466187,1.0304539203643799,0.8849843740463257,0.8275541067123413,0.3893336057662964,1.0955806970596313,0.39645081758499146,0.7985818386077881
19654.40101912622,0.4545557498931885,0.2281213104724884,-0.9506786465644836,0.9999611377716064,0.45615503191947937,0.2062000036239624,-0.8907049894332886,0.9999252557754517,0.46393775939941406,0.205246239900589,-0.8908409476280212,0.9999163150787354,0.47125905752182007,0.2043580710887909,-0.8908902406692505,0.9999070167541504,0.42422258853912354,0.2072342336177826,-0.9266970753669739,0.9999351501464844,0.40819454193115234,0.20672208070755005,-0.9268870949745178,0.9999288320541382,0.38862431049346924,0.20647075772285461,-0.9270477294921875,0.9999250173568726,0.46042734384536743,0.21231797337532043,-0.5419426560401917,0.9999040365219116,0.33937227725982666,0.21627730131149292,-0.7168341875076294,0.9999370574951172,0.4625222980976105,0.24931120872497559,-0.8201865553855896,0.999976634979248,0.4298592209815979,0.2526295483112335,-0.8696776032447815,0.9999839067459106,0.5454519987106323,0.34956637024879456,-0.3287501335144043,0.999839186668396,0.18945613503456116,0.36888688802719116,-0.5638800263404846,0.9996953010559082,0.5900190472602844,0.5132290124893188,-0.12576724588871002,0.9796858429908752,0.15966017544269562,0.5268351435661316,-0.6990299820899963,0.9802431464195251,0.6369311809539795,0.6472086906433105,-0.41489219665527344,0.9780223369598389,0.2863408327102661,0.5499779582023621,-1.121396541595459,0.9579230546951294,0.6520746350288391,0.6899054050445557,-0.5135430693626404,0.9596484899520874,0.33957475423812866,0.5573581457138062,-1.2387727499008179,0.939822793006897,0.6376235485076904,0.6903021931648254,-0.6045284271240234,0.9626993536949158,0.3462296724319458,0.5314781665802002,-1.2887680530548096,0.9413726329803467,0.6260858774185181,0.679701566696167,-0.45579373836517334,0.9635025858879089,0.3295958340167999,0.5269290804862976,-1.1464871168136597,0.9277716875076294,0.4994509220123291,0.6318214535713196,0.0831802636384964,0.996648371219635,0.32344216108322144,0.6494511365890503,-0.08290290832519531,0.9974852800369263,0.4840969145298004,0.846215009689331,0.2946639955043793,0.9462880492210388,0.3379579484462738,0.8768932819366455,0.07835399359464645,0.9683420658111572,0.4798716604709625,0.9588674902915955,1.0855662822723389,0.8561261892318726,0.3567197620868683,0.9913613796234131,0.7163264751434326,0.8881118297576904,0.4577971398830414,0.9716880321502686,1.1452386379241943,0.7945256233215332,0.37163466215133667,1.0270569324493408,0.7650320529937744,0.6245871782302856,0.5370894074440002,1.0294189453125,0.8617574572563171,0.8143535852432251,0.38850340247154236,1.0975909233093262,0.37010765075683594,0.771929919719696
19671.06768579289,0.45346155762672424,0.2303667664527893,-0.9779362678527832,0.999955415725708,0.45522233843803406,0.2073296308517456,-0.918819010257721,0.9999125003814697,0.46316155791282654,0.20601511001586914,-0.9189556241035461,0.9998993873596191,0.4706847667694092,0.20486772060394287,-0.9190146923065186,0.9998868703842163,0.4226043224334717,0.20918187499046326,-0.9544469118118286,0.9999268054962158,0.40622442960739136,0.20892536640167236,-0.9546406269073486,0.999919056892395,0.38636642694473267,0.20883002877235413,-0.9548052549362183,0.9999158382415771,0.4600733816623688,0.2120349407196045,-0.5601539611816406,0.9998828172683716,0.3382166922092438,0.21813279390335083,-0.7333298921585083,0.9999325275421143,0.4625198543071747,0.2509361505508423,-0.8422264456748962,0.999972939491272,0.42899924516677856,0.25446081161499023,-0.8912136554718018,0.999982476234436,0.5443103909492493,0.35020557045936584,-0.32811444997787476,0.9998360872268677,0.1868566870689392,0.3692174255847931,-0.5649994611740112,0.9997180104255676,0.5889389514923096,0.5157551765441895,-0.11514654755592346,0.9790937304496765,0.15358902513980865,0.5301046967506409,-0.6943609118461609,0.9812384843826294,0.6358156204223633,0.6496537923812866,-0.40866535902023315,0.9760319590568542,0.2834785580635071,0.5490425229072571,-1.1208692789077759,0.9589627385139465,0.6508011817932129,0.6924656629562378,-0.506718635559082,0.9563826322555542,0.3387066423892975,0.555436909198761,-1.237430453300476,0.9400443434715271,0.634128212928772,0.6927832365036011,-0.5996617674827576,0.9597135186195374,0.34304162859916687,0.5287139415740967,-1.2877134084701538,0.9418614506721497,0.6222670674324036,0.6817217469215393,-0.45013976097106934,0.9608165621757507,0.32631397247314453,0.5240613222122192,-1.1454483270645142,0.9280323386192322,0.5030592083930969,0.6356137990951538,0.08656775206327438,0.9964298605918884,0.32398882508277893,0.6528830528259277,-0.08628189563751221,0.9973278045654297,0.48301541805267334,0.854181170463562,0.27452123165130615,0.9413467049598694,0.3383708894252777,0.8775899410247803,0.05610783398151398,0.964414119720459,0.48062223196029663,0.9663304090499878,1.0657213926315308,0.8402202725410461,0.3581254780292511,0.9934926629066467,0.695131778717041,0.8772569298744202,0.45863857865333557,0.9742234945297241,1.124735951423645,0.780973494052887,0.3694687485694885,1.0325095653533936,0.7435848116874695,0.607222855091095,0.5361546874046326,1.0348836183547974,0.8335180878639221,0.7928903102874756,0.3807813227176666,1.1029672622680664,0.3421015441417694,0.754956066608429
19687.734352459556,0.45444679260253906,0.23197075724601746,-1.0276345014572144,0.9999666213989258,0.4563051164150238,0.2083536982536316,-0.9695650339126587,0.9999344348907471,0.46409928798675537,0.2071794867515564,-0.9696574211120605,0.9999265670776367,0.4714113473892212,0.2060798704624176,-0.969641923904419,0.9999144077301025,0.4241136610507965,0.20996910333633423,-1.0079007148742676,0.9999465942382812,0.4074828326702118,0.20970818400382996,-1.0080878734588623,0.9999434947967529,0.3874454200267792,0.2096136212348938,-1.0082610845565796,0.9999384880065918,0.45896852016448975,0.21358591318130493,-0.6094092726707458,0.9999160766601562,0.33774763345718384,0.2195715606212616,-0.7943843603134155,0.9999521970748901,0.4623049795627594,0.2532776892185211,-0.8910114765167236,0.9999793767929077,0.42901620268821716,0.2567148208618164,-0.9434523582458496,0.9999871253967285,0.5424444079399109,0.34973010420799255,-0.3574505150318146,0.999847412109375,0.18605580925941467,0.3696581721305847,-0.630489706993103,0.9997411370277405,0.5866959095001221,0.5148633122444153,-0.10682294517755508,0.9770777225494385,0.15013949573040009,0.5293275713920593,-0.7738059163093567,0.9830295443534851,0.6375618577003479,0.6470654606819153,-0.3663255274295807,0.9759387969970703,0.2897036075592041,0.5501636266708374,-1.2049825191497803,0.9609676003456116,0.651748776435852,0.6881452798843384,-0.4569154977798462,0.9562584757804871,0.3424339294433594,0.556058943271637,-1.3230546712875366,0.9428071975708008,0.6363900899887085,0.6871198415756226,-0.5496882796287537,0.9596246480941772,0.34520459175109863,0.5289879441261292,-1.373721957206726,0.9438636302947998,0.6251109838485718,0.6774424314498901,-0.40705445408821106,0.9607154726982117,0.32924792170524597,0.524577260017395,-1.2299493551254272,0.9295842051506042,0.5014361143112183,0.6316922903060913,0.09661446511745453,0.9965008497238159,0.32367733120918274,0.6508191823959351,-0.09625110775232315,0.9974740147590637,0.4891881048679352,0.8362396359443665,0.34564408659935,0.9497223496437073,0.3453473448753357,0.8754234313964844,0.09984997659921646,0.973328709602356,0.48235270380973816,0.961171567440033,1.143090009689331,0.8718692660331726,0.3615753650665283,0.9920086860656738,0.748794436454773,0.9016197323799133,0.4605790078639984,0.9733191728591919,1.2029402256011963,0.8215482234954834,0.36204755306243896,0.9917086958885193,0.7985807657241821,0.6735804677009583,0.5350503921508789,1.0262765884399414,0.9145980477333069,0.8320051431655884,0.39719560742378235,1.0922229290008545,0.3996160328388214,0.7880156636238098
19704.401019126224,0.4534541070461273,0.2306651771068573,-1.0075163841247559,0.9999493360519409,0.45452192425727844,0.20675432682037354,-0.9505117535591125,0.999900221824646,0.46176984906196594,0.20529508590698242,-0.9506170153617859,0.9998897314071655,0.4687308669090271,0.2039598524570465,-0.9506152272224426,0.9998722076416016,0.42349839210510254,0.20891550183296204,-0.9885045289993286,0.9999188184738159,0.4075687527656555,0.20877978205680847,-0.9886982440948486,0.9999145269393921,0.388180673122406,0.20871767401695251,-0.9888946413993835,0.9999077320098877,0.4557145833969116,0.21142569184303284,-0.5956604480743408,0.9998750686645508,0.3387610912322998,0.21839255094528198,-0.7783439755439758,0.9999293088912964,0.4614434540271759,0.25166070461273193,-0.8726020455360413,0.9999709129333496,0.42898187041282654,0.2556748688220978,-0.9243102073669434,0.9999822378158569,0.5450496673583984,0.34901484847068787,-0.34674784541130066,0.9998360872268677,0.18629489839076996,0.36937013268470764,-0.616687536239624,0.9997287392616272,0.586867094039917,0.5152318477630615,-0.09894786775112152,0.9779658913612366,0.14401383697986603,0.5295200347900391,-0.7526822686195374,0.9846470355987549,0.636898398399353,0.6484333276748657,-0.36453211307525635,0.9765254855155945,0.29062217473983765,0.5486510992050171,-1.1749213933944702,0.9631686806678772,0.651466965675354,0.6902377009391785,-0.45784658193588257,0.9573432207107544,0.34460097551345825,0.5552796721458435,-1.2918065786361694,0.944876492023468,0.6352642774581909,0.6890946626663208,-0.5495828986167908,0.9607881903648376,0.3469555974006653,0.5274124145507812,-1.3414360284805298,0.9459753632545471,0.6237143874168396,0.6788220405578613,-0.4048771560192108,0.9617165327072144,0.3309876620769501,0.5228902101516724,-1.1988800764083862,0.9319322109222412,0.502389669418335,0.633679986000061,0.09855769574642181,0.9962355494499207,0.32409369945526123,0.6522935032844543,-0.09818235039710999,0.9972921013832092,0.49053946137428284,0.8378175497055054,0.34111157059669495,0.9396882057189941,0.34653356671333313,0.8785064816474915,0.09532474726438522,0.9672707319259644,0.4832189381122589,0.9634361863136292,1.147540807723999,0.8435636758804321,0.3628334403038025,0.9907292127609253,0.7502827644348145,0.8773754835128784,0.46127358078956604,0.9746320843696594,1.208897352218628,0.7931195497512817,0.36367592215538025,0.989860475063324,0.8012532591819763,0.636914849281311,0.5335650444030762,1.027835726737976,0.9226688742637634,0.7981117963790894,0.39632391929626465,1.0947213172912598,0.40509703755378723,0.7483370304107666
19721.067685792892,0.4538484811782837,0.23294657468795776,-1.0289355516433716,0.9999551773071289,0.45522844791412354,0.20887064933776855,-0.9740163683891296,0.9999089241027832,0.4625932276248932,0.20745593309402466,-0.9741019010543823,0.9998984336853027,0.4695727825164795,0.20616814494132996,-0.9741520285606384,0.999883770942688,0.4241867661476135,0.21115225553512573,-1.0095280408859253,0.9999269247055054,0.40822866559028625,0.21128883957862854,-1.0097250938415527,0.9999212026596069,0.38856619596481323,0.2115292251110077,-1.009879469871521,0.9999163150787354,0.456806480884552,0.2133905291557312,-0.6234080791473389,0.9998849630355835,0.33714810013771057,0.22123312950134277,-0.7955875992774963,0.999933123588562,0.46205028891563416,0.2533503770828247,-0.8947417736053467,0.9999725818634033,0.42950117588043213,0.2574302852153778,-0.9434641003608704,0.9999825954437256,0.5442630052566528,0.34845131635665894,-0.3813062906265259,0.999823272228241,0.18668489158153534,0.3686540424823761,-0.6252420544624329,0.9997339844703674,0.5873799324035645,0.5160163044929504,-0.15138934552669525,0.977914035320282,0.15206819772720337,0.5291465520858765,-0.7535751461982727,0.9830407500267029,0.6357057094573975,0.6498027443885803,-0.4064537584781647,0.9733309745788574,0.2889614403247833,0.5471147298812866,-1.1526639461517334,0.9579874873161316,0.6505012512207031,0.6926745772361755,-0.49661821126937866,0.9510277509689331,0.34371480345726013,0.5533946752548218,-1.265876054763794,0.9368959069252014,0.6341555118560791,0.6924054026603699,-0.5869722962379456,0.9544699192047119,0.3454968333244324,0.5266416668891907,-1.3103930950164795,0.9378147125244141,0.6225168704986572,0.6819111704826355,-0.4456895589828491,0.9556815028190613,0.32977694272994995,0.5221415758132935,-1.1746726036071777,0.9226213693618774,0.502258837223053,0.6334041357040405,0.0911378264427185,0.9954798221588135,0.32533496618270874,0.6513493061065674,-0.09085371345281601,0.9969903230667114,0.48796939849853516,0.8440946936607361,0.3456014394760132,0.942681074142456,0.34163713455200195,0.8760342001914978,0.09465812146663666,0.9713320136070251,0.4839881658554077,0.9647331833839417,1.1162642240524292,0.8476289510726929,0.36245834827423096,0.9913679361343384,0.7207449674606323,0.8892567753791809,0.4619397222995758,0.9747292995452881,1.1741349697113037,0.7862426042556763,0.3645083010196686,0.9901599884033203,0.7685760259628296,0.634978175163269,0.5387850999832153,1.0275821685791016,0.8916856646537781,0.8051409125328064,0.3924795985221863,1.0977776050567627,0.37474003434181213,0.7672714591026306
19737.73435245956,0.4523785710334778,0.23279350996017456,-1.021095871925354,0.999967098236084,0.45484983921051025,0.2098293900489807,-0.9642176628112793,0.9999340772628784,0.4628377854824066,0.20870056748390198,-0.9643019437789917,0.9999254941940308,0.47037866711616516,0.20767971873283386,-0.964329183101654,0.9999141693115234,0.42268943786621094,0.21142780780792236,-0.9991074800491333,0.9999467134475708,0.4061557352542877,0.21109330654144287,-0.9993082284927368,0.9999425411224365,0.3860585689544678,0.2109736204147339,-0.9994502067565918,0.9999383687973022,0.4591788351535797,0.215163916349411,-0.607874870300293,0.999915599822998,0.3359566330909729,0.22054186463356018,-0.7784484624862671,0.9999512434005737,0.4606805741786957,0.2539665400981903,-0.8855836987495422,0.9999798536300659,0.4272144138813019,0.2573634386062622,-0.9338709115982056,0.999987006187439,0.5407001972198486,0.349682092666626,-0.3686968982219696,0.999843955039978,0.18770912289619446,0.3687106668949127,-0.6047557592391968,0.9997493624687195,0.5882377624511719,0.5156236886978149,-0.13963383436203003,0.979386031627655,0.15132448077201843,0.5273044109344482,-0.7427899241447449,0.9816182255744934,0.6353713870048523,0.6492472887039185,-0.39934006333351135,0.9750342965126038,0.2812685966491699,0.5488362908363342,-1.1673290729522705,0.9537815451622009,0.6492455005645752,0.6917346715927124,-0.48950979113578796,0.9539206027984619,0.33751606941223145,0.5550311207771301,-1.2826282978057861,0.932581901550293,0.6321266889572144,0.691536009311676,-0.5808662176132202,0.9569819569587708,0.3386315107345581,0.5276288986206055,-1.329261064529419,0.9337213039398193,0.6203030347824097,0.6808817982673645,-0.4387553930282593,0.9580974578857422,0.32212382555007935,0.5236044526100159,-1.1908595561981201,0.9185547232627869,0.5018389821052551,0.6325660347938538,0.0880342572927475,0.9962433576583862,0.32409369945526123,0.6493450999259949,-0.08774459362030029,0.9974519610404968,0.4872289001941681,0.8426692485809326,0.3256206512451172,0.9550316333770752,0.3403371274471283,0.8740975260734558,0.08717136830091476,0.9767860174179077,0.482109010219574,0.9625270366668701,1.0964165925979614,0.8825758695602417,0.36258184909820557,0.9910997152328491,0.7099494934082031,0.9149101376533508,0.4591802656650543,0.9729514718055725,1.1537599563598633,0.8260883092880249,0.372989684343338,1.026774287223816,0.7566354274749756,0.6775544881820679,0.5382872819900513,1.028223991394043,0.8700305819511414,0.8448945879936218,0.39131492376327515,1.098114252090454,0.3596246540546417,0.8100244998931885
19754.401019126228,0.45178884267807007,0.22962403297424316,-1.0079305171966553,0.9999387264251709,0.4544800817966461,0.20676866173744202,-0.9496731758117676,0.9998819828033447,0.46254846453666687,0.20543882250785828,-0.9497910737991333,0.9998694658279419,0.47007855772972107,0.20424723625183105,-0.949834942817688,0.9998500347137451,0.42183470726013184,0.20881226658821106,-0.9845587015151978,0.9999008178710938,0.4055781066417694,0.2087026834487915,-0.9847595691680908,0.9998946189880371,0.3858114778995514,0.20874866843223572,-0.9849607348442078,0.9998863935470581,0.46003809571266174,0.21202364563941956,-0.588335394859314,0.999852180480957,0.3372456431388855,0.21862468123435974,-0.7577949166297913,0.9999102354049683,0.46090537309646606,0.2508887052536011,-0.8706810474395752,0.9999651908874512,0.42721372842788696,0.2547021806240082,-0.9186320900917053,0.9999778270721436,0.5409234762191772,0.3492733836174011,-0.3391691744327545,0.9998140931129456,0.19167453050613403,0.36694106459617615,-0.5846595168113708,0.9996401071548462,0.588858962059021,0.5154829621315002,-0.10366950184106827,0.9786877632141113,0.14512905478477478,0.5301456451416016,-0.7184457182884216,0.9801376461982727,0.634261965751648,0.6473880410194397,-0.37504228949546814,0.976253867149353,0.29280248284339905,0.5513687133789062,-1.1489559412002563,0.9516858458518982,0.6499561071395874,0.6904599070549011,-0.46856558322906494,0.9564540386199951,0.34721609950065613,0.557268500328064,-1.2639909982681274,0.9296626448631287,0.6336479783058167,0.689602255821228,-0.5599114894866943,0.960089921951294,0.34913307428359985,0.5295643210411072,-1.312103509902954,0.9314446449279785,0.6215063333511353,0.6790759563446045,-0.41481542587280273,0.9605998396873474,0.33261188864707947,0.5260040163993835,-1.1723041534423828,0.9151365160942078,0.5046756863594055,0.632224977016449,0.09488625079393387,0.9955109357833862,0.32636135816574097,0.6518809199333191,-0.09454506635665894,0.9966097474098206,0.48954084515571594,0.8409990668296814,0.27904146909713745,0.9335471391677856,0.34620201587677,0.8813163042068481,0.04795614629983902,0.961685299873352,0.4830036759376526,0.9635829329490662,1.0819753408432007,0.8231520652770996,0.36276382207870483,0.9929021596908569,0.6895899176597595,0.864898145198822,0.46158188581466675,0.9735726714134216,1.142436146736145,0.765007734298706,0.36556166410446167,1.030582308769226,0.7384204268455505,0.5883113741874695,0.5305102467536926,1.0315369367599487,0.849692165851593,0.7707289457321167,0.39500313997268677,1.1007229089736938,0.3323410749435425,0.7282581329345703
19771.067685792896,0.45852747559547424,0.22728678584098816,-0.9211052060127258,0.9999032020568848,0.45865049958229065,0.2048955261707306,-0.864891529083252,0.99980229139328,0.465742826461792,0.20401090383529663,-0.8650310039520264,0.9997860789299011,0.47228842973709106,0.20317593216896057,-0.8651032447814941,0.9997621178627014,0.42877569794654846,0.20597153902053833,-0.9020171761512756,0.9998375177383423,0.4127470850944519,0.20570772886276245,-0.9022262096405029,0.9998279809951782,0.393553227186203,0.20559611916542053,-0.902444064617157,0.999817430973053,0.4568392038345337,0.211734801530838,-0.5248472690582275,0.9997596144676208,0.341030091047287,0.2165430784225464,-0.7041227221488953,0.9998451471328735,0.4647849202156067,0.24842166900634766,-0.7918143272399902,0.999944806098938,0.4336477220058441,0.2522854804992676,-0.8426637053489685,0.9999641180038452,0.5429582595825195,0.3486156165599823,-0.3088783323764801,0.9997667670249939,0.19538412988185883,0.36545634269714355,-0.5391470193862915,0.9994807839393616,0.5906457304954529,0.5152193307876587,-0.08778323233127594,0.9813627004623413,0.14820194244384766,0.526710033416748,-0.6582725644111633,0.9802688956260681,0.6369115710258484,0.6478628516197205,-0.33968091011047363,0.9791911244392395,0.30012786388397217,0.5502809882164001,-1.0455403327941895,0.95209801197052,0.6514716148376465,0.6909032464027405,-0.4307996928691864,0.9602490663528442,0.3600430190563202,0.5571823716163635,-1.150803565979004,0.9291850328445435,0.6347349882125854,0.6896792054176331,-0.5162725448608398,0.9637399315834045,0.36272338032722473,0.530086874961853,-1.193818211555481,0.9309603571891785,0.6230769157409668,0.6789823174476624,-0.37634384632110596,0.9639626145362854,0.3447808027267456,0.525662362575531,-1.065374493598938,0.9142612814903259,0.5058281421661377,0.6352093815803528,0.08042464405298233,0.9942761063575745,0.3261682689189911,0.6525332927703857,-0.0800563171505928,0.9956947565078735,0.48489975929260254,0.8493662476539612,0.22672803699970245,0.9366476535797119,0.3460473418235779,0.8826178312301636,0.0276168342679739,0.9547810554504395,0.4837875962257385,0.9672778248786926,1.0035912990570068,0.8104869723320007,0.3645840287208557,0.9975005984306335,0.6388041377067566,0.8405092358589172,0.465399831533432,0.9750802516937256,1.0622044801712036,0.7364147305488586,0.3685179054737091,1.0352425575256348,0.6851546764373779,0.5328956246376038,0.5265276432037354,1.0352532863616943,0.7789474725723267,0.7469568848609924,0.39074885845184326,1.1050151586532593,0.2898314297199249,0.6919470429420471
19787.734352459564,0.45668506622314453,0.22742795944213867,-0.9733926653862,0.9999651908874512,0.45737671852111816,0.2053191363811493,-0.9163013100624084,0.9999295473098755,0.4646306335926056,0.20445924997329712,-0.9163727760314941,0.9999195337295532,0.47131583094596863,0.20365425944328308,-0.9163758158683777,0.9999080896377563,0.42723479866981506,0.20615851879119873,-0.9529499411582947,0.9999445676803589,0.4114516079425812,0.2057485282421112,-0.9531356692314148,0.9999406337738037,0.3922739624977112,0.20552849769592285,-0.9532797932624817,0.9999386072158813,0.4571475386619568,0.21176421642303467,-0.5736915469169617,0.99989914894104,0.34046846628189087,0.21616429090499878,-0.7519654035568237,0.9999487400054932,0.46321186423301697,0.24889515340328217,-0.844376802444458,0.9999773502349854,0.4321708679199219,0.2520546317100525,-0.894801914691925,0.9999864101409912,0.5437694191932678,0.34931254386901855,-0.35303518176078796,0.9998146891593933,0.19165830314159393,0.36690977215766907,-0.5986274480819702,0.9997677206993103,0.5891890525817871,0.5162177085876465,-0.13485082983970642,0.977523922920227,0.1479693502187729,0.5262108445167542,-0.7259222269058228,0.9858633875846863,0.6370854377746582,0.6503204107284546,-0.3997485637664795,0.9751826524734497,0.28846850991249084,0.5478951930999756,-1.1171386241912842,0.9680579304695129,0.6505280137062073,0.6940655708312988,-0.4913991689682007,0.9545454978942871,0.3444828391075134,0.5547148585319519,-1.230007529258728,0.9512710571289062,0.6344219446182251,0.6934604048728943,-0.5809212923049927,0.9576804041862488,0.3480135500431061,0.5283108949661255,-1.2737491130828857,0.9521489143371582,0.6224794387817383,0.6827587485313416,-0.4392378032207489,0.958738386631012,0.33159273862838745,0.5238410234451294,-1.138440728187561,0.9399396777153015,0.5044237375259399,0.6336565017700195,0.08801808953285217,0.9964427351951599,0.3264504671096802,0.6519442200660706,-0.08776611089706421,0.9976094961166382,0.4869689345359802,0.8435198068618774,0.33816954493522644,0.9522616267204285,0.3448922336101532,0.8784812688827515,0.09334545582532883,0.977169930934906,0.48428815603256226,0.9604538679122925,1.1009324789047241,0.87840336561203,0.3574425280094147,0.9871265292167664,0.7163523435592651,0.9110077023506165,0.46102216839790344,0.9729281663894653,1.1578445434570312,0.8190164566040039,0.35866737365722656,0.9866167902946472,0.7642173171043396,0.673371434211731,0.5384860038757324,1.027571201324463,0.8840562701225281,0.8421527743339539,0.387547105550766,1.0907803773880005,0.3829595744609833,0.8089145421981812
19804.40101912623,0.45391935110092163,0.2301751971244812,-1.016459584236145,0.9999630451202393,0.45537370443344116,0.20708626508712769,-0.9599583148956299,0.999923825263977,0.46292585134506226,0.20579323172569275,-0.9600405693054199,0.9999107122421265,0.46994641423225403,0.20461836457252502,-0.9600558876991272,0.9998965263366699,0.42393749952316284,0.20895594358444214,-0.9940133094787598,0.9999412298202515,0.4076410233974457,0.20870068669319153,-0.9941989779472351,0.9999368190765381,0.38758203387260437,0.20864468812942505,-0.9943549633026123,0.9999363422393799,0.45768898725509644,0.21166187524795532,-0.6102958917617798,0.9998866319656372,0.3378526270389557,0.21812358498573303,-0.7763473987579346,0.9999481439590454,0.46176227927207947,0.25145283341407776,-0.8839815855026245,0.9999759197235107,0.42856621742248535,0.2549465000629425,-0.9308643341064453,0.9999865293502808,0.5436815023422241,0.3493696451187134,-0.3730066120624542,0.9997938275337219,0.1885576844215393,0.3675432503223419,-0.608984649181366,0.9997846484184265,0.5895209312438965,0.5166490077972412,-0.14538787305355072,0.9750984311103821,0.14524362981319427,0.5270602703094482,-0.7247499823570251,0.9863758683204651,0.6377891898155212,0.6503944993019104,-0.41938212513923645,0.9706144332885742,0.2913173735141754,0.5498319864273071,-1.1252548694610596,0.9699572920799255,0.6522083282470703,0.6938072443008423,-0.5136236548423767,0.9477612972259521,0.3487522304058075,0.5564700961112976,-1.2404735088348389,0.953420877456665,0.635590136051178,0.693309485912323,-0.6057955026626587,0.9513221979141235,0.3478354811668396,0.5286641716957092,-1.285750389099121,0.9543924927711487,0.6240189671516418,0.6824855804443359,-0.46034109592437744,0.9533023834228516,0.3319711983203888,0.5245881676673889,-1.1470545530319214,0.9425815343856812,0.5049986839294434,0.6346610188484192,0.08506174385547638,0.9962665438652039,0.3256041705608368,0.6526539921760559,-0.08477684110403061,0.9975571632385254,0.486650675535202,0.8454892635345459,0.32818901538848877,0.9505994915962219,0.3426668643951416,0.876329779624939,0.09622014313936234,0.9760348796844482,0.48427581787109375,0.9609043598175049,1.1222014427185059,0.8667616248130798,0.35760432481765747,0.9878085851669312,0.7413139343261719,0.9057389497756958,0.460961252450943,0.9717002511024475,1.1820635795593262,0.8082603812217712,0.3594769537448883,0.986771285533905,0.7914499044418335,0.6705157160758972,0.536341667175293,1.0283257961273193,0.9025403261184692,0.8266738057136536,0.3854273855686188,1.0913209915161133,0.4037022292613983,0.798685610294342
19821.0676857929,0.45242998003959656,0.2315320372581482,-1.0298607349395752,0.9999666213989258,0.45559823513031006,0.20760241150856018,-0.9758781790733337,0.9999301433563232,0.46386536955833435,0.20678773522377014,-0.9759573936462402,0.999920129776001,0.4718160033226013,0.20609819889068604,-0.9759503602981567,0.9999094009399414,0.42301473021507263,0.20846334099769592,-1.011331558227539,0.9999439716339111,0.406881183385849,0.2085065245628357,-1.0115423202514648,0.9999386072158813,0.3874872922897339,0.20893225073814392,-1.011680245399475,0.9999350309371948,0.46016207337379456,0.21381613612174988,-0.6250749826431274,0.99989914894104,0.3372785449028015,0.21980124711990356,-0.8003318309783936,0.9999475479125977,0.4615384638309479,0.2522047162055969,-0.8957807421684265,0.9999767541885376,0.42807313799858093,0.25409942865371704,-0.945285975933075,0.9999858140945435,0.5416578054428101,0.34920698404312134,-0.3828866481781006,0.9998401403427124,0.18824173510074615,0.3673829138278961,-0.6288992762565613,0.999775230884552,0.5850164294242859,0.5110747218132019,-0.1545938402414322,0.9800934195518494,0.15951648354530334,0.5275612473487854,-0.7433871626853943,0.9831236600875854,0.6345387697219849,0.6454607844352722,-0.41548261046409607,0.9786867499351501,0.28919410705566406,0.5479047298431396,-1.1263880729675293,0.955092191696167,0.6519266366958618,0.6885318756103516,-0.5051180124282837,0.9599326848983765,0.34323057532310486,0.5562995672225952,-1.2385063171386719,0.9341009855270386,0.6347101926803589,0.6879264116287231,-0.5996128916740417,0.962680459022522,0.3450803756713867,0.5296047925949097,-1.2876002788543701,0.9358219504356384,0.6216200590133667,0.6788539886474609,-0.4565393924713135,0.963841438293457,0.327718049287796,0.5246963500976562,-1.1501878499984741,0.922748327255249,0.49858173727989197,0.6325455904006958,0.09216411411762238,0.9959009289741516,0.3200795352458954,0.6509620547294617,-0.09194175899028778,0.9972825050354004,0.4842320382595062,0.8438757658004761,0.39250448346138,0.953088641166687,0.34024879336357117,0.879245400428772,0.1089230477809906,0.9793474078178406,0.47973552346229553,0.9584659337997437,1.1074415445327759,0.8917375206947327,0.3564399182796478,0.9961716532707214,0.6923899054527283,0.9224007725715637,0.45752817392349243,0.97313392162323,1.1598455905914307,0.8391150236129761,0.36964792013168335,1.0316693782806396,0.7353411316871643,0.6919137835502625,0.5444931983947754,1.0219223499298096,0.8795974850654602,0.8613627552986145,0.39580193161964417,1.1044209003448486,0.3378484547138214,0.8233050107955933
19837.734352459567,0.45348015427589417,0.23128658533096313,-1.010907769203186,0.9999632835388184,0.45453622937202454,0.20732784271240234,-0.9549214243888855,0.9999237060546875,0.46219247579574585,0.20660683512687683,-0.9549991488456726,0.9999134540557861,0.4696088135242462,0.2060224711894989,-0.9549936056137085,0.9998998641967773,0.42340636253356934,0.20834091305732727,-0.9915664196014404,0.9999409914016724,0.4069148302078247,0.2084968090057373,-0.9917477965354919,0.9999363422393799,0.3873547911643982,0.20906352996826172,-0.9918866157531738,0.9999327659606934,0.4563087522983551,0.21413162350654602,-0.6071229577064514,0.9998984336853027,0.336132287979126,0.22068721055984497,-0.7846798896789551,0.9999473094940186,0.4613886773586273,0.25234320759773254,-0.8787990212440491,0.9999762773513794,0.42874154448509216,0.2546272277832031,-0.9290206432342529,0.9999856948852539,0.5395545363426208,0.34898799657821655,-0.36944395303726196,0.9998248219490051,0.18411602079868317,0.37047868967056274,-0.6211745738983154,0.9997745156288147,0.5860277414321899,0.5134241580963135,-0.13996677100658417,0.9774641394615173,0.15490411221981049,0.5302647352218628,-0.7451645135879517,0.9838554263114929,0.636404812335968,0.6482701301574707,-0.4033987522125244,0.9744619727134705,0.2895694375038147,0.5497393608093262,-1.1421250104904175,0.9618982672691345,0.6509276628494263,0.6895992755889893,-0.49532830715179443,0.9530789256095886,0.34170153737068176,0.5565912127494812,-1.257243275642395,0.9431736469268799,0.6343808174133301,0.6889183521270752,-0.5864955186843872,0.9562704563140869,0.34436485171318054,0.5284295678138733,-1.3050894737243652,0.9438068270683289,0.6226828694343567,0.6786190867424011,-0.4435371160507202,0.9573758840560913,0.32905176281929016,0.5237986445426941,-1.1656452417373657,0.929573118686676,0.4998563826084137,0.6329841613769531,0.0913943350315094,0.9962397813796997,0.32342490553855896,0.6489366292953491,-0.09111368656158447,0.9976794123649597,0.48566341400146484,0.8370590209960938,0.40982237458229065,0.9510202407836914,0.3399178385734558,0.8685864806175232,0.14181213080883026,0.9782593250274658,0.4773418605327606,0.9584138989448547,1.152583122253418,0.8829496502876282,0.3577307164669037,0.9907364249229431,0.7613932490348816,0.9147352576255798,0.4539012014865875,0.9696879982948303,1.2075235843658447,0.8293391466140747,0.36261677742004395,1.0191855430603027,0.8084478378295898,0.694587767124176,0.5350215435028076,1.0206718444824219,0.9284510612487793,0.8520721197128296,0.38529303669929504,1.0879237651824951,0.42173632979393005,0.8127396702766418
19854.401019126235,0.45610904693603516,0.23079562187194824,-1.0137734413146973,0.9999617338180542,0.456332802772522,0.20681098103523254,-0.9558055996894836,0.9999243021011353,0.46369150280952454,0.205671489238739,-0.9559183716773987,0.9999165534973145,0.4706572890281677,0.20467546582221985,-0.9559321403503418,0.9999046325683594,0.42532163858413696,0.20876604318618774,-0.9951644539833069,0.9999364614486694,0.408672571182251,0.2091633677482605,-0.9953420758247375,0.9999313354492188,0.38864368200302124,0.20981353521347046,-0.995490312576294,0.9999250173568726,0.4551657736301422,0.21257314085960388,-0.5944646000862122,0.9999027252197266,0.33689799904823303,0.22077307105064392,-0.7845657467842102,0.9999417066574097,0.4645105302333832,0.2511674761772156,-0.8764431476593018,0.9999758005142212,0.4320312440395355,0.2550693154335022,-0.9303467273712158,0.9999841451644897,0.5420098900794983,0.3491763770580292,-0.34269413352012634,0.9998493194580078,0.18792162835597992,0.37166842818260193,-0.6218116283416748,0.9997355341911316,0.5847709774971008,0.513270378112793,-0.10870740562677383,0.9776026606559753,0.16143959760665894,0.5291863083839417,-0.7530093789100647,0.9828149676322937,0.6358940005302429,0.6470822095870972,-0.38449952006340027,0.9774047136306763,0.27706578373908997,0.547616183757782,-1.163580298423767,0.9585095047950745,0.6517187356948853,0.6889042258262634,-0.4774574041366577,0.9577924609184265,0.333267480134964,0.5562583208084106,-1.2824465036392212,0.9390315413475037,0.636527419090271,0.6887516975402832,-0.572071373462677,0.9611794352531433,0.3351094722747803,0.5281645655632019,-1.3340362310409546,0.9406877160072327,0.6238793730735779,0.6796091794967651,-0.42660853266716003,0.9616658091545105,0.31786054372787476,0.5239068269729614,-1.1892460584640503,0.9260926842689514,0.49685993790626526,0.6344889402389526,0.10168918967247009,0.9963167905807495,0.32031261920928955,0.652722179889679,-0.10140947997570038,0.9973287582397461,0.48568907380104065,0.843305230140686,0.4141925871372223,0.953732430934906,0.3411768078804016,0.8766661286354065,0.12448245286941528,0.9777508974075317,0.4831182658672333,0.9581634402275085,1.1838914155960083,0.888481616973877,0.3598257601261139,0.9930654764175415,0.7607263326644897,0.9130719900131226,0.46116918325424194,0.971422553062439,1.2412962913513184,0.8338682055473328,0.36753833293914795,1.0303343534469604,0.8092096447944641,0.6829092502593994,0.5412244200706482,1.0264555215835571,0.9492027759552002,0.8570399284362793,0.4027954936027527,1.1007072925567627,0.40380924940109253,0.8110533356666565
19871.067685792903,0.45043256878852844,0.23091989755630493,-1.0108333826065063,0.999964714050293,0.45324280858039856,0.2072162628173828,-0.9514074921607971,0.9999297857284546,0.4612707197666168,0.20614933967590332,-0.9515199065208435,0.9999194145202637,0.46899911761283875,0.20526576042175293,-0.9515421986579895,0.9999079704284668,0.4204099476337433,0.20881977677345276,-0.9863805174827576,0.9999407529830933,0.4038064777851105,0.2088620960712433,-0.9865717887878418,0.9999351501464844,0.38401004672050476,0.20911619067192078,-0.9867411255836487,0.999932050704956,0.4581493139266968,0.21321740746498108,-0.5879504680633545,0.9999045133590698,0.33500435948371887,0.21933317184448242,-0.7585594654083252,0.9999457597732544,0.45958468317985535,0.2521175444126129,-0.8736284375190735,0.9999783039093018,0.42514675855636597,0.25517532229423523,-0.9218794107437134,0.9999861717224121,0.5395120978355408,0.3494417667388916,-0.3424139618873596,0.9998486042022705,0.18950140476226807,0.3689606785774231,-0.5932063460350037,0.999767005443573,0.5851461887359619,0.5152503252029419,-0.12260179966688156,0.9782975316047668,0.15603573620319366,0.5271552801132202,-0.7280927300453186,0.9834319949150085,0.6345587372779846,0.6475846171379089,-0.41635963320732117,0.9773240685462952,0.28366854786872864,0.5485837459564209,-1.1646226644515991,0.9632618427276611,0.648486852645874,0.6906821727752686,-0.5144365429878235,0.9585374593734741,0.33804136514663696,0.5566858649253845,-1.2856504917144775,0.9454439282417297,0.6322863101959229,0.6910150051116943,-0.608524739742279,0.9616149663925171,0.3460462987422943,0.5293771028518677,-1.337067723274231,0.9469856023788452,0.6204333305358887,0.6801888942718506,-0.45831942558288574,0.9621691107749939,0.3300333321094513,0.5248626470565796,-1.1901944875717163,0.9340943098068237,0.5012523531913757,0.6332619786262512,0.09414065629243851,0.9967197775840759,0.3234989643096924,0.6505235433578491,-0.09385973960161209,0.9976758360862732,0.4858523905277252,0.8441786766052246,0.3266659379005432,0.9452911019325256,0.33994072675704956,0.875599205493927,0.07788190245628357,0.9715099930763245,0.4795447289943695,0.9579401016235352,1.1194723844528198,0.86166912317276,0.3567480742931366,0.9923955798149109,0.7227835655212402,0.8964524865150452,0.4558846950531006,0.9696540236473083,1.1787782907485962,0.808289647102356,0.3655122220516205,1.0254535675048828,0.7719451189041138,0.6436021327972412,0.5374829769134521,1.0238264799118042,0.8874669075012207,0.825225293636322,0.38937902450561523,1.096218228340149,0.36842095851898193,0.7852242588996887
19887.73435245957,0.44886624813079834,0.23154115676879883,-1.0452226400375366,0.999963641166687,0.45042604207992554,0.20785003900527954,-0.9887394309043884,0.9999209642410278,0.4579145908355713,0.20644566416740417,-0.9888228178024292,0.9999120235443115,0.46514517068862915,0.20516836643218994,-0.9888020753860474,0.9998965263366699,0.4187948703765869,0.20992431044578552,-1.0211801528930664,0.9999401569366455,0.4023234248161316,0.21000567078590393,-1.021405816078186,0.999936580657959,0.3833427429199219,0.21028247475624084,-1.0215764045715332,0.9999332427978516,0.4539412558078766,0.2130970060825348,-0.6350122690200806,0.9998924732208252,0.33436453342437744,0.22099363803863525,-0.7931219339370728,0.999945878982544,0.45784974098205566,0.25280579924583435,-0.9114928245544434,0.9999744892120361,0.4247356355190277,0.25654152035713196,-0.9560490846633911,0.9999854564666748,0.5418272614479065,0.3504530191421509,-0.38579362630844116,0.9997920393943787,0.18833714723587036,0.3694497048854828,-0.6280984282493591,0.9997945427894592,0.5840309858322144,0.5176354646682739,-0.15756405889987946,0.9762675166130066,0.1515563428401947,0.5311353802680969,-0.7555768489837646,0.9849453568458557,0.6340054273605347,0.6491463780403137,-0.4256858825683594,0.971747100353241,0.3018549680709839,0.5505308508872986,-1.169169545173645,0.9603011608123779,0.6486693620681763,0.6919638514518738,-0.5184170603752136,0.9488034844398499,0.35510075092315674,0.5577121376991272,-1.286646842956543,0.9389116764068604,0.6326339244842529,0.691806972026825,-0.610846221446991,0.9522050023078918,0.36153870820999146,0.530126690864563,-1.3321043252944946,0.9394176602363586,0.6209577918052673,0.6803159117698669,-0.46598535776138306,0.9535407423973083,0.3456353545188904,0.5261330008506775,-1.191617727279663,0.924311637878418,0.4999668598175049,0.6356169581413269,0.09502354264259338,0.9951183795928955,0.3230865001678467,0.653475284576416,-0.09477855265140533,0.9973209500312805,0.4848623275756836,0.8402094841003418,0.4109106957912445,0.941157877445221,0.34127333760261536,0.8740189671516418,0.1273433119058609,0.9768341183662415,0.48235297203063965,0.9616227746009827,1.1414207220077515,0.8717004656791687,0.3621733486652374,0.9974138140678406,0.7280892729759216,0.9104548692703247,0.4589983820915222,0.9744123816490173,1.1949217319488525,0.820601761341095,0.3623467683792114,1.0325837135314941,0.7724605798721313,0.6791645288467407,0.5411911010742188,1.0220106840133667,0.9084575176239014,0.8447492122650146,0.3951624929904938,1.1016143560409546,0.3727940022945404,0.8048855066299438
19904.40101912624,0.45131200551986694,0.23071059584617615,-1.0075359344482422,0.9999617338180542,0.45263218879699707,0.207045316696167,-0.9499362111091614,0.999923586845398,0.46029210090637207,0.20569905638694763,-0.9500368237495422,0.9999127388000488,0.46772223711013794,0.20454609394073486,-0.9500720500946045,0.999900221824646,0.4208354949951172,0.20935162901878357,-0.9845960736274719,0.9999375343322754,0.40441033244132996,0.2097940444946289,-0.9847976565361023,0.9999324083328247,0.384628564119339,0.21041983366012573,-0.9849526286125183,0.9999290704727173,0.45507436990737915,0.21234065294265747,-0.5954388380050659,0.9998964071273804,0.3345371186733246,0.22114858031272888,-0.7653695344924927,0.9999417066574097,0.4613422453403473,0.25126177072525024,-0.8733542561531067,0.9999752044677734,0.4278406798839569,0.25496718287467957,-0.9214447140693665,0.9999843835830688,0.5405914783477783,0.35070252418518066,-0.36305418610572815,0.9998202919960022,0.18846631050109863,0.3687169849872589,-0.5935085415840149,0.9997109770774841,0.5874791145324707,0.515681803226471,-0.13964836299419403,0.9793007373809814,0.15487654507160187,0.5262385010719299,-0.7226278185844421,0.981421172618866,0.6345754861831665,0.6488122344017029,-0.4090731143951416,0.9761041402816772,0.27973923087120056,0.5488795638084412,-1.1422061920166016,0.956962525844574,0.6485235691070557,0.6913222074508667,-0.5023155808448792,0.9560649991035461,0.3347357213497162,0.5583568215370178,-1.2580385208129883,0.9374029636383057,0.6316844820976257,0.6912779808044434,-0.5938210487365723,0.9592727422714233,0.34266284108161926,0.5308592319488525,-1.3069084882736206,0.9389456510543823,0.6196298003196716,0.6800870895385742,-0.44901904463768005,0.9602317810058594,0.3254314959049225,0.5260035395622253,-1.166313648223877,0.92448490858078,0.5012094974517822,0.6341574192047119,0.07969965785741806,0.9967328310012817,0.3228628635406494,0.6507388949394226,-0.07944192737340927,0.9976630210876465,0.4849839508533478,0.8419824838638306,0.3156290352344513,0.9507728219032288,0.3388526737689972,0.8718211650848389,0.09715748578310013,0.971831202507019,0.47885873913764954,0.9567291140556335,1.0971922874450684,0.8744235038757324,0.3538663387298584,0.9881213307380676,0.7354901432991028,0.9031642079353333,0.4551011025905609,0.9688407778739929,1.1558737754821777,0.8170748949050903,0.3560067415237427,0.9885272979736328,0.7845668196678162,0.6507052183151245,0.5349341630935669,1.0227543115615845,0.8726205229759216,0.8359693288803101,0.37385502457618713,1.0909687280654907,0.3928591310977936,0.7948669791221619
19921.067685792907,0.45191824436187744,0.22809237241744995,-1.0292900800704956,0.9999226331710815,0.45317915081977844,0.20409613847732544,-0.9693948030471802,0.999834418296814,0.4611230790615082,0.2028270661830902,-0.969531238079071,0.9998158812522888,0.4688822627067566,0.20175877213478088,-0.9695582389831543,0.9997909665107727,0.42078083753585815,0.20660212635993958,-1.005786418914795,0.9998723268508911,0.40447503328323364,0.20701414346694946,-1.006034255027771,0.9998642206192017,0.38515758514404297,0.207516610622406,-1.006264090538025,0.9998598098754883,0.45890069007873535,0.21065428853034973,-0.6037338972091675,0.9997735619544983,0.33754056692123413,0.2185773253440857,-0.7776703834533691,0.999890923500061,0.46273210644721985,0.2484245002269745,-0.8906967043876648,0.9999500513076782,0.4282604157924652,0.252979040145874,-0.9399787783622742,0.9999713897705078,0.542237401008606,0.3496479094028473,-0.33628296852111816,0.9997267127037048,0.19189433753490448,0.36839842796325684,-0.6217204928398132,0.9997196793556213,0.5880162715911865,0.5163499712944031,-0.11831595748662949,0.9737594127655029,0.1535421907901764,0.5279507040977478,-0.7165108919143677,0.9849776029586792,0.634833812713623,0.6527074575424194,-0.4087980091571808,0.9670994281768799,0.3024548292160034,0.5547538995742798,-1.090378761291504,0.9589038491249084,0.6478309631347656,0.693253219127655,-0.5059341788291931,0.9408648610115051,0.35844266414642334,0.5625632405281067,-1.2045382261276245,0.9351692199707031,0.6307459473609924,0.6936156749725342,-0.5981877446174622,0.9455646276473999,0.36368632316589355,0.5345615744590759,-1.255885362625122,0.9368000626564026,0.6195592284202576,0.6814194917678833,-0.4503065347671509,0.9469333291053772,0.3460545837879181,0.5305240154266357,-1.113569736480713,0.9207596182823181,0.49829617142677307,0.6368265151977539,0.11071214824914932,0.9935559630393982,0.3244051933288574,0.6531502604484558,-0.11048368364572525,0.9961048364639282,0.48116645216941833,0.84788578748703,0.3580581545829773,0.9165348410606384,0.3409591019153595,0.8791818022727966,0.05868271738290787,0.9635769724845886,0.4793963134288788,0.9639599919319153,1.0966918468475342,0.821739673614502,0.35788819193840027,1.0002105236053467,0.6604238748550415,0.8750370144844055,0.4563721716403961,0.974009096622467,1.1497834920883179,0.7666110992431641,0.35288071632385254,1.044862985610962,0.7038247585296631,0.5995409488677979,0.536729633808136,1.027206301689148,0.8497977256774902,0.7930501103401184,0.3978799283504486,1.1114128828048706,0.2858329713344574,0.7594217658042908
19937.734352459574,0.447374552488327,0.2317211925983429,-1.062133550643921,0.9999668598175049,0.45004332065582275,0.20829758048057556,-1.0073490142822266,0.9999258518218994,0.4578903615474701,0.20695477724075317,-1.0074269771575928,0.9999170303344727,0.46545007824897766,0.20575293898582458,-1.0074195861816406,0.9999030828475952,0.4184369444847107,0.21032840013504028,-1.0395654439926147,0.999942421913147,0.40231096744537354,0.2103060483932495,-1.0397950410842896,0.9999383687973022,0.383284330368042,0.21046629548072815,-1.0399669408798218,0.9999359846115112,0.456699937582016,0.21335390210151672,-0.6513944268226624,0.9998962879180908,0.33466988801956177,0.22031059861183167,-0.8089097142219543,0.9999462366104126,0.45653635263442993,0.2525589168071747,-0.9263975024223328,0.9999761581420898,0.4235514998435974,0.2559683322906494,-0.9708256721496582,0.9999861717224121,0.5442085266113281,0.3504350185394287,-0.39680877327919006,0.9998162388801575,0.1861865371465683,0.36868909001350403,-0.6320057511329651,0.9998199343681335,0.5857174396514893,0.5145435333251953,-0.17451252043247223,0.9790260791778564,0.15409326553344727,0.5274673700332642,-0.7377060055732727,0.9868414402008057,0.6331846714019775,0.6464093327522278,-0.4653736352920532,0.9750712513923645,0.2994234263896942,0.5497351288795471,-1.1417032480239868,0.965128481388092,0.6491093039512634,0.6888267993927002,-0.5637407898902893,0.9540199637413025,0.3479490578174591,0.5569732785224915,-1.2577321529388428,0.9456304311752319,0.6353087425231934,0.6893206238746643,-0.6591623425483704,0.9572325348854065,0.35432061553001404,0.5290106534957886,-1.3090184926986694,0.9466416239738464,0.6236189603805542,0.6784456372261047,-0.5075736045837402,0.9580538272857666,0.339863121509552,0.5249717831611633,-1.1659468412399292,0.9330858588218689,0.4987243413925171,0.634182333946228,0.09018046408891678,0.9951999187469482,0.3223632574081421,0.650786817073822,-0.08991263061761856,0.9975230097770691,0.48542729020118713,0.8399091958999634,0.3686296045780182,0.9489202499389648,0.3370772898197174,0.8762302398681641,0.07493183761835098,0.9802951216697693,0.4767768383026123,0.9584577679634094,1.1086602210998535,0.8860938549041748,0.3539677560329437,0.9997730255126953,0.648017406463623,0.9223894476890564,0.4538407623767853,0.9720080494880676,1.1624226570129395,0.8309416770935059,0.3583422303199768,1.033906102180481,0.6884612441062927,0.6895917654037476,0.5409419536590576,1.0194895267486572,0.8697766661643982,0.8568772673606873,0.38779643177986145,1.10294771194458,0.27793776988983154,0.8252220153808594
