0,1,2,3,4,5,6,7,8,9,10
19530.726862026342,-176.55023193359375,262.94305419921875,5.297470569610596,-248.86990356445312,-0.3878018856048584,84.46492004394531,38.8828010559082,96.54026794433594,430.0398864746094,65535.0
19530.727262034896,-181.0489501953125,270.1986083984375,6.90554141998291,-236.43260192871094,-1.0027503967285156,82.17788696289062,38.53226089477539,90.25628662109375,425.96588134765625,65535.0
19530.72766204345,-175.4384002685547,256.3611755371094,15.338921546936035,-229.35952758789062,-5.867552280426025,78.37102508544922,35.00529861450195,90.87828826904297,426.216064453125,65535.0
19530.728062052,-167.297119140625,250.5340576171875,17.298219680786133,-232.24383544921875,-15.246185302734375,67.38189697265625,22.304725646972656,79.3465576171875,426.685791015625,65535.0
19530.728462060553,-172.48948669433594,259.55682373046875,20.89507293701172,-229.88511657714844,-17.618995666503906,61.228179931640625,22.768665313720703,76.26678466796875,432.12664794921875,65535.0
19530.728862069107,-167.81765747070312,254.26535034179688,11.750776290893555,-234.50979614257812,-13.70479679107666,68.1697769165039,27.957759857177734,82.90325927734375,426.5032043457031,65535.0
19530.729262077657,-174.43125915527344,267.8189392089844,4.440729141235352,-224.0077667236328,-9.071219444274902,70.92637634277344,30.420150756835938,85.28858184814453,429.9197692871094,65535.0
19530.72966208621,-182.30357360839844,259.22882080078125,14.100724220275879,-224.46859741210938,-10.974346160888672,70.16536712646484,29.981311798095703,87.1579818725586,443.22003173828125,65535.0
19530.730062094764,-174.3892822265625,251.5345001220703,13.7686185836792,-227.14190673828125,-14.212738037109375,69.10720825195312,28.455188751220703,82.48870849609375,430.94793701171875,65535.0
19530.730462103318,-184.0697021484375,260.1047668457031,18.895591735839844,-257.92791748046875,-17.99527931213379,59.05977249145508,23.193405151367188,76.90370178222656,417.7008972167969,65535.0
19530.73086211187,-192.5123748779297,268.4004821777344,28.72005271911621,-261.58489990234375,-11.341659545898438,63.34343719482422,27.821369171142578,85.36212158203125,421.68267822265625,65535.0
19530.731262120422,-234.72467041015625,266.8155212402344,18.31922149658203,-263.1898498535156,-24.65308380126953,51.00079345703125,16.632240295410156,72.02011108398438,439.6139221191406,65535.0
19530.731662128976,-279.28302001953125,269.3131103515625,29.7887020111084,-239.19775390625,-30.951255798339844,38.86104965209961,7.448388576507568,67.76461029052734,431.4686279296875,65535.0
19530.732062137526,-296.4693603515625,262.84698486328125,27.379772186279297,-224.48236083984375,-29.61771011352539,39.14085006713867,12.14267349243164,67.22428894042969,419.50634765625,65535.0
19530.73246214608,-294.6582946777344,267.7942810058594,28.25755500793457,-237.8638153076172,-17.787763595581055,50.296966552734375,22.74640655517578,77.4486312866211,424.55609130859375,65535.0
19530.732862154633,-290.8709411621094,273.8263244628906,32.13081359863281,-261.130615234375,-16.941184997558594,50.741268157958984,23.027009963989258,75.78882598876953,435.18096923828125,65535.0
19530.733262163187,-274.8631591796875,275.81463623046875,27.86202049255371,-259.9863586425781,-28.18971061706543,37.832611083984375,10.3129243850708,68.17194366455078,422.0503845214844,65535.0
19530.733662171737,-246.26168823242188,270.5473327636719,33.31147766113281,-262.2822265625,-35.395050048828125,28.700483322143555,4.170744895935059,59.049686431884766,425.95953369140625,65535.0
19530.73406218029,-253.5443878173828,272.0009460449219,33.4161491394043,-269.6761169433594,-26.315492630004883,34.5213623046875,12.148761749267578,66.94550323486328,423.4460754394531,65535.0
19530.734462188844,-269.59710693359375,271.0914306640625,35.95685958862305,-277.6288146972656,-33.30948257446289,27.46897315979004,8.89161205291748,62.32366943359375,427.31787109375,65535.0
19530.734862197394,-256.33636474609375,267.87701416015625,31.06129264831543,-270.84283447265625,-26.44306182861328,34.21184158325195,13.435428619384766,69.75391387939453,422.95703125,65535.0
19530.735262205948,-257.2464904785156,259.8414306640625,27.60395622253418,-254.15744018554688,-25.29437255859375,36.9626350402832,14.525148391723633,69.75927734375,438.3656311035156,65535.0
19530.7356622145,-255.7862091064453,254.25747680664062,24.057985305786133,-247.79078674316406,-33.38382339477539,28.389202117919922,9.002557754516602,63.70492935180664,423.5541076660156,65535.0
19530.736062223055,-247.31053161621094,261.84808349609375,18.742168426513672,-238.703369140625,-30.042097091674805,33.40255355834961,9.839319229125977,65.6317138671875,419.73760986328125,65535.0
19530.736462231605,-237.5883331298828,265.6327209472656,28.59084701538086,-237.81149291992188,-25.973976135253906,35.6662712097168,13.937333106994629,67.89551544189453,427.2410583496094,65535.0
19530.73686224016,-248.12290954589844,279.299072265625,32.60199737548828,-231.98464965820312,-32.87599182128906,27.21803092956543,6.979856491088867,61.65474319458008,423.127685546875,65535.0
19530.737262248713,-255.23980712890625,284.24627685546875,27.448545455932617,-231.95591735839844,-33.76396942138672,27.857179641723633,8.497048377990723,64.8805923461914,435.8852233886719,65535.0
19530.737662257263,-256.4451599121094,274.7635192871094,17.53412437438965,-238.4773712158203,-20.392440795898438,41.75007247924805,18.02019500732422,73.21904754638672,437.4565734863281,65535.0
19530.738062265817,-249.86277770996094,269.6401672363281,10.983207702636719,-243.62013244628906,-18.30156707763672,45.64573669433594,23.50777816772461,75.93876647949219,423.7917175292969,65535.0
19530.73846227437,-248.52386474609375,273.42254638671875,11.150938034057617,-241.84295654296875,-21.48542022705078,44.54233932495117,20.0777530670166,75.39459991455078,416.6718444824219,65535.0
19530.738862282924,-242.33895874023438,272.8822326660156,7.597924709320068,-243.063232421875,-31.662521362304688,32.98531723022461,9.741959571838379,66.06067657470703,415.7643737792969,65535.0
19530.739262291474,-231.24850463867188,276.5818176269531,11.859516143798828,-238.70606994628906,-35.490543365478516,29.046606063842773,3.870215892791748,63.56721496582031,431.3562316894531,65535.0
19530.739662300028,-234.8695526123047,270.2855529785156,12.582664489746094,-218.8551025390625,-24.779441833496094,40.2035026550293,16.988977432250977,71.45243072509766,419.4969787597656,65535.0
19530.74006230858,-229.94204711914062,277.0361328125,6.1324143409729,-227.2524871826172,-15.901697158813477,50.857486724853516,23.6354923248291,75.94853210449219,434.5693664550781,65535.0
19530.74046231713,-210.6947784423828,279.9214172363281,6.079339504241943,-227.8428497314453,-21.066905975341797,47.33565139770508,15.94942855834961,74.19258880615234,438.7349548339844,65535.0
19530.740862325685,-206.13980102539062,281.6181640625,21.798542022705078,-230.8846893310547,-31.232091903686523,38.537635803222656,12.525087356567383,67.15729522705078,429.8351745605469,65535.0
19530.74126233424,-197.23182678222656,264.5177917480469,17.55604362487793,-237.1044921875,-26.488893508911133,40.22321701049805,14.739583015441895,69.32586669921875,424.3425598144531,65535.0
19530.741662342793,-173.82412719726562,261.6949768066406,10.874255180358887,-250.76768493652344,-12.75162410736084,56.64555740356445,27.74672508239746,84.86442565917969,430.3611145019531,65535.0
19530.742062351343,-150.56820678710938,266.1296081542969,4.2572407722473145,-261.8238525390625,-10.712516784667969,61.61751937866211,29.955137252807617,82.79519653320312,426.2950439453125,65535.0
19530.742462359896,-128.61325073242188,262.11468505859375,4.273341178894043,-269.4271240234375,-9.510052680969238,65.2702407836914,30.75528335571289,85.3943862915039,415.7226867675781,65535.0
19530.74286236845,-136.86668395996094,267.98260498046875,6.8807692527771,-264.14642333984375,-19.085065841674805,57.315330505371094,21.13150978088379,76.02017974853516,417.62835693359375,65535.0
19530.743262377,-137.2994384765625,265.7688903808594,-0.8566426634788513,-274.9542541503906,-16.769920349121094,57.07822799682617,24.559307098388672,78.79225158691406,431.6246032714844,65535.0
19530.743662385554,-137.21835327148438,273.35516357421875,6.548549652099609,-288.85064697265625,-17.704761505126953,57.501102447509766,23.92935562133789,79.85139465332031,431.5471496582031,65535.0
19530.744062394107,-144.64663696289062,279.2096862792969,0.8819423913955688,-291.39874267578125,-15.039093017578125,62.5438232421875,25.181867599487305,80.5231704711914,434.5742492675781,65535.0
19530.74446240266,-143.8369598388672,266.369873046875,-8.643939971923828,-285.1389465332031,-19.619901657104492,61.063697814941406,21.082916259765625,75.5615005493164,435.51123046875,65535.0
19530.74486241121,-156.8948974609375,265.1329040527344,4.784206390380859,-287.1565856933594,-16.216089248657227,64.77720642089844,24.969297409057617,78.31632232666016,418.874755859375,65535.0
19530.745262419765,-157.07102966308594,264.7164001464844,6.136710166931152,-286.1687927246094,-19.28195571899414,64.37446594238281,23.626848220825195,78.39521789550781,421.8692626953125,65535.0
19530.74566242832,-164.24171447753906,265.1988830566406,9.22909927368164,-279.6783142089844,-21.325559616088867,59.20473098754883,19.787843704223633,74.70037078857422,428.6764221191406,65535.0
19530.74606243687,-177.5269775390625,265.6009826660156,21.387956619262695,-279.2037658691406,-16.16158103942871,66.33051300048828,26.357881546020508,79.3160629272461,429.5389404296875,65535.0
19530.746462445422,-185.20045471191406,273.073486328125,18.443313598632812,-278.56903076171875,-24.58502769470215,54.226314544677734,15.994544982910156,69.4389419555664,415.7718811035156,65535.0
19530.746862453976,-205.2821502685547,271.50225830078125,6.5384039878845215,-284.0224914550781,-18.20703125,58.293663024902344,20.640207290649414,76.18647766113281,421.0742492675781,65535.0
19530.74726246253,-233.2124481201172,268.8182373046875,13.093480110168457,-292.1007385253906,-9.868858337402344,71.59259033203125,29.446672439575195,86.1578140258789,426.4720764160156,65535.0
19530.74766247108,-233.8947296142578,260.8556213378906,18.70987319946289,-300.49176025390625,-18.152257919311523,59.39419937133789,19.73255729675293,76.17173767089844,434.9207763671875,65535.0
19530.748062479634,-234.00875854492188,248.49574279785156,20.41825294494629,-286.81488037109375,-22.520591735839844,55.00416946411133,17.291908264160156,76.27804565429688,429.2130432128906,65535.0
19530.748462488187,-226.83363342285156,260.02978515625,26.484867095947266,-287.5354919433594,-8.571998596191406,67.1582260131836,29.118698120117188,85.20425415039062,433.0898132324219,65535.0
19530.748862496737,-215.1278533935547,266.5634460449219,22.821043014526367,-287.83935546875,-13.140735626220703,66.31983184814453,29.753881454467773,84.13160705566406,426.6435241699219,65535.0
19530.74926250529,-215.27725219726562,260.4046630859375,21.598939895629883,-297.3847961425781,-16.685441970825195,58.49900436401367,22.575775146484375,80.42559051513672,421.3980712890625,65535.0
19530.749662513845,-206.64315795898438,256.5144958496094,18.959131240844727,-278.6287536621094,-17.94977569580078,57.03760528564453,22.106000900268555,78.37193298339844,428.85137939453125,65535.0
19530.7500625224,-232.70323181152344,260.3340148925781,19.659082412719727,-251.8077850341797,-6.627730846405029,70.64533996582031,36.24557876586914,90.57064819335938,426.21722412109375,65535.0
19530.75046253095,-262.7508850097656,264.1331787109375,12.48769474029541,-249.84457397460938,-21.36223793029785,57.10746765136719,21.910202026367188,77.43882751464844,422.035888671875,65535.0
19530.750862539502,-288.9810485839844,250.40602111816406,18.299057006835938,-257.4748840332031,-22.82851219177246,47.51673889160156,19.573484420776367,75.4055404663086,428.0600891113281,65535.0
19530.751262548056,-305.4337158203125,255.90476989746094,21.02263832092285,-284.0790100097656,-16.60924530029297,53.15108871459961,26.733123779296875,81.6923599243164,447.47210693359375,65535.0
19530.751662556606,-288.56927490234375,270.93658447265625,14.500232696533203,-301.779296875,-19.919191360473633,47.363990783691406,20.014606475830078,73.37874603271484,420.0714416503906,65535.0
19530.75206256516,-288.5848693847656,272.0418395996094,15.873108863830566,-309.1877746582031,-23.767446517944336,48.09326171875,18.47785186767578,75.03070831298828,414.4291687011719,65535.0
19530.752462573713,-278.37261962890625,260.4342346191406,21.03927993774414,-302.9533386230469,-27.346939086914062,40.65066146850586,15.037355422973633,71.13468170166016,427.6884460449219,65535.0
19530.752862582267,-290.1309814453125,259.9618835449219,27.923099517822266,-290.44964599609375,-30.07941436767578,32.95502853393555,10.510637283325195,66.97504425048828,433.5863037109375,65535.0
19530.753262590817,-307.2695617675781,256.5408935546875,23.653179168701172,-306.7725830078125,-28.083166122436523,32.430824279785156,9.812131881713867,63.919883728027344,409.0737609863281,65535.0
19530.75366259937,-319.7002258300781,260.4912109375,16.947019577026367,-352.6210632324219,-26.622344970703125,37.88798904418945,15.370261192321777,69.92162322998047,408.8377380371094,65535.0
19530.754062607924,-330.85479736328125,261.2497863769531,27.508541107177734,-377.8487548828125,-30.102930068969727,33.58138656616211,11.443873405456543,66.1505126953125,426.8369140625,65535.0
19530.754462616474,-328.12030029296875,262.68707275390625,29.403911590576172,-389.1903381347656,-50.719425201416016,6.962100028991699,-9.629901885986328,47.32632064819336,421.6463317871094,65535.0
19530.75486262503,-314.54864501953125,278.364013671875,11.456591606140137,-404.7088317871094,-42.29220962524414,10.757267951965332,-4.5774078369140625,52.38211441040039,427.9412536621094,65535.0
19530.755262633582,-315.3279113769531,279.931884765625,13.381757736206055,-396.1346435546875,-42.003028869628906,14.943964958190918,0.5761193633079529,56.00541687011719,421.2054748535156,65535.0
19530.755662642136,-318.4435119628906,268.3392028808594,14.781365394592285,-362.8453369140625,-44.66756057739258,10.67342758178711,-2.7258527278900146,52.63471984863281,433.8482666015625,65535.0
19530.756062650686,-302.3309020996094,268.14837646484375,13.079665184020996,-325.7506408691406,-48.25656509399414,2.6744225025177,-8.462069511413574,46.46810531616211,414.8302001953125,65535.0
19530.75646265924,-318.08551025390625,267.1451721191406,10.758835792541504,-288.2173767089844,-47.47364807128906,3.558943748474121,-6.563991546630859,47.38728332519531,417.1310729980469,65535.0
19530.756862667793,-316.82513427734375,263.6333923339844,12.21437931060791,-252.3094024658203,-44.41937255859375,6.910099983215332,-3.6515631675720215,50.39546203613281,430.10888671875,65535.0
19530.757262676343,-295.25494384765625,276.26580810546875,9.411623001098633,-211.32518005371094,-44.902740478515625,11.068477630615234,-3.466604471206665,50.95354461669922,419.59954833984375,65535.0
19530.757662684897,-293.1993103027344,269.6553039550781,14.415196418762207,-203.82481384277344,-30.528884887695312,23.919050216674805,10.389593124389648,62.91716003417969,423.87249755859375,65535.0
19530.75806269345,-281.0582580566406,263.6529846191406,8.78384017944336,-244.1659393310547,-34.659507751464844,23.626798629760742,7.818160533905029,60.560359954833984,411.8971862792969,65535.0
19530.758462702004,-272.80975341796875,259.937744140625,4.054141521453857,-279.01214599609375,-32.77339172363281,27.793140411376953,7.887181758880615,63.75128173828125,406.5023498535156,65535.0
19530.758862710554,-278.9236145019531,265.5503845214844,5.958664894104004,-312.6268310546875,-32.79313659667969,29.67922019958496,10.133347511291504,65.6540756225586,420.4950256347656,65535.0
19530.759262719108,-286.2093811035156,263.5477600097656,7.583070278167725,-304.99658203125,-42.050193786621094,21.58926773071289,1.969808578491211,58.65436553955078,416.81524658203125,65535.0
19530.75966272766,-279.25482177734375,268.8135681152344,2.4255285263061523,-295.83685302734375,-41.510154724121094,18.202831268310547,3.6675217151641846,58.088626861572266,429.0554504394531,65535.0
19530.76006273621,-279.0238952636719,271.37481689453125,10.247532844543457,-302.7602844238281,-38.149497985839844,21.200464248657227,4.923007965087891,61.272804260253906,418.92706298828125,65535.0
19530.760462744765,-266.7774658203125,270.4822998046875,8.087472915649414,-300.2236633300781,-42.946048736572266,20.11794662475586,0.030168287456035614,55.577430725097656,434.7243957519531,65535.0
19530.76086275332,-236.57333374023438,259.02166748046875,3.767948627471924,-288.774658203125,-34.234317779541016,24.669668197631836,6.050542831420898,61.2188720703125,417.49591064453125,65535.0
19530.761262761873,-207.56704711914062,247.24508666992188,3.278195858001709,-260.9504089355469,-23.319913864135742,39.962486267089844,17.086153030395508,71.85088348388672,412.4604797363281,65535.0
19530.761662770423,-190.94805908203125,251.470703125,3.0344431400299072,-204.41549682617188,-17.4215030670166,52.04005432128906,23.383007049560547,78.71781921386719,424.3348083496094,65535.0
19530.762062778977,-196.3050079345703,238.27577209472656,11.386234283447266,-147.7415008544922,-32.540225982666016,37.1729850769043,9.46494197845459,63.277130126953125,411.8416748046875,65535.0
19530.76246278753,-193.96337890625,237.90020751953125,0.3235006332397461,-134.39776611328125,-27.33207893371582,40.350460052490234,13.97963809967041,69.41829681396484,424.2081298828125,65535.0
19530.76286279608,-193.42909240722656,245.3437957763672,-5.648616313934326,-153.6139373779297,-23.95375633239746,44.9023551940918,14.788761138916016,69.13117218017578,434.145751953125,65535.0
19530.763262804634,-204.23606872558594,242.99844360351562,1.4402406215667725,-206.16387939453125,-28.31498146057129,44.250667572021484,11.941200256347656,67.72994995117188,427.5159912109375,65535.0
19530.763662813188,-199.78688049316406,245.82431030273438,-4.032827854156494,-255.69842529296875,-33.646507263183594,40.97573471069336,10.278176307678223,65.98418426513672,406.27227783203125,65535.0
19530.76406282174,-202.91006469726562,237.91604614257812,-9.955338478088379,-280.5304870605469,-31.001466751098633,41.51829147338867,9.507367134094238,65.52082824707031,407.5244445800781,65535.0
19530.76446283029,-214.0835723876953,241.34201049804688,-7.513867378234863,-285.6272888183594,-27.467830657958984,43.964237213134766,10.148866653442383,65.886474609375,418.85650634765625,65535.0
19530.764862838845,-218.48361206054688,247.96238708496094,-9.800804138183594,-264.7734069824219,-25.93562889099121,53.31014633178711,13.504347801208496,71.33939361572266,433.2823486328125,65535.0
19530.7652628474,-241.19384765625,250.49551391601562,-5.477822780609131,-255.98536682128906,-24.70686912536621,51.83452224731445,17.070247650146484,73.59940338134766,427.3681945800781,65535.0
19530.76566285595,-251.0479736328125,253.9376220703125,-3.4156782627105713,-242.215576171875,-32.97493362426758,42.32024002075195,9.753905296325684,65.2851333618164,422.82940673828125,65535.0
19530.766062864503,-262.0378112792969,256.8509826660156,0.3831266760826111,-230.4525909423828,-26.467357635498047,51.39771270751953,15.008020401000977,69.3912582397461,432.7659606933594,65535.0
19530.766462873056,-251.69741821289062,260.3199768066406,4.5123395919799805,-228.86102294921875,-23.65389633178711,55.69379806518555,19.099910736083984,73.69407653808594,421.9158935546875,65535.0
19530.76686288161,-239.7152862548828,258.8977355957031,20.533340454101562,-237.7855224609375,-20.644296646118164,54.538856506347656,22.04665756225586,73.45880889892578,415.3180236816406,65535.0
19530.76726289016,-225.1997833251953,262.0700988769531,18.94888687133789,-251.86276245117188,-16.017658233642578,58.60247039794922,23.011154174804688,78.29370880126953,413.1462097167969,65535.0
19530.767662898714,-226.92138671875,264.34710693359375,21.253353118896484,-248.85447692871094,-24.901073455810547,53.92875289916992,15.639461517333984,74.05874633789062,423.9417419433594,65535.0
19530.768062907267,-225.4859161376953,270.8385925292969,13.742781639099121,-240.8807373046875,-31.218061447143555,43.64540481567383,11.209772109985352,64.60798645019531,414.1445617675781,65535.0
19530.768462915818,-226.86631774902344,258.20166015625,7.868268013000488,-250.32997131347656,-22.290014266967773,49.968177795410156,18.14381980895996,72.20655059814453,423.7523498535156,65535.0
19530.76886292437,-231.49951171875,262.2799377441406,13.665438652038574,-243.87744140625,-20.240407943725586,56.56145095825195,21.730348587036133,77.25820922851562,420.04840087890625,65535.0
19530.769262932925,-230.34510803222656,266.3791809082031,11.488096237182617,-215.54811096191406,-15.907829284667969,56.7017936706543,23.23451042175293,78.31700134277344,423.48455810546875,65535.0
19530.76966294148,-240.55307006835938,265.4832458496094,9.8269681930542,-200.73175048828125,-18.780630111694336,54.36631393432617,22.160429000854492,76.70293426513672,421.1966857910156,65535.0
19530.77006295003,-269.7388916015625,270.59991455078125,7.534716606140137,-206.56175231933594,-26.720096588134766,46.073699951171875,13.92895221710205,68.8501205444336,423.8514709472656,65535.0
19530.770462958582,-288.16046142578125,281.9542541503906,8.684460639953613,-217.9235076904297,-12.556341171264648,61.52623748779297,27.520963668823242,82.75967407226562,421.78631591796875,65535.0
19530.770862967136,-272.97784423828125,277.4407653808594,6.706396579742432,-222.1382598876953,-18.564393997192383,56.925235748291016,27.305360794067383,83.30189514160156,421.7719421386719,65535.0
19530.771262975686,-265.516845703125,274.38671875,23.31307029724121,-209.0214080810547,-25.39215850830078,47.54014205932617,16.750186920166016,72.59709930419922,421.8273010253906,65535.0
19530.77166298424,-269.7406921386719,273.3372802734375,10.797607421875,-178.52786254882812,-22.662975311279297,48.26765441894531,16.378984451293945,76.57365417480469,413.5447082519531,65535.0
19530.772062992794,-268.0763854980469,273.91497802734375,8.024351119995117,-204.69390869140625,-18.943273544311523,49.911109924316406,20.004636764526367,74.73432922363281,416.757568359375,65535.0
19530.772463001347,-273.1974792480469,272.03033447265625,14.494948387145996,-238.32725524902344,-22.265073776245117,49.999794006347656,20.457733154296875,73.5350112915039,408.72906494140625,65535.0
19530.772863009897,-267.3356018066406,278.7654724121094,8.525670051574707,-247.4694366455078,-21.379480361938477,42.940406799316406,18.551345825195312,72.15398406982422,414.6223449707031,65535.0
19530.77326301845,-272.9956359863281,284.9537658691406,10.816841125488281,-225.01348876953125,-27.491731643676758,37.837196350097656,12.80774211883545,69.83589172363281,420.9769592285156,65535.0
19530.773663027005,-276.5855407714844,283.2719421386719,11.933877944946289,-210.94725036621094,-27.04742431640625,36.751708984375,12.264439582824707,69.36351013183594,428.697021484375,65535.0
19530.774063035555,-272.272216796875,291.7483215332031,4.4431071281433105,-208.0501708984375,-24.9898624420166,37.36204147338867,14.000210762023926,70.69950866699219,427.5613708496094,65535.0
19530.77446304411,-267.1451416015625,292.3700866699219,4.842362880706787,-201.44737243652344,-30.64998435974121,32.448204040527344,10.768308639526367,65.43196105957031,406.2922058105469,65535.0
19530.774863052662,-272.6734619140625,282.35040283203125,6.417952060699463,-190.82965087890625,-31.43351936340332,30.62401580810547,12.42922306060791,65.43794250488281,420.6076354980469,65535.0
19530.775263061216,-273.4459533691406,280.2173767089844,7.522654056549072,-191.12571716308594,-39.473567962646484,20.100034713745117,4.103034019470215,57.10038757324219,421.60888671875,65535.0
19530.775663069766,-263.90155029296875,270.7527770996094,9.064395904541016,-224.5260467529297,-39.08070755004883,18.467315673828125,1.939940333366394,56.921634674072266,421.5014343261719,65535.0
19530.77606307832,-275.07879638671875,274.98382568359375,10.432868003845215,-253.25003051757812,-41.95549392700195,13.49329662322998,-4.556038856506348,55.10628890991211,417.9670715332031,65535.0
19530.776463086873,-292.40179443359375,270.15997314453125,12.685647010803223,-303.9361877441406,-46.55021667480469,8.517757415771484,-8.680673599243164,47.496578216552734,416.5155029296875,65535.0
19530.776863095423,-300.4582214355469,267.3514099121094,6.597250938415527,-332.226806640625,-40.090484619140625,16.703083038330078,-0.4508683383464813,52.61457443237305,418.96026611328125,65535.0
19530.777263103977,-305.7589416503906,274.80377197265625,19.368432998657227,-336.58795166015625,-38.28416061401367,22.063926696777344,4.410714149475098,60.14696502685547,411.23907470703125,65535.0
19530.77766311253,-288.2261657714844,268.8587646484375,6.304226875305176,-358.2693176269531,-38.85291290283203,18.366615295410156,0.5404612421989441,57.51243209838867,417.6303405761719,65535.0
19530.778063121084,-276.6817321777344,282.966552734375,-6.240387439727783,-365.43267822265625,-43.4511833190918,20.092374801635742,-1.2794941663742065,54.76752471923828,411.3271789550781,65535.0
19530.778463129634,-279.1449890136719,284.4666442871094,3.1592416763305664,-390.38818359375,-46.19278335571289,13.321721076965332,-4.161413192749023,52.94231033325195,420.0336608886719,65535.0
19530.778863138188,-278.66436767578125,284.9398498535156,17.232038497924805,-393.9861755371094,-33.267757415771484,27.0111083984375,5.086086750030518,62.697532653808594,428.47930908203125,65535.0
19530.779263146742,-282.0929260253906,284.3690490722656,-0.06497644633054733,-364.41162109375,-41.422889709472656,20.901031494140625,1.49728262424469,54.552738189697266,415.76959228515625,65535.0
19530.779663155292,-282.87664794921875,275.26239013671875,8.13801383972168,-325.2305603027344,-47.627227783203125,16.43998908996582,-4.353492259979248,49.89161682128906,403.8184814453125,65535.0
19530.780063163846,-274.2442626953125,266.5474548339844,3.6349689960479736,-303.689453125,-37.49717712402344,25.951738357543945,3.8792688846588135,60.39750289916992,418.5516052246094,65535.0
19530.7804631724,-272.3192443847656,277.630615234375,0.06708132475614548,-281.68408203125,-36.894813537597656,28.647600173950195,4.673225402832031,57.65696716308594,420.1157531738281,65535.0
19530.780863180953,-263.7356262207031,277.2666320800781,9.90551471710205,-269.54827880859375,-34.47941589355469,32.222206115722656,7.002465724945068,58.99115753173828,410.9736022949219,65535.0
19530.781263189503,-256.5029602050781,258.83349609375,1.2148106098175049,-281.6915588378906,-43.0874137878418,23.04352569580078,0.4761858582496643,53.91978073120117,409.90924072265625,65535.0
19530.781663198057,-255.74220275878906,259.36865234375,-0.29078400135040283,-260.8992614746094,-36.269588470458984,30.213796615600586,3.920902967453003,63.4315299987793,414.7522888183594,65535.0
19530.78206320661,-258.5833740234375,256.27056884765625,3.6260015964508057,-255.415283203125,-29.174400329589844,40.21674346923828,9.744132041931152,67.87728881835938,420.8623962402344,65535.0
19530.78246321516,-254.064453125,236.92098999023438,-2.441967487335205,-269.6321105957031,-21.87929916381836,50.7606315612793,19.746780395507812,74.86460876464844,412.5504150390625,65535.0
19530.782863223714,-258.43011474609375,230.0904998779297,0.08952009677886963,-269.62506103515625,-15.21640396118164,59.84476089477539,26.304534912109375,79.40499114990234,416.13323974609375,65535.0
19530.783263232268,-264.135009765625,233.14315795898438,2.8538646697998047,-290.6256103515625,-18.000782012939453,61.108154296875,25.04789924621582,80.4939193725586,414.7861633300781,65535.0
19530.78366324082,-269.39251708984375,219.57322692871094,-5.097843647003174,-279.7756042480469,-26.04332733154297,55.48605728149414,18.06958770751953,75.5921401977539,416.1724853515625,65535.0
19530.78406324937,-282.60540771484375,212.6270751953125,-8.701925277709961,-279.5817565917969,-24.652435302734375,51.87998962402344,16.446142196655273,72.34296417236328,404.9361267089844,65535.0
19530.784463257925,-285.1117858886719,223.06546020507812,-24.784778594970703,-259.7659606933594,-29.270889282226562,50.45065689086914,14.172739028930664,70.91844177246094,408.2598571777344,65535.0
19530.78486326648,-282.12420654296875,226.14959716796875,-20.174232482910156,-239.8511505126953,-29.86854362487793,49.144222259521484,13.282848358154297,67.70603942871094,430.8036193847656,65535.0
19530.78526327503,-261.8345642089844,223.63796997070312,-15.954355239868164,-232.36373901367188,-16.976810455322266,63.32441329956055,20.54102325439453,79.18252563476562,418.84326171875,65535.0
19530.785663283583,-265.6658935546875,236.6493377685547,4.288242340087891,-216.3614959716797,-14.524985313415527,67.59029388427734,23.147258758544922,84.4720458984375,415.40203857421875,65535.0
19530.786063292137,-251.78282165527344,240.69583129882812,11.750734329223633,-208.91879272460938,-19.12070083618164,62.43657684326172,20.21182632446289,76.35565948486328,406.8179931640625,65535.0
19530.78646330069,-234.82469177246094,255.15814208984375,9.910268783569336,-213.67002868652344,-22.995132446289062,57.79827880859375,15.35158920288086,72.94982147216797,398.0604553222656,65535.0
19530.78686330924,-231.51498413085938,256.0865173339844,2.914306402206421,-226.67953491210938,-18.706602096557617,60.70989227294922,24.3792781829834,77.17344665527344,401.4930419921875,65535.0
19530.787263317794,-225.38296508789062,248.10951232910156,9.146522521972656,-226.14825439453125,-20.329605102539062,60.17304992675781,21.264741897583008,75.87442779541016,406.1456298828125,65535.0
19530.787663326348,-217.00428771972656,247.77345275878906,9.276580810546875,-225.72129821777344,-20.971036911010742,58.53065490722656,20.128721237182617,75.29634094238281,416.1669006347656,65535.0
19530.788063334898,-235.05072021484375,255.08921813964844,12.958343505859375,-240.71737670898438,-22.424846649169922,53.70872497558594,19.176715850830078,71.82598114013672,415.5032653808594,65535.0
19530.78846334345,-232.3158416748047,258.1083984375,10.989068984985352,-260.58203125,-23.888059616088867,54.7502555847168,18.296533584594727,71.50395965576172,417.8863830566406,65535.0
19530.788863352005,-217.89820861816406,251.0464324951172,4.047624588012695,-309.3152160644531,-22.157424926757812,56.90727996826172,18.897958755493164,74.18912506103516,419.50592041015625,65535.0
19530.78926336056,-226.17581176757812,255.40994262695312,5.557960510253906,-333.8175964355469,-13.754576683044434,64.29431915283203,26.114120483398438,82.63883972167969,400.29986572265625,65535.0
19530.78966336911,-238.80274963378906,259.6608581542969,13.634002685546875,-332.6566467285156,-16.33340835571289,63.15264892578125,22.710533142089844,80.26072692871094,419.0240173339844,65535.0
19530.790063377663,-233.588134765625,255.2748260498047,13.714102745056152,-347.232177734375,-23.34299087524414,55.76142883300781,18.213756561279297,75.70077514648438,422.4242248535156,65535.0
19530.790463386216,-231.62110900878906,252.77639770507812,5.535975456237793,-323.390869140625,-20.55116844177246,50.47772979736328,18.372575759887695,73.43421173095703,415.0965576171875,65535.0
19530.790863394766,-228.46734619140625,254.17562866210938,10.127092361450195,-299.456298828125,-16.160526275634766,56.60869598388672,22.311506271362305,78.91607666015625,415.30401611328125,65535.0
19530.79126340332,-220.61575317382812,257.5794677734375,3.579643726348877,-290.9424133300781,-30.66493797302246,41.9294319152832,8.05046558380127,66.64192962646484,419.1995849609375,65535.0
19530.791663411874,-235.4922332763672,260.2443542480469,1.1086519956588745,-276.28717041015625,-15.323262214660645,56.0968017578125,25.17765235900879,81.31090545654297,416.8019104003906,65535.0
19530.792063420427,-251.36996459960938,265.3268127441406,10.637713432312012,-296.1695861816406,-12.956249237060547,59.71829605102539,30.309589385986328,85.72346496582031,404.7959899902344,65535.0
19530.792463428977,-251.378662109375,255.2032928466797,13.415718078613281,-314.66644287109375,-21.85093879699707,48.79970169067383,17.747854232788086,75.25409698486328,415.75213623046875,65535.0
19530.79286343753,-247.19271850585938,260.87957763671875,5.2547149658203125,-295.1595764160156,-30.251768112182617,35.7938117980957,11.094945907592773,66.07244873046875,422.4953308105469,65535.0
19530.793263446085,-243.67784118652344,271.0832824707031,23.222360610961914,-294.96466064453125,-17.953691482543945,45.29378890991211,21.241716384887695,74.31629943847656,415.0986022949219,65535.0
19530.793663454635,-249.11900329589844,266.308349609375,19.603796005249023,-277.0653381347656,-26.721731185913086,42.81937026977539,16.4851016998291,70.30318450927734,412.8612976074219,65535.0
19530.79406346319,-226.72496032714844,256.56689453125,22.084810256958008,-252.81527709960938,-34.05546569824219,30.72132110595703,7.180447101593018,64.02296447753906,409.0928039550781,65535.0
19530.794463471742,-215.49151611328125,257.74798583984375,20.19548225402832,-255.3438720703125,-29.13484764099121,28.816740036010742,10.043436050415039,67.21488952636719,411.50946044921875,65535.0
19530.794863480296,-221.8254852294922,262.6268310546875,8.04996109008789,-266.24505615234375,-24.497743606567383,36.812828063964844,15.082707405090332,69.33445739746094,415.0992431640625,65535.0
19530.795263488846,-238.9710235595703,252.7939910888672,2.6102919578552246,-278.07806396484375,-30.844114303588867,33.100914001464844,11.31068229675293,67.45360565185547,407.3393859863281,65535.0
19530.7956634974,-253.9398651123047,249.50086975097656,-0.9291051626205444,-299.9327697753906,-34.55336380004883,23.417369842529297,6.473189353942871,62.94329833984375,407.39727783203125,65535.0
19530.796063505953,-258.4465637207031,256.7585754394531,-12.05527400970459,-285.6460876464844,-33.29769515991211,23.06038475036621,6.544375419616699,61.21187210083008,416.7406921386719,65535.0
19530.796463514504,-254.94932556152344,256.20123291015625,0.751695454120636,-269.5613098144531,-45.20195770263672,16.32501983642578,-2.2784664630889893,49.14570617675781,412.60321044921875,65535.0
19530.796863523057,-232.6361846923828,250.55865478515625,-10.207959175109863,-257.4608154296875,-40.38126754760742,20.06342887878418,-0.902033805847168,54.53532028198242,400.095703125,65535.0
19530.79726353161,-205.32716369628906,253.44947814941406,-11.488860130310059,-252.7435760498047,-32.85388946533203,25.690135955810547,4.710948467254639,63.07894515991211,406.1656188964844,65535.0
19530.797663540165,-200.6575164794922,248.79576110839844,-10.489401817321777,-266.81268310546875,-37.64628219604492,20.057836532592773,2.432546615600586,56.3931884765625,413.5310974121094,65535.0
19530.798063548715,-215.14093017578125,245.88241577148438,-6.879642486572266,-268.6195373535156,-32.93310546875,25.19142723083496,7.500634670257568,61.85841369628906,423.51708984375,65535.0
19530.79846355727,-236.5679931640625,254.40475463867188,-13.497519493103027,-259.4970703125,-35.39422607421875,24.156789779663086,4.048413276672363,60.51808166503906,410.5085754394531,65535.0
19530.798863565822,-256.9452819824219,253.04232788085938,-14.654582977294922,-254.98486328125,-34.66061782836914,25.16946029663086,5.8657612800598145,61.275875091552734,399.481689453125,65535.0
19530.799263574372,-257.672607421875,264.2828063964844,-13.54628849029541,-282.3441467285156,-30.485929489135742,32.896175384521484,10.57121753692627,66.17170715332031,417.291748046875,65535.0
19530.799663582926,-227.6681671142578,265.5529479980469,-21.959209442138672,-308.3555603027344,-30.112640380859375,32.291744232177734,9.395797729492188,64.66421508789062,409.147705078125,65535.0
19530.80006359148,-197.3987579345703,260.5582580566406,-17.75905990600586,-326.803955078125,-33.132484436035156,31.20090103149414,9.440557479858398,63.22526168823242,411.54901123046875,65535.0
19530.800463600033,-187.6688232421875,252.57650756835938,-13.263837814331055,-323.79840087890625,-35.00547409057617,27.906749725341797,3.889449119567871,58.641780853271484,408.22003173828125,65535.0
19530.800863608583,-198.8653564453125,254.23106384277344,-7.525706768035889,-296.2615966796875,-22.47498321533203,43.904850006103516,16.09886932373047,72.98551940917969,404.7177429199219,65535.0
19530.801263617137,-222.88543701171875,254.44235229492188,-17.768129348754883,-269.9072570800781,-42.857967376708984,27.157007217407227,2.8253300189971924,54.31184387207031,414.52630615234375,65535.0
19530.80166362569,-251.5597686767578,249.18209838867188,-16.993627548217773,-247.46627807617188,-34.60960388183594,33.62906265258789,5.9625935554504395,63.36621856689453,411.0028381347656,65535.0
19530.80206363424,-266.94598388671875,233.38067626953125,-6.690850734710693,-241.9722137451172,-41.69285583496094,29.964031219482422,1.1392436027526855,57.90253829956055,407.94122314453125,65535.0
19530.802463642794,-269.38543701171875,230.3026885986328,-14.370055198669434,-263.15155029296875,-33.56013870239258,33.564945220947266,5.223627090454102,58.96261978149414,405.05364990234375,65535.0
19530.802863651348,-283.7779846191406,231.95809936523438,-15.617009162902832,-260.634765625,-26.876266479492188,43.243011474609375,11.403399467468262,67.93049621582031,406.4259948730469,65535.0
19530.803263659902,-273.98126220703125,235.4984130859375,-12.890053749084473,-268.4771728515625,-20.095457077026367,55.17753982543945,22.748512268066406,77.3585433959961,400.0934753417969,65535.0
19530.803663668452,-274.55340576171875,230.30784606933594,-14.810673713684082,-273.0472106933594,-18.849714279174805,57.64719772338867,22.57241439819336,78.99134063720703,394.94366455078125,65535.0
19530.804063677006,-283.4231872558594,233.45822143554688,-23.507905960083008,-273.9338073730469,-19.55791664123535,57.339481353759766,22.261457443237305,77.77696228027344,406.2677917480469,65535.0
19530.80446368556,-258.9902038574219,233.70582580566406,-20.053604125976562,-290.1465148925781,-25.575605392456055,52.60007095336914,15.82699966430664,70.88129425048828,410.5843811035156,65535.0
19530.80486369411,-261.4117431640625,233.42153930664062,-7.495767116546631,-299.88800048828125,-22.182435989379883,59.800228118896484,21.698020935058594,75.66412353515625,403.6643371582031,65535.0
19530.805263702663,-270.0147399902344,231.0614776611328,-5.840617656707764,-281.3183898925781,-35.07085418701172,45.876121520996094,7.549849510192871,61.35883712768555,406.51727294921875,65535.0
19530.805663711217,-267.0193786621094,225.905029296875,-9.174878120422363,-281.6788330078125,-24.649858474731445,52.37020492553711,13.436142921447754,72.26126861572266,405.2125244140625,65535.0
19530.80606371977,-257.7533874511719,232.35643005371094,-3.912893772125244,-312.1027526855469,-24.310155868530273,57.60472106933594,19.501731872558594,75.15874481201172,410.66888427734375,65535.0
19530.80646372832,-254.8530731201172,237.73849487304688,-10.977485656738281,-337.3465881347656,-26.42685317993164,53.6704216003418,15.674067497253418,68.91053009033203,403.8437805175781,65535.0
19530.806863736874,-257.78594970703125,241.93310546875,-5.618462562561035,-354.0418701171875,-20.850006103515625,58.60904312133789,17.387781143188477,73.37028503417969,412.1902160644531,65535.0
19530.807263745428,-268.1635437011719,246.8475799560547,0.08709948509931564,-356.6252746582031,-30.851667404174805,49.85252380371094,12.583944320678711,64.51156616210938,418.95477294921875,65535.0
19530.807663753978,-267.473388671875,255.08926391601562,0.4483305811882019,-340.9318542480469,-28.814786911010742,46.16830062866211,10.951777458190918,64.97496032714844,414.8067321777344,65535.0
19530.80806376253,-278.8708190917969,244.52090454101562,12.328855514526367,-324.48162841796875,-23.2091007232666,54.6816520690918,17.526397705078125,72.63014221191406,418.1082458496094,65535.0
19530.808463771085,-303.13909912109375,242.02867126464844,9.77221965789795,-320.3983459472656,-19.711580276489258,61.427913665771484,21.706478118896484,77.79215240478516,418.39923095703125,65535.0
19530.80886377964,-306.52105712890625,241.10101318359375,7.0280256271362305,-328.42431640625,-26.373332977294922,51.506141662597656,14.995487213134766,70.44696807861328,408.4827575683594,65535.0
19530.80926378819,-303.3220520019531,242.44821166992188,1.2039239406585693,-324.9560852050781,-27.24327278137207,51.11320114135742,14.785563468933105,69.16879272460938,414.9862365722656,65535.0
19530.809663796743,-271.0469970703125,249.50344848632812,-0.6137728691101074,-339.2309265136719,-31.074378967285156,45.15448760986328,10.426061630249023,63.75556945800781,403.42584228515625,65535.0
19530.810063805297,-232.98599243164062,241.9821014404297,1.2621362209320068,-318.8282470703125,-25.260297775268555,51.56235122680664,15.337809562683105,70.15739440917969,403.92974853515625,65535.0
19530.810463813847,-229.88803100585938,241.7381591796875,0.5907274484634399,-288.6257629394531,-21.292240142822266,54.95326614379883,18.75992202758789,73.78238677978516,402.8505859375,65535.0
19530.8108638224,-231.82017517089844,250.37301635742188,9.82620906829834,-268.6637268066406,-30.141374588012695,41.478816986083984,11.118605613708496,64.53054809570312,402.3295593261719,65535.0
19530.811263830954,-243.646240234375,250.72019958496094,8.421314239501953,-235.15237426757812,-34.06631088256836,39.554569244384766,10.312590599060059,64.12580108642578,402.89501953125,65535.0
19530.811663839508,-250.47010803222656,250.7323455810547,0.6621679663658142,-205.398193359375,-20.658266067504883,54.13373565673828,20.8436222076416,74.24320983886719,410.7203674316406,65535.0
19530.812063848058,-243.74972534179688,262.0605773925781,2.989598035812378,-208.9718780517578,-26.295486450195312,43.12445068359375,11.069867134094238,68.3221206665039,417.7429504394531,65535.0
19530.81246385661,-229.30706787109375,263.2854919433594,9.655159950256348,-215.30984497070312,-33.93222427368164,35.20818328857422,8.20641803741455,64.68135833740234,409.9851379394531,65535.0
19530.812863865165,-229.92898559570312,260.858642578125,11.522167205810547,-219.84886169433594,-27.892778396606445,41.50444412231445,14.566734313964844,68.98734283447266,403.40185546875,65535.0
19530.813263873715,-240.52249145507812,264.442138671875,18.554813385009766,-229.28485107421875,-35.27120590209961,31.726089477539062,6.673164367675781,61.4986572265625,411.3202209472656,65535.0
19530.81366388227,-247.56747436523438,261.6388244628906,9.347196578979492,-238.1138458251953,-33.652740478515625,30.466930389404297,7.563789367675781,62.811397552490234,409.8568115234375,65535.0
19530.814063890823,-264.6131896972656,253.50901794433594,11.476508140563965,-246.09158325195312,-31.613767623901367,30.812345504760742,7.421318531036377,63.1883659362793,395.8561706542969,65535.0
19530.814463899376,-262.6536865234375,265.52178955078125,11.004815101623535,-241.6270294189453,-36.37863540649414,26.915132522583008,5.107316970825195,60.93563461303711,407.72235107421875,65535.0
19530.814863907926,-231.78018188476562,262.29217529296875,18.04279899597168,-238.82479858398438,-32.429046630859375,30.840242385864258,9.602588653564453,63.409671783447266,402.89801025390625,65535.0
19530.81526391648,-222.5984649658203,264.1301574707031,4.3166279792785645,-239.55374145507812,-25.86097526550293,36.77042007446289,12.722702026367188,70.57185363769531,404.87054443359375,65535.0
19530.815663925034,-227.1518096923828,271.51312255859375,0.3985538184642792,-240.83441162109375,-27.439315795898438,38.59596252441406,10.136805534362793,68.65409851074219,397.24359130859375,65535.0
19530.816063933584,-233.59228515625,258.3216247558594,3.0996975898742676,-241.0254669189453,-25.93293571472168,35.892642974853516,13.542171478271484,67.39080810546875,400.2908630371094,65535.0
19530.816463942137,-228.96917724609375,250.57290649414062,-3.818887948989868,-231.14256286621094,-22.5161075592041,43.21567916870117,18.44562339782715,71.5594711303711,411.89093017578125,65535.0
19530.81686395069,-236.40406799316406,243.9476318359375,1.417224645614624,-221.53738403320312,-27.510454177856445,39.489295959472656,15.031147956848145,68.31816864013672,393.5677490234375,65535.0
19530.817263959245,-235.45111083984375,250.2994842529297,-3.5590527057647705,-222.2091064453125,-28.27236557006836,37.44718933105469,13.334518432617188,67.76353454589844,399.37408447265625,65535.0
19530.817663967795,-207.26092529296875,246.79901123046875,0.5124672055244446,-235.29881286621094,-35.997291564941406,28.075122833251953,6.331822872161865,60.96123504638672,400.3932800292969,65535.0
19530.81806397635,-190.69818115234375,249.12110900878906,-2.8595988750457764,-235.9597930908203,-29.57197380065918,39.55268859863281,12.858948707580566,66.49015045166016,407.7640686035156,65535.0
19530.818463984902,-171.30274963378906,248.65440368652344,-10.776300430297852,-230.9127960205078,-33.47200012207031,32.88359451293945,5.682575225830078,63.04632568359375,406.2217102050781,65535.0
19530.818863993452,-142.3196563720703,252.7940673828125,-8.236856460571289,-231.9347381591797,-25.0041561126709,41.20153045654297,16.030797958374023,70.60282897949219,403.3826599121094,65535.0
19530.819264002006,-140.4001922607422,249.48133850097656,0.4699136018753052,-218.87420654296875,-19.99010467529297,48.94158172607422,22.1908016204834,74.68778228759766,411.9557800292969,65535.0
19530.81966401056,-141.73329162597656,246.5139617919922,-0.5260375738143921,-210.90330505371094,-31.191516876220703,37.18752670288086,9.414430618286133,64.90959930419922,403.791748046875,65535.0
19530.820064019113,-138.99269104003906,247.0664825439453,-7.711282253265381,-216.66424560546875,-19.5205135345459,49.304840087890625,19.97990608215332,76.3453369140625,396.29168701171875,65535.0
19530.820464027664,-146.57955932617188,238.85519409179688,-12.530299186706543,-215.68649291992188,-19.175872802734375,50.80146408081055,20.935396194458008,75.7022705078125,409.82794189453125,65535.0
19530.820864036217,-154.14724731445312,240.8886260986328,-12.364863395690918,-193.53732299804688,-26.80198860168457,45.29123306274414,14.896449089050293,70.14852905273438,403.51263427734375,65535.0
19530.82126404477,-158.923828125,240.25181579589844,-22.138490676879883,-187.28770446777344,-24.06145668029785,50.576419830322266,17.67098617553711,72.03291320800781,413.40155029296875,65535.0
19530.82166405332,-159.32623291015625,231.09185791015625,-13.685269355773926,-201.90020751953125,-30.663135528564453,46.34018325805664,13.920093536376953,66.20919036865234,404.9460754394531,65535.0
19530.822064061875,-151.49716186523438,229.01268005371094,-18.388111114501953,-207.44125366210938,-24.3262939453125,51.90922927856445,18.851558685302734,72.36015319824219,384.3828125,65535.0
19530.82246407043,-148.3623809814453,224.98265075683594,-21.929885864257812,-207.07789611816406,-33.79117202758789,42.80207824707031,9.337677001953125,65.27262878417969,399.19354248046875,65535.0
19530.822864078982,-147.5541534423828,216.06918334960938,-22.639360427856445,-217.66964721679688,-27.794645309448242,48.72924041748047,13.005600929260254,71.38280487060547,394.3838195800781,65535.0
19530.823264087532,-162.05392456054688,219.127197265625,-17.46786117553711,-256.58721923828125,-12.032181739807129,70.95692443847656,29.15326690673828,86.7845458984375,398.4925231933594,65535.0
19530.823664096086,-145.79991149902344,224.00076293945312,-27.107776641845703,-281.1451721191406,-16.764179229736328,64.97476959228516,25.90096092224121,83.12066650390625,413.395263671875,65535.0
19530.82406410464,-142.13363647460938,231.12847900390625,-31.48379898071289,-281.9955139160156,-14.289844512939453,68.66126251220703,24.71451759338379,81.88139343261719,408.38507080078125,65535.0
19530.82446411319,-126.0318603515625,223.36927795410156,-22.065475463867188,-274.0364685058594,-28.247529983520508,54.759300231933594,12.56606388092041,69.76817321777344,396.33746337890625,65535.0
19530.824864121743,-120.59815979003906,224.71737670898438,-22.435688018798828,-265.07659912109375,-22.160049438476562,59.20181655883789,18.13231658935547,73.36949920654297,402.5106201171875,65535.0
19530.825264130297,-137.73171997070312,229.14584350585938,-21.912691116333008,-265.1279602050781,-18.642593383789062,63.79987716674805,18.985469818115234,76.23460388183594,399.52386474609375,65535.0
19530.82566413885,-172.94595336914062,229.64866638183594,-25.54172706604004,-270.9701843261719,-21.09555435180664,61.42245101928711,15.603796005249023,75.93618774414062,403.83245849609375,65535.0
19530.8260641474,-197.69114685058594,241.6151123046875,-18.18878936767578,-260.60003662109375,-17.30394172668457,64.57847595214844,21.28851318359375,78.62699890136719,401.8595886230469,65535.0
19530.826464155954,-227.44369506835938,250.6629638671875,-18.912275314331055,-242.5750732421875,-18.8725643157959,64.47505187988281,21.34245491027832,77.51399230957031,393.4119567871094,65535.0
19530.826864164508,-248.53115844726562,244.02426147460938,-24.69179916381836,-233.6460723876953,-16.28571128845215,64.71508026123047,24.915462493896484,80.11104583740234,397.7290954589844,65535.0
19530.82726417306,-248.66514587402344,251.8162078857422,-17.143903732299805,-225.97555541992188,-19.024141311645508,62.595054626464844,22.120742797851562,77.62858581542969,400.2613830566406,65535.0
19530.827664181612,-271.4808044433594,247.7203826904297,-10.682120323181152,-215.60263061523438,-16.415285110473633,66.63372039794922,24.025339126586914,80.66265869140625,410.4168395996094,65535.0
19530.828064190166,-267.9990234375,236.01654052734375,-4.671028137207031,-210.84280395507812,-26.074804306030273,60.40618133544922,20.746957778930664,74.88510131835938,405.9281005859375,65535.0
19530.82846419872,-266.0718078613281,237.75979614257812,0.4237690269947052,-207.5960235595703,-22.903221130371094,54.233489990234375,16.32005500793457,73.8564224243164,400.294677734375,65535.0
19530.82886420727,-267.40362548828125,237.83084106445312,7.331547737121582,-235.76849365234375,-11.559396743774414,66.30415344238281,28.01648712158203,83.69316101074219,401.400146484375,65535.0
19530.829264215823,-252.12281799316406,223.8778076171875,3.7841012477874756,-259.8803405761719,-15.540933609008789,63.503028869628906,24.650493621826172,78.20166015625,400.0417785644531,65535.0
19530.829664224377,-263.6439514160156,228.7212371826172,-0.196446031332016,-285.75457763671875,-18.067537307739258,59.67621994018555,21.79904556274414,75.24081420898438,395.1336364746094,65535.0
19530.830064232927,-272.8929443359375,232.3025360107422,7.676454067230225,-293.0621337890625,-24.113130569458008,50.43349838256836,16.60072898864746,72.0289306640625,405.8229675292969,65535.0
19530.83046424148,-282.24981689453125,245.91444396972656,7.023902416229248,-307.0339050292969,-22.01436996459961,52.976619720458984,18.48948097229004,75.07576751708984,401.4356689453125,65535.0
19530.830864250034,-301.98358154296875,258.5052795410156,11.539069175720215,-300.45947265625,-25.53362464904785,49.697486877441406,15.039666175842285,71.89444732666016,397.5019836425781,65535.0
19530.831264258588,-296.0313720703125,258.4491882324219,8.914134979248047,-294.2362060546875,-36.610931396484375,38.949012756347656,6.470046520233154,63.09794998168945,391.8416748046875,65535.0
19530.831664267138,-293.1396179199219,245.08834838867188,14.526201248168945,-275.3712158203125,-44.13142013549805,32.56684875488281,2.0740442276000977,55.777992248535156,391.6115417480469,65535.0
19530.83206427569,-281.097900390625,255.69908142089844,11.985856056213379,-252.26864624023438,-34.140419006347656,32.63158416748047,6.118508338928223,59.802120208740234,395.2399597167969,65535.0
19530.832464284245,-288.7427062988281,260.4289245605469,8.325538635253906,-245.6964874267578,-35.40324783325195,30.905208587646484,3.474597930908203,59.759361267089844,395.8434753417969,65535.0
19530.832864292795,-274.3753662109375,253.62608337402344,-2.85517954826355,-222.60867309570312,-35.873390197753906,34.68730926513672,5.462194919586182,61.26357650756836,392.43133544921875,65535.0
19530.83326430135,-244.3204345703125,249.07977294921875,0.3184833526611328,-202.70697021484375,-35.73224639892578,30.743947982788086,4.78935432434082,62.55652618408203,403.67620849609375,65535.0
19530.833664309903,-244.4078826904297,243.70791625976562,10.469537734985352,-212.67918395996094,-32.58084487915039,35.51008987426758,10.381178855895996,66.0848617553711,404.06915283203125,65535.0
19530.834064318457,-240.85157775878906,242.96902465820312,12.217499732971191,-217.5237274169922,-33.48876190185547,30.67686653137207,8.4782075881958,63.08761978149414,418.2516784667969,65535.0
19530.834464327007,-234.4927215576172,245.34005737304688,16.57367515563965,-201.7781524658203,-27.600032806396484,36.98784637451172,10.385087013244629,66.8988037109375,409.8984375,65535.0
19530.83486433556,-229.38314819335938,238.71865844726562,8.590246200561523,-186.69615173339844,-27.50731658935547,37.300048828125,13.468612670898438,69.6926040649414,386.83990478515625,65535.0
19530.835264344114,-221.4285125732422,243.3377685546875,5.668041229248047,-176.1556396484375,-31.656368255615234,32.546356201171875,10.318690299987793,63.27557373046875,390.9550476074219,65535.0
19530.835664352664,-209.6089630126953,242.5598907470703,-10.461978912353516,-168.155517578125,-26.780384063720703,36.29361343383789,14.497296333312988,68.70404815673828,397.9767150878906,65535.0
19530.836064361218,-216.9861297607422,234.7008819580078,-9.629343032836914,-166.052001953125,-38.102935791015625,23.030986785888672,3.917302131652832,59.083465576171875,394.6754150390625,65535.0
19530.83646436977,-233.8741455078125,238.18243408203125,-14.714775085449219,-168.16429138183594,-30.81437873840332,29.904741287231445,10.749025344848633,65.88066864013672,397.1424255371094,65535.0
19530.836864378325,-234.1359100341797,240.74737548828125,-11.933737754821777,-188.8158416748047,-33.33840560913086,28.240619659423828,7.1393938064575195,61.2437744140625,397.1802978515625,65535.0
19530.837264386875,-218.49571228027344,246.66131591796875,-23.708358764648438,-219.81541442871094,-26.336387634277344,33.67617416381836,11.993316650390625,67.68611907958984,401.5567321777344,65535.0
19530.83766439543,-199.39967346191406,242.32928466796875,-26.198776245117188,-238.19021606445312,-28.69426918029785,32.3780632019043,13.655247688293457,67.39105987548828,392.3489685058594,65535.0
19530.838064403983,-185.7582244873047,234.11669921875,-21.998212814331055,-270.1737365722656,-38.57147216796875,25.757305145263672,4.349457740783691,59.3209228515625,403.1038818359375,65535.0
19530.838464412533,-188.15988159179688,230.06179809570312,-30.851646423339844,-302.0594177246094,-37.180233001708984,27.948087692260742,4.227694511413574,59.35137939453125,408.358642578125,65535.0
19530.838864421086,-205.10858154296875,246.44131469726562,-18.187238693237305,-310.3459167480469,-34.01973342895508,26.176284790039062,4.211395740509033,59.67586135864258,405.77337646484375,65535.0
19530.83926442964,-226.78265380859375,248.0973358154297,-16.07087516784668,-305.1786804199219,-24.95042610168457,42.09257125854492,14.162854194641113,71.15544891357422,390.57080078125,65535.0
19530.839664438194,-241.37026977539062,238.7904815673828,-26.289539337158203,-295.7795104980469,-32.71168518066406,37.91676712036133,10.98763370513916,65.81611633300781,377.734130859375,65535.0
19530.840064446744,-254.8641357421875,241.7696533203125,-18.325023651123047,-297.47113037109375,-29.029630661010742,39.11004638671875,11.18421745300293,64.95982360839844,397.7956237792969,65535.0
19530.840464455297,-248.84164428710938,236.9585418701172,-10.50287914276123,-277.97845458984375,-24.284595489501953,44.973079681396484,14.431018829345703,70.77734375,406.233642578125,65535.0
19530.84086446385,-244.75364685058594,234.2229766845703,-31.611318588256836,-277.20751953125,-32.06029510498047,39.125606536865234,9.218971252441406,65.51481628417969,391.702880859375,65535.0
19530.8412644724,-261.55731201171875,225.13882446289062,-33.099205017089844,-276.9739990234375,-27.08213233947754,41.8427734375,10.39100170135498,68.80342864990234,400.7626037597656,65535.0
19530.841664480955,-269.298828125,222.12747192382812,-32.10324478149414,-278.6588439941406,-20.20242691040039,49.538082122802734,19.373279571533203,73.98756408691406,397.30035400390625,65535.0
19530.84206448951,-288.4693603515625,217.95797729492188,-25.5827693939209,-294.5892028808594,-29.567520141601562,47.61277770996094,14.574024200439453,71.54560089111328,387.4153747558594,65535.0
19530.842464498062,-297.7136535644531,214.52044677734375,-26.41402244567871,-295.61798095703125,-22.800079345703125,58.00413513183594,19.217350006103516,74.90770721435547,395.9075012207031,65535.0
19530.842864506612,-283.6441650390625,205.5548858642578,-23.98911476135254,-276.3896179199219,-19.655061721801758,55.62190246582031,18.97222137451172,71.3193588256836,401.67327880859375,65535.0
19530.843264515166,-293.172607421875,197.4205780029297,-31.64575958251953,-259.86041259765625,-13.25197696685791,66.92263793945312,27.031091690063477,82.77362060546875,389.7850036621094,65535.0
19530.84366452372,-295.6239013671875,201.88629150390625,-37.10321807861328,-250.7637176513672,-12.48613452911377,69.31808471679688,25.5711727142334,81.52764129638672,404.46832275390625,65535.0
19530.84406453227,-296.4336242675781,202.45314025878906,-35.63918685913086,-240.9265899658203,-21.271350860595703,60.89951705932617,21.196752548217773,75.93032836914062,389.01788330078125,65535.0
19530.844464540824,-298.4344177246094,198.81004333496094,-34.00318145751953,-224.2168731689453,-11.900256156921387,73.81135559082031,30.877721786499023,86.66612243652344,379.31097412109375,65535.0
19530.844864549377,-285.44293212890625,201.80152893066406,-39.81964874267578,-224.47811889648438,-9.958290100097656,74.30599212646484,30.51518440246582,86.51820373535156,392.83148193359375,65535.0
19530.84526455793,-265.7392578125,210.13157653808594,-37.27003860473633,-240.30999755859375,-17.839555740356445,66.71810150146484,21.705041885375977,79.17616271972656,393.7208557128906,65535.0
19530.84566456648,-254.0423583984375,210.8072052001953,-26.938589096069336,-260.84075927734375,-15.567176818847656,70.48045349121094,24.86927604675293,82.6009521484375,400.40728759765625,65535.0
19530.846064575035,-250.75677490234375,203.69203186035156,-26.658349990844727,-260.3302001953125,-13.311148643493652,71.081298828125,27.042360305786133,82.58639526367188,394.6009216308594,65535.0
19530.84646458359,-241.12974548339844,204.56480407714844,-16.509899139404297,-269.08575439453125,-8.816888809204102,77.4001235961914,31.39188575744629,88.5481185913086,387.90179443359375,65535.0
19530.84686459214,-245.2269744873047,205.08139038085938,-28.51858901977539,-270.9426574707031,-1.960762619972229,84.74697875976562,39.21269989013672,95.42662811279297,393.8146667480469,65535.0
19530.847264600692,-258.84564208984375,200.77655029296875,-30.87192153930664,-277.61053466796875,-13.65711784362793,69.81140899658203,26.50230598449707,84.04718780517578,397.53680419921875,65535.0
19530.847664609246,-262.775390625,206.44985961914062,-15.544011116027832,-273.5197448730469,-24.6705265045166,57.59299087524414,18.87494659423828,76.48597717285156,387.6507568359375,65535.0
19530.8480646178,-285.02593994140625,207.68296813964844,-22.352590560913086,-246.38067626953125,-20.424997329711914,58.262840270996094,18.764705657958984,74.65144348144531,388.1368103027344,65535.0
19530.84846462635,-290.27935791015625,211.37681579589844,-17.6440486907959,-231.97409057617188,-18.700693130493164,63.851707458496094,21.299785614013672,76.82450103759766,384.70806884765625,65535.0
19530.848864634903,-276.95452880859375,228.39781188964844,-11.779949188232422,-229.3795928955078,-10.543333053588867,68.62555694580078,31.993722915649414,86.595703125,388.30999755859375,65535.0
19530.849264643457,-287.05902099609375,232.54319763183594,-17.884357452392578,-228.41860961914062,-7.017717361450195,72.7030029296875,34.89620590209961,88.56137084960938,401.66363525390625,65535.0
19530.849664652007,-284.2613525390625,245.3048858642578,-20.06662368774414,-246.428955078125,-11.679134368896484,70.69619750976562,29.63376235961914,85.1749038696289,397.2009582519531,65535.0
19530.85006466056,-274.3934326171875,251.996826171875,-11.84858226776123,-264.7938537597656,-16.59135627746582,61.819671630859375,26.214641571044922,82.89832305908203,378.7832336425781,65535.0
19530.850464669114,-274.4205627441406,239.1928253173828,-20.850223541259766,-274.34173583984375,-15.800436019897461,59.1025276184082,24.06079864501953,79.16698455810547,389.8831787109375,65535.0
19530.850864677668,-281.17303466796875,235.67372131347656,-20.66980743408203,-287.4578552246094,-18.240997314453125,57.844120025634766,23.273893356323242,79.722412109375,406.8260803222656,65535.0
19530.85126468622,-291.57684326171875,231.07017517089844,-10.522851943969727,-311.1706237792969,-21.86305046081543,52.839786529541016,19.203575134277344,74.73524475097656,394.35650634765625,65535.0
19530.851664694772,-305.9320068359375,224.2196502685547,-21.860279083251953,-300.25225830078125,-28.107648849487305,40.42231369018555,12.661150932312012,65.48582458496094,385.7835388183594,65535.0
19530.852064703326,-303.5017395019531,222.44647216796875,-17.393278121948242,-276.3503112792969,-22.109718322753906,46.79315948486328,17.914682388305664,72.83966064453125,387.3957214355469,65535.0
19530.852464711876,-303.8050231933594,219.55995178222656,-16.137636184692383,-271.4436950683594,-21.926698684692383,51.680580139160156,21.701358795166016,78.63040161132812,390.39459228515625,65535.0
19530.85286472043,-300.56500244140625,217.7303009033203,-23.36669158935547,-257.7821044921875,-32.73271942138672,34.206668853759766,7.42325496673584,65.44158172607422,387.6627197265625,65535.0
19530.853264728983,-296.66131591796875,214.0883331298828,-15.30134105682373,-231.5543212890625,-34.4217643737793,29.74350357055664,8.771363258361816,63.5545768737793,392.74365234375,65535.0
19530.853664737537,-290.5838623046875,222.79776000976562,-21.017436981201172,-230.013671875,-21.850595474243164,45.10261535644531,20.00734519958496,77.7397689819336,392.1934509277344,65535.0
19530.854064746087,-278.00384521484375,233.41358947753906,-20.017292022705078,-228.47959899902344,-18.092761993408203,47.48577880859375,21.07607650756836,76.03713989257812,399.0478515625,65535.0
19530.85446475464,-271.285888671875,237.3295135498047,-17.401655197143555,-223.50621032714844,-23.423994064331055,37.85273742675781,14.864449501037598,70.30138397216797,389.4750671386719,65535.0
19530.854864763194,-263.247802734375,242.87745666503906,-16.801055908203125,-233.44247436523438,-25.204607009887695,35.394683837890625,15.921051979064941,70.3025131225586,379.0973205566406,65535.0
19530.855264771744,-266.8314208984375,237.78524780273438,-16.007661819458008,-236.88865661621094,-34.1736946105957,29.00826644897461,10.515243530273438,61.40238571166992,388.8700866699219,65535.0
19530.855664780298,-269.0809631347656,230.65260314941406,-21.20816421508789,-215.0447235107422,-42.67347717285156,19.008264541625977,1.6623307466506958,56.48700714111328,403.2315368652344,65535.0
19530.85606478885,-275.84930419921875,238.01580810546875,-31.84683609008789,-224.68418884277344,-31.081872940063477,30.09455680847168,11.338109970092773,66.7457046508789,392.8636169433594,65535.0
19530.856464797405,-268.706787109375,224.4776611328125,-30.21139144897461,-234.16929626464844,-26.789350509643555,33.718994140625,12.914290428161621,67.275146484375,377.0976867675781,65535.0
19530.856864805955,-259.480224609375,219.38880920410156,-25.036130905151367,-246.89015197753906,-42.211021423339844,20.729143142700195,0.3322741985321045,54.651756286621094,380.66546630859375,65535.0
19530.85726481451,-258.1289978027344,224.01480102539062,-22.34041976928711,-256.1753234863281,-32.020912170410156,27.927162170410156,11.022377967834473,67.46356964111328,386.96484375,65535.0
19530.857664823063,-261.7803955078125,215.6678009033203,-31.09592628479004,-273.70965576171875,-18.860679626464844,45.448184967041016,21.860326766967773,76.33539581298828,384.363037109375,65535.0
19530.858064831613,-266.2200012207031,221.75062561035156,-42.37446212768555,-277.15692138671875,-31.991371154785156,34.04107666015625,10.577034950256348,62.836177825927734,392.4289245605469,65535.0
19530.858464840167,-258.9721984863281,224.5687255859375,-43.236724853515625,-273.3088684082031,-26.331247329711914,39.60952377319336,16.19991111755371,72.20767211914062,405.4860534667969,65535.0
19530.85886484872,-259.7663269042969,220.034423828125,-43.454830169677734,-250.9621124267578,-17.6756534576416,47.81438064575195,23.993892669677734,78.48074340820312,397.4206237792969,65535.0
19530.85926485727,-244.86207580566406,220.325439453125,-41.15774917602539,-252.682373046875,-21.00043296813965,46.72486877441406,19.703691482543945,74.58277130126953,401.8667297363281,65535.0
19530.859664865824,-241.86474609375,227.11767578125,-44.84160232543945,-255.2671356201172,-30.573436737060547,36.73033905029297,9.077421188354492,65.44410705566406,390.7923278808594,65535.0
19530.860064874378,-239.97866821289062,217.54127502441406,-43.72834014892578,-256.765380859375,-28.419729232788086,38.281185150146484,12.098028182983398,69.120849609375,388.2594299316406,65535.0
19530.86046488293,-247.09193420410156,212.8906707763672,-45.11688232421875,-249.54676818847656,-21.030929565429688,48.06945037841797,20.378164291381836,76.4126968383789,392.2035827636719,65535.0
19530.86086489148,-262.567138671875,221.19766235351562,-46.324527740478516,-248.8505096435547,-26.446969985961914,42.69951248168945,15.662209510803223,70.62318420410156,396.3244323730469,65535.0
19530.861264900035,-273.9304504394531,217.86929321289062,-54.95892333984375,-249.80413818359375,-26.225780487060547,43.41598892211914,13.93851375579834,68.83401489257812,382.9030456542969,65535.0
19530.86166490859,-268.1850891113281,217.00885009765625,-53.899574279785156,-252.08811950683594,-24.392316818237305,47.19823455810547,15.566329956054688,71.72876739501953,380.4147644042969,65535.0
19530.86206491714,-282.2493591308594,208.97129821777344,-65.18059539794922,-242.0424346923828,-28.54427719116211,44.169368743896484,11.946749687194824,67.0096206665039,394.71795654296875,65535.0
19530.862464925693,-279.1423645019531,206.47621154785156,-70.63117218017578,-225.49159240722656,-13.611612319946289,63.02832794189453,28.48581886291504,83.0020980834961,391.33441162109375,65535.0
19530.862864934246,-262.9583435058594,212.06442260742188,-70.82854461669922,-224.89332580566406,-6.410402297973633,71.7160873413086,36.116241455078125,89.55436706542969,390.22296142578125,65535.0
19530.8632649428,-261.1614074707031,217.39288330078125,-70.6502685546875,-216.1280059814453,-11.018895149230957,68.43409729003906,30.333707809448242,88.38951110839844,387.3854064941406,65535.0
19530.86366495135,-252.56561279296875,221.7039794921875,-64.7335205078125,-215.8820037841797,-11.757201194763184,68.75977325439453,28.07953453063965,85.21041107177734,387.26702880859375,65535.0
19530.864064959904,-245.76315307617188,219.8726806640625,-59.47145080566406,-201.46485900878906,-21.29632568359375,58.20338821411133,17.866943359375,73.97681427001953,389.3243103027344,65535.0
19530.864464968457,-231.7064971923828,226.6390838623047,-70.11164093017578,-188.50332641601562,-13.977664947509766,68.08990478515625,26.24624252319336,81.79423522949219,379.3372802734375,65535.0
19530.864864977008,-226.0852508544922,222.9096221923828,-74.114013671875,-188.8950653076172,-17.02379035949707,67.80433654785156,23.341106414794922,80.41043090820312,395.84222412109375,65535.0
19530.86526498556,-225.21942138671875,225.60665893554688,-62.68202209472656,-186.72158813476562,-19.216218948364258,64.64474487304688,19.194629669189453,76.1642837524414,401.69427490234375,65535.0
19530.865664994115,-238.1790771484375,222.34469604492188,-64.8609390258789,-181.7950439453125,-20.152103424072266,64.73259735107422,22.813138961791992,79.7012939453125,396.21697998046875,65535.0
19530.86606500267,-238.82435607910156,236.3909912109375,-59.53083038330078,-174.99090576171875,-26.73546600341797,56.101436614990234,11.64408016204834,69.54499053955078,399.0650634765625,65535.0
19530.86646501122,-256.8698425292969,231.5003662109375,-62.40936279296875,-180.893310546875,-12.63247013092041,69.32699584960938,29.228609085083008,82.24714660644531,384.91558837890625,65535.0
19530.866865019772,-263.6484680175781,241.1318359375,-66.780517578125,-188.8024139404297,-19.81322479248047,63.32200622558594,21.333044052124023,76.638916015625,387.20135498046875,65535.0
19530.867265028326,-269.887939453125,241.51632690429688,-61.89373016357422,-206.06761169433594,-17.40776252746582,64.01359558105469,24.181804656982422,78.90569305419922,383.7700500488281,65535.0
19530.867665036876,-272.21533203125,234.0834503173828,-58.71894073486328,-227.89512634277344,-16.523170471191406,65.29437255859375,25.51468849182129,79.38121032714844,387.9346923828125,65535.0
19530.86806504543,-272.16741943359375,234.20462036132812,-50.96284866333008,-246.71368408203125,-15.078662872314453,66.48369598388672,27.657073974609375,83.0947265625,390.5129089355469,65535.0
19530.868465053984,-280.2266540527344,242.8498992919922,-47.57107162475586,-252.90399169921875,-14.241496086120605,63.9535026550293,24.17255973815918,82.16431427001953,384.2015686035156,65535.0
19530.868865062537,-273.4797058105469,240.59371948242188,-57.67900848388672,-257.28387451171875,-16.034297943115234,64.41938018798828,24.049640655517578,80.5990982055664,388.6016540527344,65535.0
19530.869265071087,-251.84725952148438,251.4297637939453,-55.34939956665039,-267.2049865722656,-13.364662170410156,66.72245788574219,27.393339157104492,84.10480499267578,390.4835510253906,65535.0
19530.86966507964,-249.3812255859375,262.602294921875,-59.76753616333008,-286.6955261230469,-16.580726623535156,61.8763427734375,23.497594833374023,79.6370849609375,381.3771667480469,65535.0
19530.870065088195,-253.54127502441406,270.6897277832031,-61.65202713012695,-334.7069396972656,-19.24966812133789,59.216217041015625,25.403038024902344,79.98255920410156,374.1376953125,65535.0
19530.870465096745,-245.34368896484375,273.8961181640625,-52.72854995727539,-367.2485046386719,-17.6573486328125,58.07161331176758,21.512020111083984,76.69483184814453,390.13494873046875,65535.0
19530.8708651053,-239.27093505859375,275.74871826171875,-54.559425354003906,-351.63287353515625,-24.58670997619629,48.86719512939453,15.827712059020996,70.97280883789062,382.1756286621094,65535.0
19530.871265113852,-229.9957733154297,280.56622314453125,-54.87294006347656,-323.7200927734375,-18.57526397705078,54.052555084228516,21.83876609802246,79.48049926757812,392.2945251464844,65535.0
19530.871665122406,-212.48715209960938,269.22674560546875,-58.17934036254883,-293.3916015625,-22.53116226196289,49.45360565185547,16.352468490600586,72.50367736816406,394.4736633300781,65535.0
19530.872065130956,-206.59658813476562,271.238037109375,-58.64545440673828,-289.6927490234375,-17.986616134643555,55.53379821777344,24.977149963378906,79.0967788696289,391.59222412109375,65535.0
19530.87246513951,-207.4696502685547,273.6872253417969,-50.41312026977539,-304.2376708984375,-25.703041076660156,46.81536865234375,17.261899948120117,73.25862884521484,399.7481689453125,65535.0
19530.872865148063,-218.63865661621094,266.5234680175781,-52.0523681640625,-332.31219482421875,-25.45025634765625,44.37004089355469,15.444086074829102,74.04006958007812,378.25,65535.0
19530.873265156613,-214.7686767578125,269.9697570800781,-46.61159896850586,-342.7483215332031,-33.71906661987305,34.60002899169922,7.112668514251709,63.2285270690918,382.8690490722656,65535.0
19530.873665165167,-234.791015625,268.14727783203125,-48.88563537597656,-334.35968017578125,-33.30735778808594,30.52737808227539,7.099793910980225,63.1015510559082,392.5596923828125,65535.0
19530.87406517372,-258.6150207519531,265.88720703125,-56.58323287963867,-314.61529541015625,-41.23170471191406,21.0285701751709,-0.26347479224205017,56.5599365234375,394.6197814941406,65535.0
19530.874465182274,-278.5298767089844,268.8972473144531,-55.86735916137695,-282.62884521484375,-42.145721435546875,17.885337829589844,-2.5380120277404785,53.3121337890625,382.34490966796875,65535.0
19530.874865190824,-294.7173156738281,263.723388671875,-63.24032974243164,-247.735595703125,-38.05872344970703,20.287073135375977,1.8303958177566528,55.09260940551758,382.41357421875,65535.0
19530.87526519938,-292.0560302734375,256.4716491699219,-60.24721908569336,-232.09869384765625,-40.42007827758789,17.512102127075195,-0.9647566676139832,57.404911041259766,394.2944641113281,65535.0
19530.875665207932,-243.01901245117188,257.8016662597656,-45.803916931152344,-233.4534912109375,-33.706539154052734,23.634775161743164,5.142544746398926,61.710323333740234,391.5776672363281,65535.0
19530.876065216482,-216.5968017578125,249.07876586914062,-46.01997756958008,-244.3358917236328,-33.80664825439453,25.571979522705078,7.149677753448486,64.6264877319336,389.16253662109375,65535.0
19530.876465225036,-214.51475524902344,247.31593322753906,-57.76720428466797,-256.3131408691406,-32.389793395996094,30.1773738861084,8.043025970458984,66.68621826171875,391.1635437011719,65535.0
19530.87686523359,-222.99693298339844,232.39620971679688,-51.867347717285156,-268.1307067871094,-44.87827682495117,14.99697208404541,-2.891124725341797,52.49651336669922,375.9003601074219,65535.0
19530.877265242143,-220.45787048339844,227.93264770507812,-50.86545181274414,-277.4801940917969,-48.17515182495117,8.665640830993652,-7.551516532897949,50.307987213134766,374.9407958984375,65535.0
19530.877665250693,-206.8680877685547,227.9688720703125,-53.962039947509766,-278.3943786621094,-33.88478469848633,23.295202255249023,5.268489360809326,60.706844329833984,379.22015380859375,65535.0
19530.878065259247,-209.72718811035156,220.58033752441406,-56.583980560302734,-283.1474914550781,-36.126808166503906,23.12062644958496,5.531842231750488,58.457191467285156,369.4407653808594,65535.0
19530.8784652678,-209.5726776123047,235.33506774902344,-55.11648178100586,-276.1859130859375,-44.12689208984375,15.644163131713867,-1.5850026607513428,52.81584167480469,379.63458251953125,65535.0
19530.87886527635,-208.6279296875,239.0377655029297,-47.960235595703125,-260.6798095703125,-30.091678619384766,30.28196907043457,11.440669059753418,65.57238006591797,393.73187255859375,65535.0
19530.879265284904,-212.692138671875,248.89747619628906,-40.99680709838867,-253.11712646484375,-30.682188034057617,35.0131721496582,8.603508949279785,65.707275390625,393.6517333984375,65535.0
19530.879665293458,-216.15823364257812,252.67001342773438,-47.489349365234375,-254.7335968017578,-37.807769775390625,27.129636764526367,4.502772331237793,60.91803741455078,388.6507873535156,65535.0
19530.88006530201,-193.18359375,245.27513122558594,-60.94173049926758,-259.5365905761719,-38.528907775878906,26.118547439575195,6.185843467712402,58.37667465209961,372.98638916015625,65535.0
19530.88046531056,-164.64907836914062,242.9763946533203,-59.047119140625,-281.31085205078125,-41.35480880737305,23.298442840576172,-2.936310052871704,55.026145935058594,388.2875061035156,65535.0
19530.880865319115,-160.9092254638672,247.40818786621094,-53.850589752197266,-300.62188720703125,-18.370464324951172,49.11800003051758,21.20468521118164,75.50133514404297,391.6310119628906,65535.0
19530.88126532767,-158.05223083496094,247.6548309326172,-46.495094299316406,-303.1872253417969,-25.604095458984375,42.251129150390625,16.379032135009766,67.21797180175781,366.2710266113281,65535.0
19530.88166533622,-136.71287536621094,242.47328186035156,-55.08685302734375,-289.4408264160156,-29.252483367919922,37.210323333740234,8.014443397521973,65.46842956542969,391.30908203125,65535.0
19530.882065344773,-152.8291778564453,239.80567932128906,-48.17656707763672,-281.96063232421875,-28.068418502807617,43.333030700683594,12.073136329650879,65.99934387207031,382.8683776855469,65535.0
19530.882465353327,-147.9818878173828,226.79371643066406,-43.83427429199219,-272.81109619140625,-34.126380920410156,39.93071365356445,9.227461814880371,64.83016967773438,379.953857421875,65535.0
19530.88286536188,-150.14801025390625,223.8789520263672,-52.156768798828125,-264.6458435058594,-27.298511505126953,46.39332580566406,11.385942459106445,69.37652587890625,378.13433837890625,65535.0
19530.88326537043,-165.68104553222656,229.9508056640625,-52.50131607055664,-248.1893768310547,-26.680648803710938,47.66392517089844,14.871915817260742,69.09868621826172,384.8417663574219,65535.0
19530.883665378984,-171.32972717285156,227.96017456054688,-44.77012634277344,-239.75775146484375,-33.822452545166016,40.347007751464844,6.877102375030518,63.153560638427734,378.6252746582031,65535.0
19530.884065387538,-176.33665466308594,241.45106506347656,-44.01790237426758,-252.24932861328125,-27.46306610107422,47.734230041503906,13.94321346282959,68.52299499511719,371.428466796875,65535.0
19530.884465396088,-187.15853881835938,225.99964904785156,-40.724952697753906,-249.0558624267578,-25.018503189086914,51.104305267333984,14.644688606262207,69.51903533935547,385.1368713378906,65535.0
19530.88486540464,-198.33677673339844,221.64981079101562,-37.23317337036133,-258.0906677246094,-31.530704498291016,46.9483642578125,8.09484577178955,66.90611267089844,389.2882995605469,65535.0
19530.885265413195,-209.77914428710938,229.9198455810547,-20.95047378540039,-246.97708129882812,-26.031675338745117,56.22658157348633,15.17663288116455,71.82618713378906,372.3779296875,65535.0
19530.88566542175,-229.65643310546875,227.10565185546875,-17.97965431213379,-233.39810180664062,-30.505868911743164,49.87650680541992,10.732829093933105,65.37503814697266,370.8235168457031,65535.0
19530.8860654303,-252.16368103027344,225.0130615234375,-22.61993408203125,-230.54449462890625,-32.725528717041016,44.88937759399414,5.222361087799072,64.53157043457031,378.4410400390625,65535.0
19530.886465438853,-273.2131042480469,222.93658447265625,-21.11549186706543,-230.84942626953125,-29.304798126220703,49.81404113769531,10.17208194732666,67.43244171142578,377.6925354003906,65535.0
19530.886865447406,-273.28179931640625,225.4794921875,-25.33331298828125,-227.0841064453125,-27.91228485107422,53.622833251953125,11.932685852050781,69.1395263671875,383.466552734375,65535.0
19530.887265455956,-277.4733581542969,228.14736938476562,-24.912559509277344,-227.2159881591797,-30.22715950012207,51.53153991699219,13.86441421508789,68.03453063964844,376.43756103515625,65535.0
19530.88766546451,-285.9333190917969,237.33990478515625,-15.758545875549316,-229.98727416992188,-18.216838836669922,59.3347053527832,20.493301391601562,75.53541564941406,381.6783447265625,65535.0
19530.888065473064,-296.5743103027344,238.82583618164062,-6.434610843658447,-240.68515014648438,-21.98736572265625,60.89781188964844,20.49999237060547,77.0554428100586,394.7819519042969,65535.0
19530.888465481617,-314.3621520996094,243.38616943359375,-17.171419143676758,-265.86920166015625,-19.819477081298828,60.622379302978516,22.363821029663086,77.4422836303711,398.3752136230469,65535.0
19530.888865490168,-300.9231262207031,244.0325927734375,-15.97592544555664,-257.0966796875,-26.600067138671875,53.38633728027344,18.528076171875,71.0497055053711,393.2948913574219,65535.0
19530.88926549872,-289.271728515625,250.60008239746094,-5.531933307647705,-246.44346618652344,-20.890457153320312,53.73580551147461,19.301143646240234,74.87825012207031,368.8228759765625,65535.0
19530.889665507275,-268.6282653808594,255.6051025390625,-18.398954391479492,-255.10577392578125,-27.042680740356445,44.865074157714844,11.404781341552734,64.50737762451172,377.9274597167969,65535.0
19530.890065515825,-244.60989379882812,251.90350341796875,-16.827957153320312,-259.9376525878906,-21.589908599853516,53.778133392333984,16.85477066040039,75.28581237792969,374.71527099609375,65535.0
19530.89046552438,-217.98110961914062,257.9039001464844,-9.631662368774414,-279.2732238769531,-19.33374786376953,58.88298416137695,22.8529052734375,79.99286651611328,384.91455078125,65535.0
19530.890865532932,-190.16648864746094,257.9256896972656,-7.072895526885986,-289.63824462890625,-11.635805130004883,65.18025970458984,30.76337242126465,85.63307189941406,392.6612548828125,65535.0
19530.891265541486,-168.02456665039062,252.91256713867188,-11.792004585266113,-299.9786376953125,-14.035284042358398,60.829952239990234,27.30527687072754,82.1905746459961,384.5588684082031,65535.0
19530.891665550036,-173.54246520996094,239.03152465820312,-8.244665145874023,-295.15606689453125,-28.82016944885254,46.83393859863281,13.305623054504395,69.6614990234375,393.41357421875,65535.0
19530.89206555859,-163.6541748046875,245.841552734375,-3.3513143062591553,-306.6701965332031,-28.27845573425293,41.018348693847656,11.392202377319336,68.5550765991211,378.7920227050781,65535.0
19530.892465567144,-161.93214416503906,243.2078857421875,0.8219165205955505,-321.1219177246094,-21.984357833862305,49.658935546875,20.669429779052734,75.64830017089844,386.2923583984375,65535.0
19530.892865575694,-160.0346221923828,238.78407287597656,6.53340482711792,-335.4513854980469,-28.87218475341797,44.63694381713867,15.480002403259277,69.6274185180664,389.00738525390625,65535.0
19530.893265584247,-162.39981079101562,256.8374328613281,-0.28508949279785156,-334.4556884765625,-43.51885986328125,22.420488357543945,-3.721513509750366,52.685184478759766,384.17669677734375,65535.0
19530.8936655928,-167.23745727539062,258.10430908203125,1.8010435104370117,-351.6058654785156,-28.969518661499023,35.22737121582031,13.177029609680176,69.30120086669922,390.3272399902344,65535.0
19530.894065601355,-206.31918334960938,252.32261657714844,-7.182929992675781,-340.1487731933594,-36.18537902832031,29.249366760253906,6.670424461364746,59.70004653930664,378.7474060058594,65535.0
19530.894465609905,-226.0488739013672,260.4879455566406,-9.339784622192383,-292.3290100097656,-34.21687316894531,27.890438079833984,3.874629020690918,61.79536437988281,374.7254943847656,65535.0
19530.89486561846,-233.28131103515625,257.2071228027344,-6.960676670074463,-244.09017944335938,-27.062999725341797,35.505680084228516,8.885043144226074,67.59715270996094,379.6905212402344,65535.0
19530.895265627012,-247.25543212890625,257.7091369628906,-14.097831726074219,-254.8052520751953,-31.266849517822266,32.84109878540039,10.394893646240234,63.92118835449219,369.0649108886719,65535.0
19530.895665635562,-218.89512634277344,253.6825408935547,-16.97934913635254,-270.5145568847656,-27.742708206176758,34.90364074707031,12.075700759887695,68.87590789794922,375.3182373046875,65535.0
19530.896065644116,-207.5121612548828,250.33058166503906,-20.12395477294922,-275.54144287109375,-36.56754684448242,26.059925079345703,4.951414585113525,61.649959564208984,388.8301086425781,65535.0
19530.89646565267,-231.1420440673828,254.12631225585938,-17.346317291259766,-294.3338928222656,-42.038211822509766,16.880191802978516,0.4750065505504608,56.43464279174805,381.1543273925781,65535.0
19530.896865661223,-270.9186096191406,244.59559631347656,-19.854692459106445,-291.7489013671875,-33.90955352783203,28.472450256347656,4.536226749420166,63.64931869506836,364.900634765625,65535.0
19530.897265669773,-285.8221130371094,239.35316467285156,-21.429222106933594,-316.8846435546875,-33.61354064941406,27.796632766723633,6.674698829650879,59.866455078125,384.0517578125,65535.0
19530.897665678327,-288.0841979980469,239.1667938232422,-20.01631736755371,-352.35626220703125,-42.743865966796875,20.222759246826172,-1.3364248275756836,56.87754440307617,376.5068664550781,65535.0
19530.89806568688,-296.91973876953125,237.19862365722656,-24.303550720214844,-365.13128662109375,-34.37940979003906,24.99076271057129,5.354450225830078,60.23496627807617,366.5566101074219,65535.0
19530.89846569543,-307.0909118652344,249.4519500732422,-20.243947982788086,-393.1504211425781,-33.80389404296875,28.34267807006836,4.076909065246582,58.631404876708984,370.8636169433594,65535.0
19530.898865703984,-290.75982666015625,240.0909881591797,-24.701223373413086,-438.96728515625,-38.67997360229492,28.306686401367188,3.678622007369995,57.91005325317383,371.72723388671875,65535.0
19530.89926571254,-276.36676025390625,258.39910888671875,-24.801227569580078,-477.57427978515625,-39.408409118652344,26.13855743408203,2.235626697540283,57.322750091552734,366.2655334472656,65535.0
19530.899665721092,-278.14813232421875,250.3631591796875,-24.557397842407227,-498.1926574707031,-29.069128036499023,35.0260124206543,10.4066162109375,66.53577423095703,373.8056945800781,65535.0
19530.900065729642,-277.5509948730469,243.07122802734375,-26.96883201599121,-486.8902282714844,-38.87034225463867,27.879276275634766,2.9875195026397705,60.98521423339844,367.8689270019531,65535.0
19530.900465738196,-263.6112976074219,252.2927703857422,-23.503448486328125,-426.9151611328125,-25.280271530151367,44.88472366333008,15.615053176879883,71.14441680908203,364.8634033203125,65535.0
19530.90086574675,-256.9320068359375,238.9705810546875,-26.391155242919922,-381.7351379394531,-24.59404754638672,45.478538513183594,15.334263801574707,69.06546783447266,376.6882019042969,65535.0
19530.9012657553,-252.8963623046875,232.2819366455078,-36.517356872558594,-369.7867126464844,-24.70669174194336,46.617820739746094,14.330833435058594,69.63540649414062,369.0833740234375,65535.0
19530.901665763853,-240.01390075683594,239.17684936523438,-28.77121353149414,-369.701904296875,-27.265344619750977,45.18925857543945,12.772224426269531,68.10874938964844,369.2489929199219,65535.0
19530.902065772407,-229.33169555664062,229.27696228027344,-36.02903366088867,-414.7590026855469,-31.705869674682617,45.0048713684082,7.9561028480529785,65.23474884033203,372.8760070800781,65535.0
19530.90246578096,-225.26060485839844,217.1219940185547,-41.97127914428711,-439.3384094238281,-32.34698486328125,44.95918655395508,7.829032897949219,64.15609741210938,371.0736083984375,65535.0
19530.90286578951,-225.44386291503906,222.466552734375,-29.515344619750977,-407.9620666503906,-38.140098571777344,36.04693603515625,3.752692937850952,55.139705657958984,365.3338623046875,65535.0
19530.903265798064,-229.23391723632812,219.19273376464844,-38.923667907714844,-380.4338073730469,-21.720834732055664,53.42852020263672,17.981882095336914,71.60952758789062,364.03912353515625,65535.0
19530.903665806618,-213.7462158203125,213.185302734375,-40.62030029296875,-342.1088562011719,-22.81572723388672,56.20525360107422,17.063247680664062,72.38899230957031,361.82501220703125,65535.0
19530.904065815168,-194.2836151123047,208.33566284179688,-42.201995849609375,-322.6995849609375,-30.686683654785156,51.92998504638672,12.818648338317871,68.19479370117188,360.65740966796875,65535.0
19530.90446582372,-198.186767578125,209.02658081054688,-37.170440673828125,-322.56463623046875,-16.08705711364746,62.809200286865234,22.81029510498047,77.85196685791016,373.7454528808594,65535.0
19530.904865832275,-218.72793579101562,222.2592010498047,-38.49805450439453,-313.06036376953125,-21.10704803466797,62.537376403808594,20.554445266723633,73.07599639892578,367.5166015625,65535.0
19530.90526584083,-203.81472778320312,228.59213256835938,-30.005168914794922,-294.93292236328125,-21.585308074951172,63.1959228515625,18.76816177368164,76.36308288574219,370.8829650878906,65535.0
19530.90566584938,-212.6855010986328,229.02305603027344,-15.226818084716797,-255.4825897216797,-12.3685941696167,70.83920288085938,29.312641143798828,83.07767486572266,371.4454650878906,65535.0
19530.906065857933,-206.86207580566406,235.4427032470703,-18.20452880859375,-207.48709106445312,-14.313668251037598,69.03695678710938,28.67693328857422,81.86187744140625,370.30126953125,65535.0
19530.906465866487,-192.063232421875,229.03636169433594,-6.504369735717773,-178.7672882080078,-15.435583114624023,67.49771118164062,25.04073715209961,78.64978790283203,380.9762268066406,65535.0
19530.906865875037,-196.54196166992188,224.00132751464844,-13.93209171295166,-167.89096069335938,-19.657798767089844,62.763084411621094,23.2865047454834,76.62853240966797,374.00128173828125,65535.0
19530.90726588359,-221.9002227783203,232.2510986328125,-19.753765106201172,-182.90277099609375,-24.039867401123047,59.862640380859375,15.479989051818848,73.45087432861328,364.3111267089844,65535.0
19530.907665892144,-248.44102478027344,242.3237762451172,-15.300247192382812,-202.68626403808594,-22.724504470825195,60.66972732543945,16.722625732421875,72.78484344482422,372.8629455566406,65535.0
19530.908065900698,-274.760498046875,244.3357391357422,-6.252547264099121,-231.34603881835938,-28.386913299560547,51.97032165527344,10.54131031036377,66.96727752685547,369.12567138671875,65535.0
19530.908465909248,-279.725341796875,248.8001251220703,-18.09039306640625,-245.65740966796875,-24.302640914916992,54.56119918823242,18.71414566040039,73.94147491455078,377.5002746582031,65535.0
19530.9088659178,-278.35772705078125,247.70289611816406,-18.03399658203125,-258.30126953125,-10.315114974975586,74.1905288696289,29.879920959472656,85.81754302978516,380.7967834472656,65535.0
19530.909265926355,-276.4944763183594,242.898681640625,-16.8780574798584,-267.55316162109375,-11.316825866699219,69.08380889892578,26.39921760559082,83.42060852050781,380.71112060546875,65535.0
19530.909665934905,-254.94239807128906,241.83883666992188,-15.993241310119629,-260.44232177734375,-17.736705780029297,61.98213195800781,23.092313766479492,77.3320541381836,369.8597106933594,65535.0
19530.91006594346,-247.10299682617188,244.4013214111328,-5.799554347991943,-259.42156982421875,-16.45613670349121,61.85164260864258,26.918991088867188,81.58216094970703,381.93157958984375,65535.0
19530.910465952013,-220.2115936279297,235.70184326171875,-20.629661560058594,-279.6495056152344,-20.985593795776367,57.6386833190918,23.3031005859375,77.11865234375,371.6133728027344,65535.0
19530.910865960566,-202.20645141601562,240.86813354492188,-14.840815544128418,-288.5641174316406,-30.40762710571289,44.06724548339844,10.362183570861816,66.21588897705078,377.1751708984375,65535.0
19530.911265969116,-211.021240234375,237.39613342285156,-11.400614738464355,-290.25140380859375,-29.98952865600586,40.942466735839844,9.336777687072754,65.23045349121094,376.8127136230469,65535.0
19530.91166597767,-231.6427001953125,241.82083129882812,-19.721569061279297,-305.7065734863281,-24.21241569519043,47.323944091796875,15.111405372619629,71.4962158203125,371.4603271484375,65535.0
19530.912065986224,-236.54849243164062,251.56544494628906,-7.975572109222412,-321.63775634765625,-25.157609939575195,44.88272476196289,13.703071594238281,70.58055877685547,380.51910400390625,65535.0
19530.912465994774,-246.46890258789062,261.46826171875,-6.785557270050049,-331.5337219238281,-25.571062088012695,43.3414306640625,15.26645278930664,71.64199829101562,367.5150451660156,65535.0
19530.912866003328,-265.2721252441406,262.4689636230469,-16.729812622070312,-312.9434509277344,-30.97983741760254,37.89956283569336,10.218647003173828,64.18234252929688,360.3941650390625,65535.0
19530.91326601188,-279.6313781738281,265.0046081542969,1.2185295820236206,-302.8791198730469,-34.950286865234375,35.64788055419922,9.082664489746094,64.14649963378906,370.1200866699219,65535.0
19530.913666020435,-291.67596435546875,266.5369567871094,6.780235290527344,-290.6713562011719,-26.679235458374023,41.65150451660156,14.700141906738281,69.47039031982422,363.58917236328125,65535.0
19530.914066028985,-274.1959228515625,256.2717590332031,-5.4549126625061035,-296.1385192871094,-33.580665588378906,31.95819664001465,7.253818511962891,63.19361877441406,364.9513854980469,65535.0
19530.91446603754,-257.34771728515625,255.73681640625,5.5574517250061035,-289.441162109375,-38.78763961791992,25.792430877685547,-0.47404739260673523,59.08692169189453,370.6964111328125,65535.0
19530.914866046092,-248.39395141601562,251.12705993652344,3.0092573165893555,-273.4830627441406,-37.15421676635742,24.930240631103516,1.1817009449005127,58.36361312866211,383.813232421875,65535.0
19530.915266054642,-233.82920837402344,243.97389221191406,-6.5241899490356445,-260.6402282714844,-36.88270950317383,23.16740608215332,3.9272069931030273,58.62595748901367,359.17657470703125,65535.0
19530.915666063196,-247.1379852294922,233.80950927734375,-10.04111385345459,-270.232177734375,-38.222755432128906,23.24872589111328,4.774184226989746,56.90265655517578,357.46240234375,65535.0
19530.91606607175,-261.9942626953125,222.69483947753906,-5.127142429351807,-281.6736145019531,-41.006595611572266,23.437572479248047,2.072455883026123,55.54440689086914,368.78411865234375,65535.0
19530.9164660803,-279.87890625,235.17091369628906,-10.832308769226074,-298.9439392089844,-38.33488082885742,23.275291442871094,3.8146989345550537,55.83075714111328,352.7106018066406,65535.0
19530.916866088854,-287.5937805175781,233.94837951660156,-9.563220977783203,-302.2096862792969,-41.012474060058594,21.398134231567383,2.56158185005188,54.488555908203125,353.8529968261719,65535.0
19530.917266097407,-278.6824951171875,226.46066284179688,-18.483505249023438,-296.6462707519531,-39.544063568115234,23.327350616455078,2.8528521060943604,55.40883255004883,369.9887390136719,65535.0
19530.91766610596,-263.4870910644531,226.61778259277344,-25.573457717895508,-287.2718200683594,-39.44472122192383,20.209749221801758,1.0554395914077759,55.34727096557617,364.9734802246094,65535.0
19530.91806611451,-253.3236846923828,233.30067443847656,-16.646909713745117,-294.6184997558594,-34.76072311401367,25.78923797607422,4.122660160064697,62.057411193847656,362.2200927734375,65535.0
19530.918466123065,-260.4046936035156,235.42872619628906,-26.677473068237305,-327.3862609863281,-40.1585693359375,20.937946319580078,0.11928761750459671,55.615806579589844,372.03472900390625,65535.0
19530.91886613162,-249.86648559570312,240.27804565429688,-24.832311630249023,-339.16900634765625,-41.918827056884766,18.352035522460938,-1.0586613416671753,52.448394775390625,363.3204650878906,65535.0
19530.91926614017,-245.9499969482422,239.87612915039062,-25.119733810424805,-335.2767333984375,-40.78168487548828,20.844266891479492,-0.42757588624954224,52.918785095214844,375.6568298339844,65535.0
19530.919666148722,-240.9761199951172,239.45864868164062,-18.596155166625977,-335.5527648925781,-36.093048095703125,26.621007919311523,3.219914436340332,59.6668815612793,374.91583251953125,65535.0
19530.920066157276,-249.00257873535156,236.8715057373047,-29.304243087768555,-336.6689758300781,-31.027545928955078,35.374122619628906,10.323784828186035,63.25757598876953,376.5125427246094,65535.0
19530.92046616583,-248.20779418945312,246.3344268798828,-23.315303802490234,-346.31146240234375,-33.240657806396484,34.57796096801758,8.527290344238281,64.46795654296875,362.5090637207031,65535.0
19530.92086617438,-234.528076171875,237.73684692382812,-15.673458099365234,-355.6347351074219,-27.107044219970703,44.13349914550781,14.179325103759766,70.29840087890625,362.0115966796875,65535.0
19530.921266182933,-238.1931915283203,241.12681579589844,-11.123173713684082,-349.7120056152344,-21.960214614868164,48.51688003540039,16.852188110351562,72.49678802490234,368.221435546875,65535.0
19530.921666191487,-242.10845947265625,247.29180908203125,-20.577159881591797,-338.093994140625,-29.330400466918945,41.0941276550293,10.909733772277832,66.98674011230469,361.330078125,65535.0
19530.922066200037,-245.43338012695312,233.14112854003906,-28.487062454223633,-342.27508544921875,-29.90932846069336,42.461273193359375,11.395913124084473,66.99927520751953,379.7393493652344,65535.0
19530.92246620859,-265.7383117675781,240.23104858398438,-32.09816360473633,-339.8928527832031,-27.191984176635742,46.217098236083984,10.1065034866333,67.22224426269531,369.5472412109375,65535.0
19530.922866217144,-261.30865478515625,241.22796630859375,-20.612300872802734,-328.6215515136719,-17.96002769470215,56.93715286254883,20.23517608642578,76.32754516601562,361.06939697265625,65535.0
19530.923266225698,-278.7369079589844,238.25595092773438,-11.963711738586426,-311.9083251953125,-23.33530616760254,55.58135223388672,19.465057373046875,73.70347595214844,367.5113830566406,65535.0
19530.92366623425,-275.528076171875,242.90850830078125,-26.285715103149414,-305.7799377441406,-28.51611328125,50.134307861328125,10.901190757751465,65.92198944091797,363.0945129394531,65535.0
19530.924066242802,-268.9697265625,241.558349609375,-30.99896240234375,-300.1264343261719,-18.426088333129883,60.585548400878906,20.657682418823242,76.95465087890625,362.3050842285156,65535.0
19530.924466251356,-269.50933837890625,232.83297729492188,-31.44862937927246,-293.28851318359375,-16.792844772338867,64.2973403930664,24.668533325195312,80.69789123535156,359.99468994140625,65535.0
19530.924866259906,-275.6947021484375,239.64186096191406,-31.156118392944336,-284.1860656738281,-26.121492385864258,56.94874954223633,15.364785194396973,69.39227294921875,373.6773376464844,65535.0
19530.92526626846,-278.7630920410156,251.98338317871094,-25.898487091064453,-289.1799621582031,-11.858163833618164,73.7306137084961,29.56517791748047,83.87968444824219,359.58380126953125,65535.0
19530.925666277013,-270.0437927246094,244.7172088623047,-20.47529411315918,-290.7132568359375,-4.417557239532471,84.05955505371094,38.64939498901367,93.3718490600586,363.8519287109375,65535.0
19530.926066285567,-266.7506408691406,237.83984375,-15.825490951538086,-294.3311767578125,-7.716762065887451,78.92943572998047,32.442474365234375,88.13325500488281,376.0985107421875,65535.0
19530.926466294117,-253.7248077392578,241.85574340820312,-15.281867027282715,-290.6429443359375,-15.901172637939453,69.09879302978516,23.780744552612305,79.83157348632812,366.7300720214844,65535.0
19530.92686630267,-259.99755859375,237.68702697753906,-20.491426467895508,-268.0683898925781,-15.626583099365234,69.6119155883789,24.10740089416504,81.9518814086914,366.43896484375,65535.0
19530.927266311224,-242.2344512939453,234.26564025878906,-9.197931289672852,-243.97122192382812,-11.083906173706055,69.87787628173828,30.059873580932617,82.43385314941406,366.6558837890625,65535.0
19530.927666319774,-230.9216766357422,243.49270629882812,-15.508075714111328,-241.77781677246094,-15.512977600097656,65.2353744506836,26.29882049560547,79.09540557861328,371.34783935546875,65535.0
19530.928066328328,-227.0447235107422,249.81167602539062,-21.765920639038086,-253.0087127685547,-12.144203186035156,65.8599624633789,27.984745025634766,82.914306640625,356.636474609375,65535.0
19530.92846633688,-231.62461853027344,250.69190979003906,-21.286653518676758,-252.24386596679688,-20.299970626831055,63.37687683105469,21.70272445678711,77.74403381347656,359.1418151855469,65535.0
19530.928866345435,-224.33140563964844,252.99826049804688,-18.0760498046875,-244.51602172851562,-15.674126625061035,64.89041900634766,26.689640045166016,80.29230499267578,370.3631286621094,65535.0
19530.929266353985,-191.5371551513672,249.32589721679688,-9.330511093139648,-243.67074584960938,-11.628471374511719,69.66632843017578,29.752222061157227,83.5658187866211,378.7503967285156,65535.0
19530.92966636254,-189.186279296875,245.79562377929688,-3.4196460247039795,-230.22511291503906,-14.928833961486816,61.33256912231445,24.39402961730957,83.31531524658203,368.0295104980469,65535.0
19530.930066371093,-204.43170166015625,241.07376098632812,-12.391006469726562,-236.0465850830078,-13.088617324829102,63.59257507324219,26.804092407226562,83.38231658935547,364.1108093261719,65535.0
19530.930466379643,-200.08412170410156,239.9425811767578,-20.370014190673828,-257.4970397949219,-11.667760848999023,66.23558807373047,28.704513549804688,82.12947845458984,363.3822937011719,65535.0
19530.930866388197,-215.3607940673828,236.93179321289062,-16.886444091796875,-280.3294372558594,-9.874114990234375,67.30433654785156,32.76141357421875,85.50961303710938,362.56280517578125,65535.0
19530.93126639675,-232.5992431640625,240.92813110351562,-10.589956283569336,-306.8018798828125,-16.799854278564453,56.127960205078125,23.121902465820312,78.29638671875,368.2806701660156,65535.0
19530.931666405304,-222.4568328857422,242.63723754882812,-8.03377628326416,-308.0616149902344,-19.213973999023438,57.099246978759766,24.465898513793945,80.95403289794922,368.9342956542969,65535.0
19530.932066413854,-247.34054565429688,240.61880493164062,-7.5622124671936035,-273.101806640625,-22.265830993652344,49.43239212036133,18.111391067504883,74.0805435180664,374.087646484375,65535.0
19530.932466422408,-275.34478759765625,238.5208282470703,-17.88075065612793,-265.9712829589844,-23.64334487915039,42.428951263427734,15.23265266418457,70.52186584472656,359.6658020019531,65535.0
19530.93286643096,-289.7579650878906,244.7852020263672,-20.531503677368164,-297.2465515136719,-13.803825378417969,55.008018493652344,25.565196990966797,83.97711944580078,361.5200500488281,65535.0
19530.93326643951,-263.83978271484375,251.57733154296875,-6.72019100189209,-322.4783935546875,-27.2622013092041,40.836124420166016,13.1402587890625,69.50992584228516,362.3905944824219,65535.0
19530.933666448065,-249.0142059326172,255.38035583496094,-2.558818817138672,-323.0505065917969,-31.625307083129883,31.858230590820312,8.64626693725586,64.35478973388672,356.7679443359375,65535.0
19530.93406645662,-252.15773010253906,266.35223388671875,-2.604783058166504,-309.4595947265625,-23.562885284423828,41.46522903442383,16.388416290283203,73.70240783691406,353.46954345703125,65535.0
19530.934466465173,-250.96414184570312,266.7760314941406,-10.53225040435791,-287.07830810546875,-25.68695640563965,35.81423568725586,13.670021057128906,69.66551971435547,359.5005187988281,65535.0
19530.934866473723,-254.3279571533203,261.28125,-14.729279518127441,-269.8717956542969,-34.87926483154297,23.26272201538086,4.143235683441162,59.91694641113281,358.5702819824219,65535.0
19530.935266482276,-271.8769226074219,251.5034942626953,-12.212933540344238,-266.4319152832031,-35.07159423828125,24.42262840270996,3.800337553024292,59.55306625366211,366.0415344238281,65535.0
19530.93566649083,-284.50323486328125,250.91494750976562,-17.262859344482422,-253.30960083007812,-28.065093994140625,28.901002883911133,13.374585151672363,67.0391845703125,361.9840393066406,65535.0
19530.93606649938,-274.1626281738281,253.3118438720703,-18.438722610473633,-258.43426513671875,-44.551273345947266,11.885394096374512,-3.0068883895874023,50.6628532409668,370.2654113769531,65535.0
19530.936466507934,-266.0043029785156,243.9796600341797,-22.416580200195312,-259.747802734375,-42.84373474121094,15.142908096313477,-2.3733742237091064,54.454708099365234,369.64593505859375,65535.0
19530.936866516487,-260.7831726074219,242.3123016357422,-12.536713600158691,-253.62811279296875,-33.58918380737305,24.484485626220703,7.596817493438721,64.32311248779297,365.9708251953125,65535.0
19530.93726652504,-271.8384094238281,253.52706909179688,-16.80332374572754,-254.12745666503906,-38.48429489135742,17.586437225341797,-0.01829211227595806,59.39877700805664,360.34295654296875,65535.0
19530.93766653359,-276.19415283203125,241.8741455078125,-21.67953109741211,-250.88528442382812,-41.023921966552734,17.10880470275879,0.3596309721469879,54.381954193115234,371.7350769042969,65535.0
19530.938066542145,-280.2221984863281,242.08853149414062,-20.939807891845703,-243.42031860351562,-35.66655349731445,22.359088897705078,2.5909790992736816,56.260536193847656,356.37060546875,65535.0
19530.9384665507,-303.78265380859375,237.0742645263672,-24.470111846923828,-252.67880249023438,-35.6927604675293,26.013408660888672,6.06254768371582,62.17279815673828,350.2441101074219,65535.0
19530.93886655925,-282.6070556640625,234.22061157226562,-22.638648986816406,-261.6058654785156,-47.40932083129883,12.879919052124023,-7.347914695739746,50.290382385253906,358.8050537109375,65535.0
19530.939266567802,-249.15475463867188,226.6563720703125,-16.17424201965332,-271.3337097167969,-46.37974548339844,15.75754165649414,-6.397222995758057,48.6116943359375,370.31396484375,65535.0
19530.939666576356,-245.7911834716797,229.28025817871094,-13.445234298706055,-267.6694641113281,-30.507675170898438,29.892253875732422,8.411145210266113,64.50105285644531,362.63128662109375,65535.0
19530.94006658491,-253.83270263671875,236.44276428222656,-20.96162223815918,-280.0094299316406,-38.77336120605469,26.072877883911133,1.5426936149597168,59.39750289916992,370.9080810546875,65535.0
19530.94046659346,-252.6676483154297,236.90061950683594,-14.232499122619629,-256.7223205566406,-36.607757568359375,24.189802169799805,3.294433355331421,56.559757232666016,362.4991149902344,65535.0
19530.940866602014,-256.6591491699219,236.15890502929688,-25.653600692749023,-262.47869873046875,-37.9353141784668,24.939849853515625,0.676593005657196,57.03722381591797,360.8088684082031,65535.0
19530.941266610567,-248.8769989013672,228.9092559814453,-28.266202926635742,-274.39971923828125,-36.69905471801758,31.273679733276367,4.691673278808594,59.14253616333008,361.3086853027344,65535.0
19530.941666619117,-239.05224609375,221.27931213378906,-17.793582916259766,-274.5884704589844,-25.851547241210938,41.8548469543457,11.512140274047852,69.8454818725586,357.53192138671875,65535.0
19530.94206662767,-213.8131103515625,212.15545654296875,-32.18910217285156,-276.0339050292969,-28.127994537353516,43.80113220214844,13.132183074951172,71.4575424194336,368.30548095703125,65535.0
19530.942466636225,-210.12689208984375,224.71377563476562,-38.69332504272461,-280.09735107421875,-27.659374237060547,44.54819107055664,10.042262077331543,69.81159973144531,381.8772277832031,65535.0
19530.94286664478,-206.62161254882812,230.74659729003906,-35.95274353027344,-278.0064697265625,-30.33061408996582,41.23780822753906,10.708271980285645,69.6415023803711,367.45831298828125,65535.0
19530.94326665333,-208.1171417236328,224.15133666992188,-39.93376922607422,-282.5277404785156,-22.67799949645996,52.335426330566406,20.886892318725586,75.1016616821289,350.6737976074219,65535.0
19530.943666661882,-223.51412963867188,231.07977294921875,-43.166526794433594,-272.80206298828125,-21.32231903076172,57.59857940673828,21.153076171875,77.58023834228516,344.73291015625,65535.0
19530.944066670436,-240.1689453125,221.4747772216797,-35.93873596191406,-269.2724609375,-26.25045394897461,52.231109619140625,15.608926773071289,70.02269744873047,361.89190673828125,65535.0
19530.944466678986,-240.1864776611328,213.61976623535156,-37.811187744140625,-276.5801086425781,-22.716100692749023,55.39729309082031,18.874589920043945,73.57332611083984,354.97650146484375,65535.0
19530.94486668754,-232.41018676757812,224.98147583007812,-39.230953216552734,-277.1444091796875,-17.375883102416992,60.558509826660156,21.050622940063477,79.23137664794922,348.3031311035156,65535.0
19530.945266696093,-240.08248901367188,220.30947875976562,-23.320127487182617,-270.4477844238281,-20.227787017822266,60.708595275878906,23.114351272583008,78.35468292236328,344.0218505859375,65535.0
19530.945666704647,-235.674560546875,228.24391174316406,-24.139768600463867,-279.2671203613281,-20.230440139770508,59.96617889404297,21.393659591674805,76.6001968383789,358.6622009277344,65535.0
19530.946066713197,-217.81103515625,227.71078491210938,-27.803037643432617,-290.2701110839844,-21.701404571533203,58.37975311279297,21.196020126342773,74.92760467529297,359.7511291503906,65535.0
19530.94646672175,-202.5073699951172,225.82565307617188,-24.38996696472168,-297.20599365234375,-26.82061195373535,56.60780334472656,15.639652252197266,71.88249206542969,354.45806884765625,65535.0
19530.946866730304,-190.8667755126953,232.91993713378906,-27.615610122680664,-310.5890808105469,-26.94061279296875,54.66597366333008,17.522668838500977,70.46318817138672,355.093505859375,65535.0
19530.947266738855,-195.40719604492188,232.10769653320312,-28.177474975585938,-322.4876708984375,-22.437074661254883,56.45454788208008,15.68287181854248,73.0144271850586,361.7833251953125,65535.0
19530.94766674741,-211.0983428955078,233.51950073242188,-19.48520851135254,-300.6902770996094,-23.83199691772461,55.99248123168945,17.09783363342285,73.02249145507812,345.7879638671875,65535.0
19530.948066755962,-220.40232849121094,246.4292755126953,-18.796794891357422,-282.2405090332031,-24.54477882385254,53.15814971923828,17.019166946411133,74.96720123291016,351.22198486328125,65535.0
19530.948466764516,-229.48748779296875,235.03466796875,-18.710765838623047,-285.5671691894531,-30.647489547729492,43.670509338378906,12.360212326049805,67.04935455322266,344.93994140625,65535.0
19530.948866773066,-233.03146362304688,238.6200408935547,-10.17573070526123,-280.3589172363281,-16.36643409729004,60.448001861572266,24.0275936126709,79.23506164550781,348.9459228515625,65535.0
19530.94926678162,-241.2190704345703,246.29214477539062,-14.513225555419922,-278.43267822265625,-30.435932159423828,46.21247863769531,11.056187629699707,67.31014251708984,356.57916259765625,65535.0
19530.949666790173,-241.62945556640625,248.79217529296875,-12.6827974319458,-284.953857421875,-24.644227981567383,47.38746643066406,14.859771728515625,69.45191955566406,359.09368896484375,65535.0
19530.950066798723,-236.0531463623047,250.08340454101562,-9.957765579223633,-290.6070556640625,-18.277557373046875,53.464866638183594,21.310195922851562,77.8739013671875,359.1529541015625,65535.0
19530.950466807277,-247.12982177734375,244.85850524902344,-17.070703506469727,-294.900390625,-27.415599822998047,47.44112777709961,15.065478324890137,70.85860443115234,353.3042297363281,65535.0
19530.95086681583,-266.3585205078125,255.85519409179688,-16.80091094970703,-301.86199951171875,-28.211841583251953,43.05173110961914,11.445523262023926,68.01144409179688,355.234130859375,65535.0
19530.951266824384,-266.69921875,258.8269958496094,-16.884153366088867,-322.6025695800781,-22.57196617126465,48.931941986083984,18.3480167388916,74.51329040527344,344.84088134765625,65535.0
19530.951666832934,-260.9747314453125,252.6352081298828,-17.14828109741211,-328.2269592285156,-15.746496200561523,54.83126449584961,28.874189376831055,83.21914672851562,351.171875,65535.0
19530.952066841488,-266.33013916015625,259.2091369628906,-11.817086219787598,-317.1531677246094,-19.279632568359375,54.72090530395508,23.94279670715332,79.30095672607422,364.81256103515625,65535.0
19530.95246685004,-266.5979919433594,252.9752197265625,-11.933525085449219,-324.8564147949219,-29.894899368286133,39.3579216003418,10.455132484436035,65.45643615722656,349.8775939941406,65535.0
19530.95286685859,-253.4948272705078,252.3134307861328,-10.659459114074707,-318.4767150878906,-34.054771423339844,27.92827033996582,4.982776165008545,62.96942901611328,348.0973205566406,65535.0
19530.953266867145,-243.41436767578125,255.4330596923828,-6.112668991088867,-311.552490234375,-31.13201332092285,33.29691696166992,11.331110000610352,68.40144348144531,344.29107666015625,65535.0
19530.9536668757,-256.2951354980469,253.48313903808594,-7.844337463378906,-301.2027282714844,-29.568395614624023,37.02154541015625,9.980892181396484,68.11274719238281,348.38092041015625,65535.0
19530.954066884253,-248.84388732910156,255.70547485351562,-11.939024925231934,-298.6067810058594,-32.83351135253906,32.11846923828125,8.984906196594238,62.64595031738281,355.44696044921875,65535.0
19530.954466892803,-246.0882110595703,246.44419860839844,-14.563591957092285,-312.16717529296875,-45.88714599609375,16.913976669311523,-1.0561672449111938,52.40831756591797,354.37017822265625,65535.0
19530.954866901357,-243.536376953125,245.2035675048828,-16.59665870666504,-310.6143798828125,-35.02263641357422,21.6748104095459,4.7727837562561035,60.84899139404297,358.5057067871094,65535.0
19530.95526690991,-242.5291290283203,248.77830505371094,-19.98356056213379,-336.1881103515625,-38.759422302246094,19.911752700805664,2.52966570854187,56.21664810180664,354.9635009765625,65535.0
19530.95566691846,-240.52760314941406,241.17388916015625,-13.315047264099121,-345.0415344238281,-41.41410446166992,17.410537719726562,0.0008773692534305155,56.01549530029297,341.1251220703125,65535.0
19530.956066927014,-240.14321899414062,232.93658447265625,-16.1035099029541,-329.974365234375,-35.24148178100586,23.46993064880371,4.582586288452148,64.35444641113281,351.24237060546875,65535.0
19530.956466935568,-251.74205017089844,234.57110595703125,-16.21726417541504,-305.3271484375,-35.01140213012695,26.221324920654297,7.1433844566345215,60.41920852661133,351.9985656738281,65535.0
19530.95686694412,-249.06312561035156,225.89442443847656,-10.593321800231934,-270.2466735839844,-46.0087890625,13.92136287689209,-5.688909530639648,48.600547790527344,348.85943603515625,65535.0
19530.95726695267,-231.99188232421875,234.8873291015625,-11.04572582244873,-248.4749298095703,-34.22167205810547,22.298925399780273,6.069021701812744,59.9923095703125,352.9623107910156,65535.0
19530.957666961225,-234.8138885498047,235.45156860351562,-14.948460578918457,-248.1122589111328,-37.392948150634766,22.134687423706055,4.033442974090576,59.31063461303711,349.5337829589844,65535.0
19530.95806696978,-236.0823516845703,241.98170471191406,-22.421100616455078,-239.1346435546875,-40.64691162109375,22.633394241333008,0.19365309178829193,58.54227066040039,348.0849914550781,65535.0
19530.95846697833,-223.73594665527344,232.80874633789062,-18.948217391967773,-236.883056640625,-42.451690673828125,21.205900192260742,-1.4001764059066772,54.86034393310547,355.4792175292969,65535.0
19530.958866986883,-227.03048706054688,232.4336395263672,-22.55858039855957,-249.0781707763672,-37.182945251464844,22.77020263671875,4.335450649261475,58.36054229736328,360.669921875,65535.0
19530.959266995436,-229.54171752929688,244.39869689941406,-20.467334747314453,-268.0322570800781,-36.53091049194336,27.50695037841797,6.156909942626953,61.14199447631836,354.61993408203125,65535.0
19530.95966700399,-216.09080505371094,242.28721618652344,-21.83995246887207,-266.1962585449219,-41.82801055908203,24.364702224731445,-0.5368378162384033,56.41590118408203,341.1568298339844,65535.0
19530.96006701254,-225.57701110839844,234.18231201171875,-23.31862449645996,-277.78814697265625,-34.24991226196289,29.003732681274414,6.453763961791992,60.779930114746094,354.0766906738281,65535.0
19530.960467021094,-226.92779541015625,229.00242614746094,-22.893842697143555,-282.8791809082031,-36.26860809326172,28.229562759399414,5.472704887390137,62.101749420166016,350.6063537597656,65535.0
19530.960867029647,-237.432373046875,234.19281005859375,-26.200397491455078,-289.3291931152344,-35.96174240112305,32.891929626464844,7.181601524353027,65.40332794189453,353.8614807128906,65535.0
19530.961267038198,-231.32444763183594,235.1888427734375,-21.22760009765625,-286.4477844238281,-29.680519104003906,39.65122604370117,11.889914512634277,65.71971130371094,355.03472900390625,65535.0
19530.96166704675,-222.67050170898438,215.39517211914062,-18.098186492919922,-261.584716796875,-23.793367385864258,49.38933563232422,17.508710861206055,72.29199981689453,357.7662353515625,65535.0
19530.962067055305,-225.75335693359375,205.7958221435547,-33.202823638916016,-235.72410583496094,-29.18008041381836,41.77423095703125,12.524356842041016,68.51544952392578,355.595947265625,65535.0
19530.96246706386,-245.00987243652344,214.42535400390625,-34.74788284301758,-235.046142578125,-28.85811424255371,40.87306213378906,13.273086547851562,69.19619750976562,342.333251953125,65535.0
19530.96286707241,-257.4468078613281,207.87454223632812,-33.39179611206055,-269.4330139160156,-30.636083602905273,45.2114143371582,12.724812507629395,69.50606536865234,345.448486328125,65535.0
19530.963267080962,-261.4337158203125,204.20309448242188,-33.95526123046875,-295.8825378417969,-33.53483581542969,42.808319091796875,7.788158416748047,65.5350112915039,356.48138427734375,65535.0
19530.963667089516,-266.0430908203125,204.54074096679688,-34.96563720703125,-290.5547180175781,-32.96084213256836,43.260658264160156,6.791562080383301,63.764469146728516,345.5689392089844,65535.0
19530.964067098066,-254.64276123046875,207.51620483398438,-29.082082748413086,-275.2672424316406,-20.953205108642578,56.1673698425293,19.236906051635742,72.86660766601562,342.6457214355469,65535.0
19530.96446710662,-224.7197265625,203.01263427734375,-21.726106643676758,-248.2158203125,-18.130123138427734,63.89647674560547,22.35005760192871,78.95965576171875,350.79852294921875,65535.0
19530.964867115174,-206.0363311767578,194.37606811523438,-32.701576232910156,-232.41136169433594,-16.0155086517334,68.27412414550781,23.669004440307617,79.27082824707031,352.22833251953125,65535.0
19530.965267123727,-175.0,201.90078735351562,-16.713308334350586,-208.19772338867188,-13.561590194702148,69.25862884521484,27.208349227905273,83.09185028076172,345.42242431640625,65535.0
19530.965667132277,-150.55284118652344,209.09671020507812,-5.8196234703063965,-202.8705291748047,-16.656627655029297,67.30157470703125,25.10308837890625,82.4643325805664,354.5296630859375,65535.0
19530.96606714083,-143.42880249023438,217.96551513671875,-15.977112770080566,-193.35055541992188,-14.38111686706543,67.9950942993164,27.535884857177734,83.84972381591797,358.5430908203125,65535.0
19530.966467149385,-135.26467895507812,220.9986114501953,-9.627488136291504,-173.75643920898438,-14.273897171020508,69.84600830078125,24.2441463470459,83.04940032958984,345.6690368652344,65535.0
19530.966867157935,-134.41433715820312,210.5876007080078,-19.700403213500977,-170.62672424316406,-13.970087051391602,67.16046142578125,25.651506423950195,84.87821960449219,351.5111083984375,65535.0
19530.96726716649,-113.25466918945312,210.09597778320312,-21.31494903564453,-202.92910766601562,-10.560283660888672,74.92330169677734,28.066232681274414,86.35945892333984,336.314208984375,65535.0
19530.967667175042,-116.78626251220703,223.21018981933594,-14.121875762939453,-229.89138793945312,-6.511346340179443,78.60784149169922,35.17853927612305,89.6233901977539,329.02862548828125,65535.0
19530.968067183596,-122.04330444335938,221.73863220214844,-13.233596801757812,-265.1729736328125,-6.990840911865234,69.52552795410156,31.604379653930664,87.15680694580078,346.5207824707031,65535.0
19530.968467192146,-130.75267028808594,235.12771606445312,-21.949081420898438,-306.78973388671875,-14.575349807739258,65.6875991821289,25.75694465637207,79.94441986083984,350.4738464355469,65535.0
19530.9688672007,-130.90061950683594,219.83892822265625,-16.68075180053711,-304.1825866699219,-15.397881507873535,64.4051513671875,23.838970184326172,80.3738021850586,346.05517578125,65535.0
19530.969267209253,-122.28673553466797,217.40286254882812,-20.603971481323242,-256.1632385253906,-13.321172714233398,64.98086547851562,25.79607582092285,80.958251953125,344.7424621582031,65535.0
19530.969667217803,-141.24649047851562,208.01397705078125,-14.726820945739746,-210.29901123046875,-21.818788528442383,56.05213165283203,21.04646873474121,75.48257446289062,355.6814270019531,65535.0
19530.970067226357,-155.06666564941406,210.4808349609375,-11.593890190124512,-169.4091796875,-20.311824798583984,56.11209487915039,20.487794876098633,78.54508972167969,357.1551818847656,65535.0
19530.97046723491,-177.6711883544922,212.9490509033203,-18.64650535583496,-184.67327880859375,-22.08231544494629,52.17709732055664,20.560993194580078,75.00001525878906,346.1044006347656,65535.0
19530.970867243464,-193.49679565429688,208.7717742919922,-14.441693305969238,-230.55088806152344,-27.41507339477539,45.78158950805664,10.742597579956055,68.34464263916016,345.56243896484375,65535.0
19530.971267252015,-223.7877197265625,214.7621307373047,-5.504957675933838,-266.6493225097656,-29.197229385375977,43.56591796875,14.110459327697754,69.11116790771484,344.2417297363281,65535.0
19530.97166726057,-229.11842346191406,214.13694763183594,-3.9086039066314697,-299.6129150390625,-34.589027404785156,32.82793426513672,7.068417072296143,62.350852966308594,357.49176025390625,65535.0
19530.972067269122,-245.07542419433594,220.2277374267578,-5.234940528869629,-317.308349609375,-30.35898208618164,38.33142852783203,11.096110343933105,65.3987808227539,343.907958984375,65535.0
19530.972467277672,-257.7084655761719,224.66842651367188,-17.630403518676758,-336.0159912109375,-29.95486831665039,35.68430709838867,13.112296104431152,66.72278594970703,332.867431640625,65535.0
