0,1,2,3,4,5,6,7,8,9,10
14838.54884841604,338.59765625,515.0427856445312,777.1414794921875,-183.98898315429688,-20.038259506225586,46.572696685791016,21.665729522705078,78.3062515258789,10645.29296875,65535.0
14838.54924842467,345.90155029296875,517.8170776367188,763.20947265625,-191.39138793945312,-21.714208602905273,43.406890869140625,18.58005714416504,76.36260986328125,10676.6904296875,65535.0
14838.549648433298,353.1220703125,518.4044799804688,768.4299926757812,-165.08575439453125,-19.42511749267578,43.58535385131836,19.357357025146484,76.35201263427734,10701.3095703125,65535.0
14838.550048441928,368.7652282714844,504.9942321777344,777.2916259765625,-182.8053436279297,-23.652250289916992,35.14403533935547,15.526430130004883,73.15128326416016,10738.974609375,65535.0
14838.550448450558,372.13134765625,500.58343505859375,789.2657470703125,-198.88919067382812,-18.71143913269043,43.30314254760742,20.339208602905273,78.40575408935547,10771.1396484375,65535.0
14838.550848459188,369.3436584472656,503.78314208984375,817.7591552734375,-199.5253143310547,-19.412906646728516,42.74491882324219,19.613178253173828,78.209228515625,10820.0849609375,65535.0
14838.551248467817,368.0377502441406,500.5622863769531,849.780517578125,-192.6274871826172,-20.949289321899414,38.5529670715332,18.515682220458984,81.07909393310547,10847.234375,65535.0
14838.551648476447,357.0423278808594,507.1798095703125,877.9736938476562,-189.91232299804688,-21.943737030029297,38.5403938293457,18.268299102783203,77.45179748535156,10869.1806640625,65535.0
14838.552048485077,357.1995849609375,514.9738159179688,883.4120483398438,-180.7500762939453,-13.895782470703125,45.58313751220703,25.903074264526367,86.960693359375,10891.267578125,65535.0
14838.552448493707,356.3004150390625,513.5107421875,849.7241821289062,-171.9594268798828,-17.521625518798828,40.49845886230469,21.15513801574707,80.44598388671875,10933.5947265625,65535.0
14838.552848502335,360.319580078125,510.5909118652344,829.7380981445312,-175.28482055664062,-9.791143417358398,51.82665252685547,29.65099334716797,88.7186050415039,10961.8740234375,65535.0
14838.553248510965,358.1991271972656,510.9425354003906,827.3880615234375,-184.6567840576172,-6.802792549133301,53.87006378173828,29.671875,87.71907806396484,10991.91015625,65535.0
14838.553648519595,358.8806457519531,513.3132934570312,831.8045043945312,-174.22955322265625,-19.572303771972656,42.889320373535156,19.82543182373047,80.38385009765625,11031.3525390625,65535.0
14838.554048528225,356.4640808105469,516.8681030273438,813.446044921875,-156.2095947265625,-16.3516788482666,47.80203628540039,24.689428329467773,84.31056213378906,11051.38671875,65535.0
14838.554448536854,356.1073303222656,512.9859619140625,791.4033813476562,-161.6783905029297,-6.483144283294678,55.019630432128906,31.275075912475586,89.08512115478516,11079.6826171875,65535.0
14838.554848545484,339.8663024902344,515.4920043945312,775.3265991210938,-157.64385986328125,-6.8959760665893555,59.332881927490234,31.655349731445312,90.02942657470703,11120.4267578125,65535.0
14838.555248554114,328.8566589355469,523.85205078125,802.1383056640625,-159.05465698242188,-8.67788028717041,58.29146194458008,30.026403427124023,89.25333404541016,11157.26171875,65535.0
14838.555648562744,318.05810546875,521.1033325195312,830.2864379882812,-150.7633514404297,-11.997245788574219,54.973995208740234,26.748804092407227,89.55238342285156,11183.2958984375,65535.0
14838.556048571372,320.2608337402344,514.7237548828125,815.111083984375,-151.53659057617188,-18.49725914001465,47.64297866821289,21.436586380004883,78.67982482910156,11226.3115234375,65535.0
14838.556448580002,326.2860412597656,525.3758544921875,795.4276123046875,-144.78492736816406,-17.64742088317871,46.310977935791016,21.11700439453125,77.87969970703125,11254.1513671875,65535.0
14838.556848588632,319.3880615234375,519.1441650390625,806.9095458984375,-147.84242248535156,-2.288771629333496,65.57785034179688,36.57024383544922,97.9146499633789,11273.5244140625,65535.0
14838.557248597263,303.6857604980469,517.5213623046875,819.8338623046875,-158.89361572265625,4.854586124420166,77.18457794189453,40.85103225708008,101.86297607421875,11300.0224609375,65535.0
14838.55764860589,291.00750732421875,508.8915710449219,819.0350952148438,-161.37623596191406,-5.7038893699646,66.27932739257812,33.9583740234375,91.75235748291016,11337.5458984375,65535.0
14838.55804861452,286.7380065917969,510.7971496582031,812.0631713867188,-146.8902130126953,1.7265979051589966,72.5566177368164,40.71669387817383,99.5602798461914,11356.423828125,65535.0
14838.558448623151,285.38446044921875,511.8352966308594,817.8746337890625,-142.36387634277344,13.295710563659668,85.3705825805664,48.36286544799805,109.08219146728516,11377.4072265625,65535.0
14838.558848631781,290.0966491699219,513.94677734375,809.260986328125,-138.6719207763672,5.7228169441223145,85.01782989501953,44.66482925415039,104.0806884765625,11413.9873046875,65535.0
14838.55924864041,286.4749450683594,508.77081298828125,809.8123779296875,-152.56564331054688,5.511086463928223,83.40113067626953,45.066986083984375,103.5230712890625,11446.453125,65535.0
14838.55964864904,287.0217590332031,497.6929626464844,815.479248046875,-151.8543701171875,2.91514253616333,80.59624481201172,41.74665451049805,101.4699478149414,11478.7783203125,65535.0
14838.56004865767,288.850830078125,501.16357421875,781.6874389648438,-143.25650024414062,-1.1036057472229004,79.72090148925781,40.27861404418945,99.06153869628906,11494.3427734375,65535.0
14838.5604486663,287.884033203125,512.8051147460938,782.04833984375,-142.2407989501953,12.308526992797852,93.80291748046875,51.79439163208008,111.07211303710938,11529.560546875,65535.0
14838.560848674928,280.1853942871094,511.30963134765625,795.1045532226562,-145.2012939453125,16.71788215637207,97.69261169433594,54.130523681640625,113.8147964477539,11546.7255859375,65535.0
14838.561248683558,254.1820068359375,518.6205444335938,801.9734497070312,-140.38072204589844,4.7930006980896,87.86113739013672,43.21742248535156,103.10507202148438,11577.076171875,65535.0
14838.561648692188,252.5216827392578,516.9495239257812,784.0177612304688,-154.7902069091797,-1.2762935161590576,81.4149398803711,39.77500915527344,97.80303955078125,11603.8583984375,65535.0
14838.562048700818,251.79052734375,511.4547119140625,735.3165893554688,-159.8211212158203,4.284400463104248,84.66119384765625,43.41591262817383,103.87346649169922,11615.8798828125,65535.0
14838.562448709446,258.4997253417969,511.3984680175781,725.2310791015625,-154.52366638183594,7.684115886688232,85.84009552001953,46.41516876220703,104.71195220947266,11648.2646484375,65535.0
14838.562848718077,259.4761047363281,512.8047485351562,737.8988037109375,-160.85670471191406,7.070320129394531,83.20133972167969,43.52021789550781,102.46505737304688,11658.1748046875,65535.0
14838.563248726707,256.5708923339844,523.9744873046875,761.2911376953125,-165.9283905029297,1.70630943775177,77.2688217163086,40.15208053588867,98.10710906982422,11691.3095703125,65535.0
14838.563648735337,269.1676330566406,524.9852905273438,794.66650390625,-171.90475463867188,-7.3720269203186035,69.24891662597656,30.378376007080078,88.58353424072266,11704.5595703125,65535.0
14838.564048743965,267.5337219238281,518.26708984375,807.9053955078125,-166.92926025390625,1.2498029470443726,72.94085693359375,37.21485137939453,96.00057220458984,11724.0263671875,65535.0
14838.564448752595,239.65171813964844,518.2796630859375,780.4832763671875,-167.47508239746094,0.7035794854164124,77.1702880859375,36.8127555847168,98.15126037597656,11758.0869140625,65535.0
14838.564848761225,245.2593231201172,520.8842163085938,776.4706420898438,-167.8523406982422,-1.728947401046753,75.97111511230469,37.90399932861328,95.34449005126953,11762.8369140625,65535.0
14838.565248769855,255.97073364257812,517.0478515625,781.2947387695312,-166.1284637451172,7.064477443695068,82.02365112304688,46.3195686340332,103.41818237304688,11778.2333984375,65535.0
14838.565648778484,263.86712646484375,520.8077392578125,783.1098022460938,-154.396484375,-7.269068717956543,67.30987548828125,33.12651824951172,93.62960052490234,11804.96875,65535.0
14838.566048787114,259.6408996582031,519.5061645507812,776.4432373046875,-155.0504150390625,-8.169183731079102,61.944541931152344,29.977861404418945,87.84545135498047,11812.5234375,65535.0
14838.566448795744,239.35980224609375,526.0104370117188,765.6200561523438,-168.6469268798828,-9.509098052978516,58.798702239990234,27.766843795776367,87.79583740234375,11826.27734375,65535.0
14838.566848804374,234.1791229248047,524.3289794921875,764.599853515625,-165.09092712402344,-6.432946681976318,63.97731018066406,33.9681396484375,89.2933120727539,11844.287109375,65535.0
14838.567248813002,216.27920532226562,514.4593505859375,757.309814453125,-171.96267700195312,-6.819147109985352,59.70207595825195,30.007286071777344,90.95633697509766,11859.9423828125,65535.0
14838.567648821632,198.65103149414062,517.4033813476562,758.6747436523438,-173.0908966064453,-14.658574104309082,51.94160079956055,23.213029861450195,81.71521759033203,11864.650390625,65535.0
14838.568048830262,193.58421325683594,522.6254272460938,788.9862670898438,-184.90036010742188,-23.929845809936523,40.202842712402344,14.064077377319336,73.39647674560547,11880.8759765625,65535.0
14838.56844883889,197.01832580566406,516.9324951171875,798.8944702148438,-177.4053192138672,-18.639873504638672,42.693687438964844,19.667497634887695,80.48180389404297,11890.126953125,65535.0
14838.56884884752,181.87379455566406,512.4469604492188,801.9761962890625,-181.70680236816406,-9.940163612365723,51.42323303222656,27.87908935546875,86.81754302978516,11901.16796875,65535.0
14838.56924885615,191.17250061035156,515.7505493164062,792.9583740234375,-177.9430694580078,-1.8478498458862305,62.98944091796875,38.30929946899414,96.10638427734375,11921.0859375,65535.0
14838.56964886478,196.34339904785156,508.4709167480469,780.5953369140625,-167.92308044433594,-27.663894653320312,36.535606384277344,15.887016296386719,73.10904693603516,11929.5458984375,65535.0
14838.570048873411,224.26248168945312,514.813720703125,787.7611694335938,-179.71519470214844,-19.500789642333984,38.691322326660156,18.998641967773438,77.36042022705078,11933.748046875,65535.0
14838.57044888204,273.3533935546875,511.7117614746094,789.9812622070312,-190.64366149902344,-18.237911224365234,39.8412971496582,19.659929275512695,79.05794525146484,11954.26171875,65535.0
14838.57084889067,324.0491943359375,501.083984375,771.4196166992188,-187.4039764404297,-31.027507781982422,26.578746795654297,6.986082077026367,65.87904357910156,11965.0498046875,65535.0
14838.5712488993,352.3682861328125,501.0338439941406,777.8233642578125,-175.3212127685547,-23.67677116394043,30.757028579711914,12.276082992553711,71.7423324584961,11965.416015625,65535.0
14838.571648907928,356.3642883300781,507.2022399902344,767.7764892578125,-178.28268432617188,-22.410268783569336,35.85578155517578,18.545318603515625,76.95497131347656,11984.7841796875,65535.0
14838.572048916558,357.5379333496094,500.56988525390625,755.6445922851562,-181.08819580078125,-22.886568069458008,35.50210189819336,14.560128211975098,74.53470611572266,11996.462890625,65535.0
14838.572448925188,361.2656555175781,503.62677001953125,747.5830688476562,-196.7464599609375,-23.82623863220215,34.96278381347656,17.544620513916016,77.15985107421875,11983.9375,65535.0
14838.572848933818,363.9947509765625,506.5074157714844,730.4484252929688,-192.07440185546875,-28.091440200805664,27.997175216674805,12.640294075012207,70.17156219482422,12000.3125,65535.0
14838.573248942448,359.17462158203125,506.7427673339844,714.2001342773438,-189.4711456298828,-16.665433883666992,38.09613037109375,21.420888900756836,78.95403289794922,12008.296875,65535.0
14838.573648951076,346.1410217285156,504.5368957519531,690.446044921875,-186.04953002929688,-16.776142120361328,44.55264663696289,24.12465476989746,80.6612777709961,11990.5283203125,65535.0
14838.574048959706,329.6808166503906,505.2217102050781,674.4933471679688,-191.17176818847656,-20.5109806060791,38.732666015625,19.575122833251953,79.17886352539062,11997.0146484375,65535.0
14838.574448968337,312.0391540527344,501.48211669921875,661.9490356445312,-190.0637969970703,-21.511005401611328,37.454933166503906,16.65089988708496,75.15933990478516,12009.302734375,65535.0
14838.574848976965,284.7222900390625,504.9728698730469,676.1038818359375,-177.15899658203125,-13.116226196289062,48.22899627685547,24.559404373168945,83.89958190917969,12022.375,65535.0
14838.575248985595,279.7574768066406,522.3198852539062,700.3614501953125,-169.1985321044922,-12.440285682678223,51.0915641784668,24.742870330810547,85.18923950195312,12019.2783203125,65535.0
14838.575648994225,280.58740234375,520.2225341796875,730.1823120117188,-155.18202209472656,-16.59128189086914,42.71175765991211,20.227680206298828,80.76731872558594,12017.2099609375,65535.0
14838.576049002855,273.39111328125,516.4916381835938,764.8856811523438,-167.7712860107422,-19.636865615844727,42.320762634277344,20.43947410583496,76.45158386230469,12031.8291015625,65535.0
14838.576449011485,267.1053771972656,511.0524597167969,779.0928955078125,-169.0711669921875,-19.30665397644043,46.65095138549805,21.66562843322754,79.13298034667969,12040.8759765625,65535.0
14838.576849020114,261.8921203613281,517.2339477539062,796.7155151367188,-156.76187133789062,-19.157264709472656,47.4332389831543,20.522815704345703,79.69548034667969,12047.9111328125,65535.0
14838.577249028744,263.19219970703125,512.6533813476562,788.3656616210938,-160.22879028320312,-16.743545532226562,50.04902267456055,21.902788162231445,82.25487518310547,12041.7451171875,65535.0
14838.577649037374,266.00299072265625,493.0421447753906,774.1948852539062,-165.28256225585938,-14.36584758758545,53.626094818115234,25.08019256591797,86.61536407470703,12031.5068359375,65535.0
14838.578049046002,268.2349853515625,505.5780334472656,771.9267578125,-177.04063415527344,-17.90105438232422,48.72561264038086,19.096269607543945,79.46660614013672,12040.0224609375,65535.0
14838.578449054632,280.32513427734375,508.8816223144531,777.4598388671875,-162.3965301513672,-9.347447395324707,60.087059020996094,25.571910858154297,85.59020233154297,12047.7470703125,65535.0
14838.578849063262,277.38885498046875,509.98248291015625,790.791748046875,-148.3672637939453,-3.3533713817596436,70.77901458740234,35.2670783996582,92.96831512451172,12048.33203125,65535.0
14838.579249071892,287.4294128417969,505.1708068847656,785.0386352539062,-137.25094604492188,-5.232172966003418,68.33595275878906,33.36276626586914,92.82050323486328,12040.1845703125,65535.0
14838.579649080522,300.2079772949219,500.8355407714844,768.5149536132812,-131.67483520507812,0.039667315781116486,74.4255599975586,37.615604400634766,95.63624572753906,12042.6630859375,65535.0
14838.58004908915,306.0830383300781,517.9362182617188,758.6307373046875,-121.75138854980469,-3.1122820377349854,75.27473449707031,36.05937194824219,93.70860290527344,12042.6787109375,65535.0
14838.58044909778,307.63775634765625,530.1839599609375,765.0664672851562,-122.90670013427734,-5.911340236663818,71.74065399169922,33.22061538696289,91.92609405517578,12047.4453125,65535.0
14838.58084910641,324.7042236328125,513.3005981445312,802.1749877929688,-127.35350036621094,-7.940505504608154,67.31429290771484,30.699146270751953,88.07669830322266,12056.626953125,65535.0
14838.58124911504,352.76849365234375,507.9471740722656,814.3104248046875,-135.71527099609375,-0.17763496935367584,76.3995361328125,33.82065963745117,95.56685638427734,12034.4033203125,65535.0
14838.58164912367,383.1733703613281,513.0215454101562,819.417724609375,-139.823974609375,-2.582749366760254,80.02934265136719,37.13919448852539,99.23209381103516,12041.6650390625,65535.0
14838.5820491323,398.4537658691406,508.65765380859375,805.7413330078125,-142.30224609375,-6.913335800170898,75.66584777832031,35.54265594482422,91.90768432617188,12046.28125,65535.0
14838.58244914093,418.086181640625,508.8447265625,803.315673828125,-150.225830078125,-11.059863090515137,66.96913146972656,29.245302200317383,85.59912109375,12040.3095703125,65535.0
14838.58284914956,443.7262268066406,506.3709411621094,801.6121215820312,-168.66354370117188,-7.669994354248047,69.26669311523438,31.21646499633789,90.0065689086914,12057.7392578125,65535.0
14838.583249158188,448.43890380859375,501.9959411621094,802.4387817382812,-174.56578063964844,-6.468488693237305,74.91381072998047,30.827136993408203,90.06871795654297,12040.8798828125,65535.0
14838.583649166818,452.1519775390625,510.79632568359375,805.7716674804688,-164.99862670898438,-13.81086540222168,66.83305358886719,23.987098693847656,82.77293395996094,12037.6416015625,65535.0
14838.584049175448,461.74053955078125,508.1637878417969,805.8604125976562,-152.336181640625,-12.083913803100586,60.479644775390625,24.76561737060547,83.00666809082031,12049.8271484375,65535.0
14838.584449184076,449.2794189453125,507.0557861328125,815.5518188476562,-143.388427734375,-2.853689432144165,71.36384582519531,35.867164611816406,96.55951690673828,12053.3388671875,65535.0
14838.584849192706,448.1984558105469,506.58477783203125,814.4624633789062,-138.0882110595703,-2.879032611846924,74.5383529663086,36.527339935302734,96.60967254638672,12039.8740234375,65535.0
14838.585249201336,447.4942321777344,499.8068542480469,812.3125,-146.24581909179688,-0.45355719327926636,78.2201919555664,40.522064208984375,100.9318618774414,12042.552734375,65535.0
14838.585649209967,446.0938415527344,505.7374267578125,827.8274536132812,-170.2672119140625,-4.451813220977783,70.9080581665039,37.4068717956543,95.0295639038086,12029.779296875,65535.0
14838.586049218597,462.0567626953125,509.0185546875,811.681396484375,-183.4036865234375,-4.7885518074035645,67.35298156738281,34.02734375,92.07585906982422,12026.830078125,65535.0
14838.586449227225,458.7638854980469,505.8687744140625,779.8593139648438,-195.8959197998047,-0.6723777055740356,71.67947387695312,36.258628845214844,95.75470733642578,12040.49609375,65535.0
14838.586849235855,463.0765380859375,513.3283081054688,784.4459838867188,-191.24032592773438,-0.47649717330932617,69.64613342285156,35.375057220458984,94.42839050292969,12032.5927734375,65535.0
14838.587249244485,458.8568115234375,505.8004150390625,790.449951171875,-184.58761596679688,-1.7156013250350952,66.37794494628906,34.59749221801758,93.96134185791016,12030.005859375,65535.0
14838.587649253113,465.9712219238281,513.5314331054688,780.687744140625,-180.4133758544922,-1.966166615486145,67.6312484741211,36.34408950805664,94.93276977539062,12043.6591796875,65535.0
14838.588049261743,456.64862060546875,515.4246215820312,793.2622680664062,-182.11753845214844,-3.3658106327056885,63.3733024597168,34.02976989746094,93.72332763671875,12038.8212890625,65535.0
14838.588449270374,443.0829772949219,505.7385559082031,783.218994140625,-177.56591796875,-12.306619644165039,52.46414566040039,26.0665283203125,86.22894287109375,12040.55859375,65535.0
14838.588849279004,443.378173828125,516.7467651367188,749.66552734375,-182.20382690429688,-29.205686569213867,34.12712097167969,10.520401000976562,71.48287200927734,12028.0654296875,65535.0
14838.589249287632,433.1705017089844,518.411865234375,742.2898559570312,-182.5753173828125,-21.206947326660156,38.733097076416016,16.368837356567383,74.09181213378906,12033.2607421875,65535.0
14838.589649296262,436.9463806152344,516.2282104492188,733.0022583007812,-174.51048278808594,-9.317571640014648,53.30659103393555,28.668720245361328,89.82896423339844,12036.462890625,65535.0
14838.590049304892,447.9768371582031,517.1084594726562,707.7592163085938,-155.74708557128906,-9.448003768920898,50.5239372253418,28.969074249267578,88.37153625488281,12036.72265625,65535.0
14838.590449313522,451.27435302734375,509.9026794433594,707.3047485351562,-150.08274841308594,-10.50781536102295,47.46170425415039,23.83500099182129,83.55320739746094,12032.9189453125,65535.0
14838.59084932215,447.7593994140625,510.3388977050781,698.1861572265625,-155.31109619140625,-18.37175178527832,40.66940689086914,18.028339385986328,79.5681381225586,12032.8046875,65535.0
14838.59124933078,427.09832763671875,519.3561401367188,684.8399047851562,-160.47256469726562,-18.697402954101562,42.31883239746094,22.4083194732666,79.56404113769531,12033.638671875,65535.0
14838.59164933941,406.97247314453125,506.95257568359375,690.5469970703125,-178.2179412841797,-15.707401275634766,46.21094512939453,26.307727813720703,80.79719543457031,12052.3857421875,65535.0
14838.59204934804,389.695556640625,499.3489990234375,671.2623291015625,-186.4140167236328,-18.43886375427246,41.95111846923828,19.692602157592773,77.67464447021484,12048.2470703125,65535.0
14838.592449356669,378.610107421875,494.8294677734375,643.2060546875,-188.89183044433594,-13.99970817565918,49.069847106933594,26.132938385009766,83.45341491699219,12042.6123046875,65535.0
14838.5928493653,365.3377990722656,499.4891357421875,640.3970336914062,-195.06150817871094,-9.76844310760498,52.62626266479492,31.5350399017334,87.3853988647461,12046.4208984375,65535.0
14838.59324937393,348.0150146484375,497.5574035644531,633.5250244140625,-181.59939575195312,-17.322444915771484,43.10725021362305,22.05390167236328,80.7078628540039,12035.591796875,65535.0
14838.59364938256,332.6433410644531,496.15643310546875,628.7893676757812,-173.42015075683594,-9.8743257522583,51.5742301940918,28.558088302612305,91.53221893310547,12036.345703125,65535.0
14838.594049391188,304.5593566894531,499.6903991699219,624.5662231445312,-184.17950439453125,-4.049863815307617,60.9442253112793,32.96912384033203,94.360595703125,12057.4912109375,65535.0
14838.594449399818,286.37030029296875,499.1399230957031,633.9388427734375,-164.2505340576172,-7.030517101287842,56.517879486083984,30.386476516723633,90.04542541503906,12055.1220703125,65535.0
14838.594849408448,276.2334899902344,496.4936218261719,636.4872436523438,-149.143310546875,-8.934603691101074,54.072654724121094,29.13817596435547,87.6462173461914,12052.435546875,65535.0
14838.595249417078,289.85302734375,503.6731262207031,628.9315795898438,-143.67361450195312,-13.223772048950195,53.151451110839844,25.23028564453125,84.5311050415039,12047.1806640625,65535.0
14838.595649425706,285.51904296875,516.5399169921875,625.841552734375,-140.16172790527344,-14.430929183959961,50.75951385498047,26.118793487548828,84.1320571899414,12061.044921875,65535.0
14838.596049434336,283.9856262207031,509.0936584472656,643.3426513671875,-154.5413818359375,-8.927783966064453,54.077484130859375,29.012086868286133,84.46902465820312,12046.951171875,65535.0
14838.596449442966,265.6868896484375,508.7474365234375,639.94921875,-159.38909912109375,0.39283812046051025,67.92121887207031,40.34601593017578,97.7850112915039,12038.57421875,65535.0
14838.596849451596,270.4546203613281,505.42498779296875,624.871337890625,-162.6158905029297,-2.1820881366729736,68.86621856689453,38.86557388305664,97.91650390625,12044.4501953125,65535.0
14838.597249460225,265.02044677734375,509.72161865234375,592.1298828125,-165.62820434570312,-8.306144714355469,64.10167694091797,33.869197845458984,89.61468505859375,12048.5166015625,65535.0
14838.597649468855,242.70338439941406,513.4649047851562,577.19970703125,-165.2896270751953,-13.251237869262695,63.610721588134766,30.148157119750977,89.74098205566406,12059.00390625,65535.0
14838.598049477485,225.07655334472656,514.8496704101562,576.50439453125,-157.26242065429688,-16.243825912475586,55.3638801574707,21.370677947998047,79.77207946777344,12046.7421875,65535.0
14838.598449486115,195.02320861816406,505.7849426269531,600.278076171875,-136.8865966796875,-3.422900915145874,66.38860321044922,32.029762268066406,90.35409545898438,12071.078125,65535.0
14838.598849494743,177.22845458984375,503.8844299316406,598.5596923828125,-135.7421875,-2.7868850231170654,74.57160186767578,36.66943359375,92.72949981689453,12078.126953125,65535.0
14838.599249503373,186.21603393554688,512.8758544921875,602.12353515625,-132.5427703857422,-12.19775676727295,65.51221466064453,26.898019790649414,86.92796325683594,12065.029296875,65535.0
14838.599649512003,197.92892456054688,508.6214904785156,610.4812622070312,-144.02377319335938,-4.730509281158447,74.77317810058594,34.354774475097656,94.45408630371094,12069.5380859375,65535.0
14838.600049520634,204.96823120117188,502.9239807128906,619.5811767578125,-145.1650390625,-3.609586477279663,76.34800720214844,35.0063362121582,92.55036926269531,12067.0712890625,65535.0
14838.600449529262,225.44644165039062,506.0654602050781,636.75,-159.44387817382812,-7.406252384185791,73.63377380371094,33.72046661376953,90.09220123291016,12069.1748046875,65535.0
14838.600849537892,233.0098419189453,510.2987365722656,617.548828125,-158.628662109375,-3.755502462387085,76.81757354736328,34.35672378540039,93.73573303222656,12075.232421875,65535.0
14838.601249546522,223.13645935058594,508.7323303222656,591.4879760742188,-146.99884033203125,6.580942630767822,88.4293441772461,44.34439468383789,101.37458801269531,12067.1865234375,65535.0
14838.601649555152,224.70933532714844,509.4692687988281,605.9747924804688,-143.03256225585938,-2.529387950897217,82.33159637451172,36.564937591552734,94.12945556640625,12082.3447265625,65535.0
14838.60204956378,240.25001525878906,517.2606811523438,626.0272827148438,-145.85504150390625,0.6709048748016357,84.85545349121094,40.83803939819336,98.39063262939453,12082.908203125,65535.0
14838.60244957241,260.43609619140625,513.720458984375,648.0432739257812,-136.3414764404297,4.858692646026611,88.56599426269531,45.554725646972656,103.17729187011719,12084.5927734375,65535.0
14838.60284958104,282.2392883300781,512.4268798828125,648.8023071289062,-136.76332092285156,-1.1978404521942139,77.13558197021484,35.20915985107422,94.17886352539062,12100.23046875,65535.0
14838.60324958967,303.1235656738281,509.77655029296875,639.338623046875,-158.61328125,2.4710845947265625,80.47637939453125,36.30488967895508,97.80571746826172,12094.1728515625,65535.0
14838.603649598299,319.287353515625,515.9845581054688,595.7975463867188,-171.93023681640625,0.625164806842804,79.26719665527344,36.50359344482422,95.79280090332031,12100.474609375,65535.0
14838.604049606929,319.5129089355469,518.5426635742188,575.6904296875,-185.8654022216797,-1.9454396963119507,77.5183334350586,31.607646942138672,95.11888122558594,12112.556640625,65535.0
14838.60444961556,312.4142761230469,509.5892333984375,565.3864135742188,-180.2944793701172,-7.194490909576416,68.7059555053711,28.90032958984375,90.1917953491211,12109.2392578125,65535.0
14838.60484962419,332.7206115722656,517.0225830078125,553.1085815429688,-180.35691833496094,5.079417705535889,81.04747009277344,43.78325271606445,99.41119384765625,12129.458984375,65535.0
14838.605249632818,329.79852294921875,510.9196472167969,562.2576904296875,-179.61181640625,-10.43655776977539,68.06763458251953,30.60646629333496,88.19190979003906,12132.6689453125,65535.0
14838.605649641448,347.39404296875,507.9161682128906,569.2088012695312,-175.9702606201172,-16.783489227294922,57.43913650512695,21.508272171020508,82.21536254882812,12154.4814453125,65535.0
14838.606049650078,361.3288879394531,509.9554748535156,572.6853637695312,-181.7790985107422,-21.550626754760742,49.56195831298828,15.072410583496094,76.6412353515625,12149.3271484375,65535.0
14838.606449658708,350.2988586425781,504.1099853515625,578.0433959960938,-193.30450439453125,-12.517477035522461,60.56382751464844,28.1439151763916,86.77564239501953,12152.8251953125,65535.0
14838.606849667336,341.64349365234375,510.466552734375,612.8909301757812,-192.49635314941406,-4.124887943267822,69.55536651611328,36.57903289794922,92.80326080322266,12165.6865234375,65535.0
14838.607249675966,351.2937927246094,507.3805847167969,629.861572265625,-188.5082244873047,-12.061319351196289,62.655513763427734,29.670934677124023,89.58045959472656,12164.54296875,65535.0
14838.607649684596,384.1987609863281,503.76507568359375,663.5460815429688,-185.5980224609375,-16.019746780395508,54.20428466796875,25.654930114746094,86.18292999267578,12160.697265625,65535.0
14838.608049693226,399.5466003417969,506.9779357910156,676.7330322265625,-179.68431091308594,-21.438411712646484,42.67491912841797,17.360626220703125,77.25003814697266,12181.603515625,65535.0
14838.608449701855,393.8521423339844,509.5170593261719,634.15869140625,-176.33802795410156,-17.936010360717773,42.86166000366211,15.891101837158203,76.24715423583984,12187.2841796875,65535.0
14838.608849710485,399.1539611816406,506.46160888671875,624.9674072265625,-177.4443359375,-8.93070125579834,53.46886444091797,27.10462188720703,86.86050415039062,12208.84375,65535.0
14838.609249719115,429.233642578125,513.1991577148438,632.1279907226562,-178.99134826660156,-15.364164352416992,49.65049743652344,24.24923324584961,81.4364013671875,12218.9072265625,65535.0
14838.609649727743,440.8121643066406,512.89208984375,632.0638427734375,-179.61465454101562,-12.76457405090332,49.91840744018555,24.65092658996582,83.89363098144531,12216.1201171875,65535.0
14838.610049736373,454.257080078125,512.4286499023438,641.1798706054688,-174.23777770996094,-14.713254928588867,48.558631896972656,24.151838302612305,81.5415267944336,12240.208984375,65535.0
14838.610449745003,455.0030822753906,510.5116882324219,641.2349853515625,-170.4244384765625,-13.098113059997559,44.40134811401367,21.95473289489746,82.82569122314453,12229.2099609375,65535.0
14838.610849753633,450.0266418457031,502.7414245605469,630.736328125,-174.95970153808594,-15.830644607543945,45.04082107543945,23.026430130004883,81.40384674072266,12252.5595703125,65535.0
14838.611249762263,449.8658142089844,503.24017333984375,624.080322265625,-186.9179229736328,-18.55694580078125,42.0477409362793,21.556589126586914,78.65157318115234,12278.0546875,65535.0
14838.611649770892,460.69061279296875,503.3695068359375,634.0489501953125,-188.54165649414062,-10.581061363220215,49.55303192138672,28.885644912719727,86.77368927001953,12275.5869140625,65535.0
14838.612049779522,448.44989013671875,503.18505859375,648.5487670898438,-194.0474853515625,-11.944222450256348,49.702754974365234,25.072111129760742,85.91033935546875,12284.4990234375,65535.0
14838.612449788152,426.59893798828125,504.9874572753906,648.9187622070312,-180.7858428955078,-10.127229690551758,48.746253967285156,26.343647003173828,84.64893341064453,12310.4794921875,65535.0
14838.61284979678,430.1729736328125,504.156982421875,644.9278564453125,-176.63650512695312,-11.184752464294434,45.46149444580078,25.28837013244629,84.92976379394531,12319.3955078125,65535.0
14838.61324980541,424.3758544921875,499.52496337890625,657.4428100585938,-182.30015563964844,-18.794363021850586,45.245182037353516,24.196861267089844,82.36820983886719,12337.3115234375,65535.0
14838.61364981404,415.94757080078125,499.2772521972656,671.6970825195312,-180.58990478515625,-19.76915740966797,41.34082794189453,19.85445785522461,78.75243377685547,12356.4658203125,65535.0
14838.61404982267,421.6488037109375,504.6758117675781,678.6708984375,-181.1177520751953,-10.884074211120605,47.87675476074219,27.851350784301758,85.55921936035156,12354.3134765625,65535.0
14838.6144498313,425.3683776855469,510.41998291015625,668.7587890625,-193.7230987548828,-11.655168533325195,50.208953857421875,29.36172103881836,85.71360778808594,12359.78515625,65535.0
14838.614849839929,417.21051025390625,499.0263671875,663.7310180664062,-194.4982147216797,-17.562807083129883,44.483497619628906,21.917673110961914,80.3698959350586,12377.349609375,65535.0
14838.615249848559,400.1638488769531,502.4506530761719,656.336669921875,-181.29302978515625,-4.524666786193848,58.883602142333984,33.42647171020508,90.35448455810547,12394.724609375,65535.0
14838.615649857189,393.8428039550781,508.1915588378906,627.1180419921875,-180.9093475341797,-3.9091906547546387,58.81226348876953,34.88764953613281,93.98673248291016,12425.5458984375,65535.0
14838.616049865817,401.8498229980469,508.4667663574219,599.5845947265625,-179.3820037841797,-4.30986213684082,61.828330993652344,38.13602828979492,93.85488891601562,12444.9140625,65535.0
14838.616449874447,397.390869140625,508.96868896484375,614.3425903320312,-175.82015991210938,-8.581161499023438,59.24502182006836,33.503482818603516,88.18724060058594,12453.197265625,65535.0
14838.616849883078,379.6423645019531,502.1300048828125,620.068603515625,-165.76998901367188,-10.323198318481445,56.55018997192383,28.600570678710938,87.31269073486328,12464.2109375,65535.0
14838.617249891708,359.9864196777344,499.57470703125,603.7176513671875,-170.12045288085938,-6.700949192047119,59.752017974853516,30.330562591552734,89.99048614501953,12483.19140625,65535.0
14838.617649900338,364.09820556640625,493.0439758300781,597.1060180664062,-161.13446044921875,-8.421487808227539,58.67416000366211,28.15304946899414,87.31316375732422,12496.1953125,65535.0
14838.618049908966,368.5125732421875,499.22686767578125,616.6597290039062,-162.02749633789062,-4.535616874694824,65.29945373535156,33.402278900146484,91.44154357910156,12511.7294921875,65535.0
14838.618449917596,367.9076232910156,496.5295104980469,631.3370971679688,-167.9170379638672,-7.279817581176758,62.67426300048828,31.66758155822754,90.22378540039062,12537.1357421875,65535.0
14838.618849926226,349.2196960449219,495.4218444824219,648.8640747070312,-168.2527618408203,-15.159639358520508,55.35102844238281,24.9582576751709,83.94827270507812,12554.451171875,65535.0
14838.619249934854,329.2882080078125,502.83123779296875,687.5587158203125,-164.05667114257812,-2.345686674118042,67.09431457519531,34.764225006103516,93.74368286132812,12562.6328125,65535.0
14838.619649943485,328.68389892578125,498.3518981933594,720.8190307617188,-169.10252380371094,-2.4194793701171875,72.100830078125,35.58576583862305,94.64002227783203,12587.75390625,65535.0
14838.620049952115,319.0783386230469,489.51220703125,739.421630859375,-171.2294464111328,-2.1365115642547607,72.9234390258789,36.485408782958984,95.27801513671875,12610.990234375,65535.0
14838.620449960745,310.125732421875,490.9850158691406,754.41552734375,-172.6295623779297,3.8661324977874756,81.82525634765625,40.847145080566406,101.98756408691406,12622.21484375,65535.0
14838.620849969375,313.4777526855469,491.75750732421875,784.55224609375,-166.85757446289062,2.976536989212036,80.64797973632812,39.20473861694336,97.62252807617188,12644.39453125,65535.0
14838.621249978003,288.0896301269531,502.6119079589844,786.5875854492188,-160.18218994140625,2.2026219367980957,78.22696685791016,41.13056564331055,100.3414306640625,12675.5126953125,65535.0
14838.621649986633,276.226318359375,495.7528991699219,761.620361328125,-165.3281707763672,2.4247772693634033,79.73375701904297,42.59731674194336,97.53858947753906,12681.2294921875,65535.0
14838.622049995263,266.3670959472656,496.23651123046875,769.07470703125,-165.28981018066406,2.2865207195281982,81.7828369140625,42.50161361694336,101.81038665771484,12708.3740234375,65535.0
14838.622450003892,252.79554748535156,502.59942626953125,782.7125854492188,-157.09251403808594,3.413855791091919,84.44609832763672,41.66845703125,101.00860595703125,12718.0029296875,65535.0
14838.622850012522,254.232177734375,494.8681640625,772.2894287109375,-164.0357208251953,4.224488258361816,82.18102264404297,41.71912384033203,101.79056549072266,12742.623046875,65535.0
14838.623250021152,259.8123779296875,490.17828369140625,762.5463256835938,-165.4148406982422,-4.180078983306885,71.33568572998047,33.00565719604492,93.9010009765625,12763.4189453125,65535.0
14838.623650029782,241.64939880371094,500.9053955078125,781.3990478515625,-161.63291931152344,2.754788398742676,82.09256744384766,43.71570587158203,104.79385375976562,12778.55078125,65535.0
14838.624050038412,238.6773681640625,499.47509765625,789.8085327148438,-167.5648651123047,6.955721855163574,83.49800109863281,45.620384216308594,105.9859619140625,12797.537109375,65535.0
14838.62445004704,243.3340606689453,498.4911804199219,796.1278686523438,-165.7001953125,8.427696228027344,85.5576400756836,46.3491096496582,104.29146575927734,12809.8291015625,65535.0
14838.62485005567,246.72784423828125,503.56170654296875,815.134033203125,-167.76844787597656,3.87507700920105,85.30536651611328,46.32138442993164,104.65620422363281,12845.3486328125,65535.0
14838.6252500643,243.36265563964844,503.33953857421875,810.0151977539062,-183.18905639648438,-4.071788787841797,70.40747833251953,34.01249313354492,93.8374252319336,12866.7841796875,65535.0
14838.625650072929,223.757080078125,501.6615905761719,799.2342529296875,-187.53504943847656,-3.7187254428863525,67.54521942138672,32.72789001464844,92.67432403564453,12890.857421875,65535.0
14838.626050081559,233.94476318359375,502.70318603515625,776.5137939453125,-189.04989624023438,-0.5842300653457642,70.19808197021484,40.308231353759766,94.67467498779297,12928.439453125,65535.0
14838.626450090189,257.198974609375,502.95172119140625,775.9666748046875,-188.2750701904297,-9.252057075500488,59.971435546875,29.285858154296875,89.34209442138672,12936.201171875,65535.0
14838.626850098819,279.6238098144531,505.5609130859375,769.1723022460938,-186.21983337402344,-7.474366664886475,63.27381134033203,32.34619140625,91.36729431152344,12963.1162109375,65535.0
14838.627250107449,279.66387939453125,498.8100280761719,739.2470092773438,-187.3742218017578,-4.745436191558838,62.787925720214844,34.27219772338867,93.22740173339844,12983.83984375,65535.0
14838.627650116077,268.93084716796875,492.2303466796875,741.4345703125,-193.89535522460938,-4.762531757354736,61.7125129699707,34.25383377075195,93.23308563232422,12994.7958984375,65535.0
14838.628050124707,275.2890930175781,494.3036193847656,749.1887817382812,-199.042236328125,-5.054605960845947,58.91524124145508,34.203346252441406,92.8760986328125,13024.10546875,65535.0
14838.628450133338,292.7633361816406,506.0368347167969,761.454833984375,-193.20663452148438,-8.122203826904297,57.407371520996094,33.99495315551758,91.82670593261719,13053.7763671875,65535.0
14838.628850141966,326.6760559082031,508.2132873535156,759.185546875,-190.3035430908203,-5.0340895652771,58.13741683959961,35.600677490234375,93.10581970214844,13075.07421875,65535.0
14838.629250150596,341.33245849609375,497.2662658691406,747.9898681640625,-204.11289978027344,-3.5766053199768066,59.11916732788086,34.5756721496582,94.84381866455078,13086.412109375,65535.0
14838.629650159226,343.19464111328125,506.11236572265625,732.7235717773438,-203.50221252441406,-12.743199348449707,50.38138961791992,28.279640197753906,87.6907958984375,13105.9130859375,65535.0
14838.630050167856,344.41375732421875,502.76885986328125,725.6339111328125,-204.7110137939453,-11.819767951965332,48.45759963989258,29.34943962097168,89.33354187011719,13129.23828125,65535.0
14838.630450176484,346.4310607910156,495.2695007324219,709.78564453125,-196.20468139648438,-4.140224933624268,54.683929443359375,33.2166862487793,93.67768096923828,13156.365234375,65535.0
14838.630850185114,359.4533386230469,494.4858703613281,684.8776245117188,-194.31674194335938,-12.175409317016602,47.59195327758789,25.950878143310547,87.59135437011719,13188.2060546875,65535.0
14838.631250193745,359.1585998535156,490.0579833984375,675.601806640625,-188.83682250976562,-11.619463920593262,45.12165832519531,28.939851760864258,86.41912841796875,13218.109375,65535.0
14838.631650202375,339.96038818359375,494.6340637207031,669.310302734375,-177.7073516845703,-9.789795875549316,48.998477935791016,29.939607620239258,92.95079040527344,13229.68359375,65535.0
14838.632050211003,330.67266845703125,499.18035888671875,652.6143798828125,-162.288330078125,-10.680843353271484,48.85800552368164,28.11543846130371,85.6104965209961,13258.3125,65535.0
14838.632450219633,322.0816345214844,489.572998046875,661.5602416992188,-162.733642578125,-12.914255142211914,42.64554214477539,23.19205665588379,84.27371215820312,13282.5078125,65535.0
14838.632850228263,295.7508544921875,489.7838134765625,643.134033203125,-199.60948181152344,-15.940399169921875,42.77043914794922,23.154027938842773,83.02703094482422,13313.693359375,65535.0
14838.633250236893,294.0902099609375,491.98583984375,614.223388671875,-188.7896270751953,-14.007128715515137,46.28668212890625,28.313766479492188,83.99626922607422,13332.7939453125,65535.0
14838.633650245521,272.48114013671875,491.0538024902344,615.3043823242188,-179.34146118164062,-9.539610862731934,49.08329391479492,27.046382904052734,89.93964385986328,13349.2822265625,65535.0
14838.634050254152,257.1322326660156,497.3663635253906,615.1163940429688,-190.7889862060547,-9.080704689025879,48.59861373901367,29.401742935180664,86.8939208984375,13384.359375,65535.0
14838.634450262782,249.51878356933594,497.24310302734375,600.31103515625,-189.29412841796875,-4.170625686645508,57.3713493347168,35.471824645996094,93.28001403808594,13410.2919921875,65535.0
14838.634850271412,231.61923217773438,495.9336242675781,589.2161254882812,-189.9581756591797,-3.3611154556274414,61.23054504394531,38.32622528076172,96.64413452148438,13442.5400390625,65535.0
14838.63525028004,206.66534423828125,490.8221130371094,582.7938232421875,-185.77647399902344,-8.611451148986816,56.81358337402344,33.27837371826172,90.57084655761719,13460.765625,65535.0
14838.63565028867,190.4120330810547,489.8274230957031,618.3370361328125,-176.90335083007812,-11.040755271911621,53.91502380371094,27.940719604492188,90.27191162109375,13496.759765625,65535.0
14838.6360502973,176.29278564453125,484.4009094238281,645.9798583984375,-181.77645874023438,-1.636783242225647,61.13994216918945,37.077239990234375,97.1707763671875,13505.1865234375,65535.0
14838.63645030593,184.98204040527344,491.6487731933594,623.058837890625,-179.65696716308594,6.155038356781006,73.91551208496094,47.956459045410156,106.5988540649414,13534.943359375,65535.0
14838.636850314559,183.20594787597656,486.0300598144531,615.65673828125,-182.07693481445312,2.3255183696746826,73.1571044921875,43.37308120727539,102.38050079345703,13565.884765625,65535.0
14838.637250323189,178.63446044921875,488.10528564453125,612.0919799804688,-183.75445556640625,-1.7711163759231567,66.13919067382812,34.084224700927734,96.16917419433594,13580.193359375,65535.0
14838.637650331819,184.10336303710938,481.8993835449219,619.2528686523438,-172.36654663085938,2.2846336364746094,70.46080780029297,39.4941520690918,98.41880798339844,13599.318359375,65535.0
14838.638050340449,173.22509765625,465.9728088378906,636.4630737304688,-164.45675659179688,-7.533646106719971,64.71880340576172,31.917219161987305,92.77208709716797,13636.6015625,65535.0
14838.638450349077,182.59356689453125,468.1457824707031,630.3457641601562,-164.080322265625,-0.9327175617218018,72.23112487792969,37.23912048339844,99.36553192138672,13660.00390625,65535.0
14838.638850357707,192.20741271972656,480.1568603515625,621.0643920898438,-160.69488525390625,-6.158602237701416,65.94110107421875,32.85651397705078,93.05464172363281,13683.8994140625,65535.0
14838.639250366337,207.25054931640625,486.89300537109375,629.76416015625,-159.6573944091797,-5.551020622253418,69.02647399902344,32.50907897949219,92.67363739013672,13711.8671875,65535.0
14838.639650374967,217.57666015625,490.4391784667969,632.996826171875,-154.72071838378906,2.729450225830078,78.79486846923828,40.74729537963867,98.8874282836914,13744.3310546875,65535.0
14838.640050383596,243.64019775390625,482.267578125,648.6441650390625,-155.71986389160156,-1.7630003690719604,76.71031188964844,36.681766510009766,97.69902038574219,13754.7490234375,65535.0
14838.640450392226,276.3055419921875,482.27471923828125,652.4771728515625,-157.83428955078125,12.733860969543457,95.5455093383789,50.62704086303711,109.64115142822266,13780.4365234375,65535.0
14838.640850400856,305.10296630859375,480.7811584472656,637.247314453125,-165.50509643554688,5.6471638679504395,85.26720428466797,42.54632568359375,103.00558471679688,13818.654296875,65535.0
14838.641250409486,336.3178405761719,491.62176513671875,653.00927734375,-170.97994995117188,8.615547180175781,89.8659896850586,46.89396667480469,106.5211181640625,13836.3212890625,65535.0
14838.641650418114,343.5219421386719,494.09368896484375,681.1102294921875,-161.9423370361328,0.2504347860813141,80.3217544555664,38.18550109863281,98.32373046875,13859.302734375,65535.0
14838.642050426744,363.1432189941406,493.76116943359375,687.4060668945312,-160.34646606445312,-8.300625801086426,72.42182159423828,31.555566787719727,90.12698364257812,13894.8818359375,65535.0
14838.642450435374,366.5114440917969,496.0477600097656,696.6101684570312,-163.29222106933594,0.1417456865310669,77.62506103515625,35.74402618408203,94.67102813720703,13910.703125,65535.0
14838.642850444005,364.0560302734375,490.4478454589844,697.631103515625,-169.8563995361328,3.38138484954834,81.16444396972656,41.3372917175293,97.36296844482422,13933.23828125,65535.0
14838.643250452633,365.9253845214844,499.188720703125,686.8746337890625,-171.05116271972656,0.1591159999370575,76.44966125488281,37.665916442871094,96.50933837890625,13969.095703125,65535.0
14838.643650461263,388.5632019042969,500.5723571777344,687.1244506835938,-167.36289978027344,0.6610036492347717,77.99381256103516,38.08670425415039,101.10118103027344,13987.9091796875,65535.0
14838.644050469893,395.91058349609375,497.875732421875,693.4796752929688,-171.9212188720703,-5.060015678405762,71.39904022216797,34.911407470703125,94.01702117919922,14009.0390625,65535.0
14838.644450478523,416.10894775390625,502.43023681640625,707.4572143554688,-176.01010131835938,-1.7736399173736572,75.78267669677734,36.53654861450195,98.98624420166016,14026.1298828125,65535.0
14838.644850487151,427.76434326171875,497.4700927734375,713.6340942382812,-173.18893432617188,4.327989101409912,77.28031158447266,40.265625,100.59488677978516,14068.6845703125,65535.0
14838.645250495782,437.4810485839844,493.4205017089844,703.012451171875,-169.63348388671875,-4.984220027923584,71.59518432617188,36.10422134399414,95.3737564086914,14093.9130859375,65535.0
14838.645650504412,443.4667663574219,493.9854431152344,684.6563110351562,-166.78585815429688,-2.8560373783111572,73.04438781738281,36.46255111694336,95.51097869873047,14125.9921875,65535.0
14838.646050513042,465.7651672363281,494.8330383300781,672.3867797851562,-168.93988037109375,-0.9264069199562073,72.21060943603516,38.246429443359375,96.73442840576172,14141.818359375,65535.0
14838.64645052167,474.874755859375,496.6223449707031,662.4297485351562,-183.18536376953125,-3.328192710876465,70.56169891357422,35.34370040893555,91.3729019165039,14167.810546875,65535.0
14838.6468505303,474.8483581542969,502.30389404296875,642.5158081054688,-192.1458282470703,0.5116222500801086,72.24864959716797,39.13844299316406,98.97630310058594,14185.224609375,65535.0
14838.64725053893,494.3262634277344,502.8122863769531,669.4616088867188,-191.4100341796875,-2.924489736557007,68.2977294921875,36.121498107910156,95.68526458740234,14197.9951171875,65535.0
14838.64765054756,487.0715637207031,501.57208251953125,701.9490356445312,-193.11473083496094,-1.7170006036758423,64.92483520507812,38.00602340698242,93.86463928222656,14232.69140625,65535.0
14838.648050556189,498.13946533203125,505.5317077636719,717.9243774414062,-187.56756591796875,-0.968066930770874,68.24340057373047,39.23753356933594,96.57350158691406,14251.8857421875,65535.0
14838.648450564819,494.93829345703125,515.91650390625,731.566162109375,-188.6269989013672,1.3238537311553955,68.10942077636719,37.570556640625,98.00674438476562,14274.771484375,65535.0
14838.648850573449,480.98919677734375,509.5125732421875,715.4215698242188,-185.0699462890625,-1.381060242652893,65.87127685546875,36.256134033203125,94.33776092529297,14296.857421875,65535.0
14838.649250582079,466.4089660644531,515.341796875,697.488037109375,-187.3380126953125,-6.2397284507751465,59.11343765258789,32.59090042114258,92.41033172607422,14323.109375,65535.0
14838.649650590707,457.3605651855469,512.5565795898438,704.748779296875,-209.11215209960938,-8.849142074584961,56.872257232666016,29.736459732055664,88.21829223632812,14350.8212890625,65535.0
14838.650050599337,452.43548583984375,507.87506103515625,735.0808715820312,-210.49090576171875,-13.629313468933105,48.28230285644531,24.996850967407227,81.79066467285156,14390.240234375,65535.0
14838.650450607967,449.6891174316406,505.3810119628906,755.186767578125,-207.337646484375,-15.371657371520996,44.068389892578125,21.459564208984375,82.65878295898438,14420.27734375,65535.0
14838.650850616597,440.9755859375,499.6854248046875,775.5238037109375,-210.27349853515625,-11.141839027404785,51.38856506347656,24.74342918395996,85.71114349365234,14436.9150390625,65535.0
14838.651250625226,434.70184326171875,490.99945068359375,782.690185546875,-215.83563232421875,-7.2759108543396,57.28614044189453,33.66841506958008,89.59347534179688,14451.3603515625,65535.0
14838.651650633856,408.5499572753906,492.09271240234375,792.7352905273438,-217.64703369140625,-10.41097354888916,51.820159912109375,30.147153854370117,87.55403137207031,14472.88671875,65535.0
14838.652050642486,374.66900634765625,493.1652526855469,789.1484985351562,-198.72772216796875,-7.41875696182251,51.34831619262695,29.504926681518555,90.01139831542969,14493.7724609375,65535.0
14838.652450651116,359.42340087890625,492.1461181640625,793.6415405273438,-182.7162322998047,-16.975570678710938,46.871219635009766,24.930557250976562,83.45467376708984,14514.3984375,65535.0
14838.652850659744,360.9766540527344,490.749755859375,797.2010498046875,-182.8101043701172,-19.243024826049805,38.71820068359375,18.928470611572266,78.83065795898438,14550.193359375,65535.0
14838.653250668374,360.1223449707031,483.5684509277344,793.1181030273438,-178.10519409179688,-10.739974021911621,51.95630645751953,29.68131446838379,88.613037109375,14573.0234375,65535.0
14838.653650677004,359.769775390625,486.7859191894531,792.1956787109375,-177.76470947265625,-13.93692398071289,49.18339920043945,23.79667091369629,85.73822784423828,14603.119140625,65535.0
14838.654050685633,339.3523254394531,482.1237487792969,784.7389526367188,-182.95263671875,-3.7758219242095947,61.40671920776367,35.537837982177734,96.1251449584961,14619.0751953125,65535.0
14838.654450694263,338.2761535644531,488.8222351074219,795.1724243164062,-179.22384643554688,5.475620269775391,70.10436248779297,42.91439437866211,100.04759979248047,14647.716796875,65535.0
14838.654850702893,340.80279541015625,490.9974670410156,800.8593139648438,-184.75845336914062,-0.42118823528289795,65.98686218261719,39.48484420776367,96.51852416992188,14665.1162109375,65535.0
14838.655250711523,334.61541748046875,491.9051513671875,782.405517578125,-188.43795776367188,-5.255513668060303,59.73405838012695,33.92058181762695,92.4041519165039,14692.0556640625,65535.0
14838.655650720153,334.3020324707031,489.9239196777344,787.2019653320312,-178.5285186767578,-15.505942344665527,50.04188537597656,21.57050132751465,82.0500259399414,14721.5224609375,65535.0
14838.656050728781,319.7100830078125,493.5435791015625,799.39306640625,-182.88011169433594,-6.082703113555908,59.38974380493164,32.893280029296875,91.38436126708984,14745.9775390625,65535.0
14838.656450737411,315.40234375,495.2817687988281,758.0435791015625,-187.12423706054688,-0.014569914899766445,69.16344451904297,39.04672622680664,96.7070541381836,14766.8310546875,65535.0
14838.656850746042,339.52874755859375,496.639404296875,733.9708862304688,-184.7275848388672,-8.738889694213867,61.94837188720703,30.229976654052734,89.61078643798828,14797.5400390625,65535.0
14838.65725075467,345.01165771484375,486.2475891113281,732.5995483398438,-181.36660766601562,-14.468974113464355,56.5613899230957,26.57790184020996,85.0632095336914,14816.5498046875,65535.0
14838.6576507633,332.0081787109375,489.2054138183594,721.5404663085938,-174.89801025390625,-9.74021053314209,61.281734466552734,31.29646873474121,89.54185485839844,14849.3935546875,65535.0
14838.65805077193,332.6654968261719,494.0338134765625,731.7096557617188,-150.37843322753906,-2.2410428524017334,71.59986114501953,37.62823486328125,96.003662109375,14883.03125,65535.0
14838.65845078056,337.4835205078125,486.0683288574219,729.0437622070312,-146.29798889160156,-4.609539985656738,69.95767211914062,32.91378402709961,92.5293197631836,14894.5625,65535.0
14838.65885078919,328.5173645019531,488.19219970703125,704.2865600585938,-161.56988525390625,-4.891294479370117,70.65876770019531,32.172645568847656,94.39879608154297,14900.6337890625,65535.0
14838.659250797818,329.9690856933594,485.2169494628906,675.0942993164062,-171.6868438720703,-3.085174322128296,71.83323669433594,34.96462631225586,92.97614288330078,14938.26953125,65535.0
14838.659650806449,308.09027099609375,480.26190185546875,654.6052856445312,-174.14268493652344,2.9011502265930176,83.18882751464844,43.471900939941406,102.25359344482422,14959.7802734375,65535.0
14838.660050815079,272.1326904296875,483.68115234375,624.1508178710938,-178.1051025390625,7.598391056060791,88.3800277709961,45.16474151611328,107.6112060546875,14972.6533203125,65535.0
14838.660450823707,250.0872802734375,493.7947692871094,602.5452880859375,-166.96499633789062,4.585833549499512,84.3329086303711,42.80899429321289,100.83975219726562,15002.796875,65535.0
14838.660850832337,245.72193908691406,493.5495300292969,607.3541870117188,-160.2158203125,11.07936954498291,91.33824157714844,50.88553237915039,108.92749786376953,15029.11328125,65535.0
14838.661250840967,231.368896484375,493.7685852050781,601.9395141601562,-167.8390655517578,15.038826942443848,95.89264678955078,51.97648239135742,110.0240707397461,15060.1298828125,65535.0
14838.661650849597,238.4683837890625,493.3653564453125,606.9047241210938,-168.1626739501953,11.654681205749512,95.08100891113281,48.98809814453125,108.11431121826172,15086.8955078125,65535.0
14838.662050858227,259.941162109375,498.8428955078125,641.2316284179688,-159.56472778320312,8.089460372924805,90.17096710205078,47.291751861572266,105.19102478027344,15109.7939453125,65535.0
14838.662450866856,279.6708984375,496.4348449707031,675.605224609375,-164.84686279296875,6.071188449859619,87.07404327392578,43.88498306274414,104.61998748779297,15120.7158203125,65535.0
14838.662850875486,285.4143371582031,498.2919006347656,669.1995239257812,-170.94459533691406,2.5222840309143066,85.98463439941406,43.91291809082031,103.06172180175781,15158.138671875,65535.0
14838.663250884116,269.5267639160156,500.955810546875,645.4353637695312,-185.98695373535156,9.616787910461426,89.35253143310547,49.45612716674805,108.94282531738281,15182.173828125,65535.0
14838.663650892744,261.73919677734375,501.4355773925781,618.267822265625,-178.7227020263672,17.056957244873047,98.04862213134766,55.15110778808594,114.00833892822266,15188.787109375,65535.0
14838.664050901374,278.4307861328125,498.79632568359375,583.0118408203125,-168.18650817871094,0.35222625732421875,81.21399688720703,41.12807846069336,97.84815979003906,15223.65234375,65535.0
14838.664450910004,279.4403381347656,495.8985595703125,588.6025390625,-161.10275268554688,-7.626367092132568,66.70569610595703,29.867809295654297,91.32201385498047,15246.0576171875,65535.0
14838.664850918634,280.0726623535156,494.01263427734375,590.470458984375,-170.26617431640625,-1.087302803993225,76.7188720703125,38.47841262817383,97.32992553710938,15254.298828125,65535.0
14838.665250927264,291.68963623046875,494.23272705078125,605.3274536132812,-165.56912231445312,2.5365307331085205,79.92086791992188,39.71797561645508,98.06173706054688,15282.96484375,65535.0
14838.665650935893,303.5619201660156,489.1761474609375,629.6942749023438,-166.55661010742188,-2.0748705863952637,74.6634521484375,36.60411834716797,95.35965728759766,15313.0869140625,65535.0
14838.666050944523,313.72064208984375,489.82879638671875,640.7998657226562,-159.11749267578125,0.3901440501213074,73.56291198730469,40.0241813659668,100.28758239746094,15341.783203125,65535.0
14838.666450953153,348.9726257324219,494.3104248046875,628.7606811523438,-158.3175506591797,-1.6318588256835938,73.42119598388672,36.51273727416992,96.29361724853516,15365.6123046875,65535.0
14838.666850961781,379.5945129394531,501.56976318359375,614.460693359375,-170.92584228515625,-5.385509967803955,70.19276428222656,33.931007385253906,93.84944152832031,15368.560546875,65535.0
14838.667250970411,398.34124755859375,492.8420104980469,627.5676879882812,-182.0572509765625,-5.032918930053711,65.62702178955078,35.46331024169922,94.41853332519531,15391.705078125,65535.0
14838.667650979041,408.28204345703125,491.0084533691406,649.6232299804688,-180.45411682128906,-0.2650548219680786,71.27706146240234,37.07387161254883,96.67422485351562,15435.7333984375,65535.0
14838.668050987671,413.7610778808594,493.7005920410156,679.1661376953125,-174.46803283691406,-8.069489479064941,63.997013092041016,31.744884490966797,91.42233276367188,15449.8203125,65535.0
14838.668450996302,403.5000305175781,492.5554504394531,679.9374389648438,-170.84182739257812,0.3120429515838623,66.13970184326172,39.54011154174805,95.29109954833984,15472.8798828125,65535.0
14838.66885100493,397.0071716308594,502.0858459472656,678.9664916992188,-172.67066955566406,-9.095616340637207,59.29170608520508,32.26008224487305,89.2618408203125,15487.4052734375,65535.0
14838.66925101356,411.5865478515625,488.36871337890625,678.0709228515625,-174.60714721679688,-6.892707347869873,58.069583892822266,31.34722900390625,92.95201873779297,15513.8701171875,65535.0
14838.66965102219,422.8409118652344,489.7298583984375,694.273193359375,-171.7364044189453,-12.958540916442871,52.17700958251953,28.115665435791016,86.54715728759766,15543.513671875,65535.0
14838.670051030818,440.1494445800781,496.4542541503906,726.0703735351562,-164.40269470214844,-21.610441207885742,39.51930618286133,17.176025390625,75.75022888183594,15573.6103515625,65535.0
14838.670451039448,434.4129333496094,493.1785888671875,738.4276123046875,-160.78085327148438,-10.437305450439453,48.759490966796875,27.84876251220703,88.19876861572266,15601.2265625,65535.0
14838.670851048078,429.3074645996094,492.2840881347656,743.8811645507812,-155.64340209960938,-12.123048782348633,44.50620651245117,26.193389892578125,82.8900375366211,15605.712890625,65535.0
14838.671251056709,430.7674255371094,493.2671813964844,730.4453735351562,-156.42747497558594,-13.425864219665527,46.8653678894043,24.90833854675293,83.58470153808594,15639.68359375,65535.0
14838.671651065339,400.8046569824219,488.9920654296875,728.5126342773438,-160.8602752685547,-17.788637161254883,45.214717864990234,23.541799545288086,81.83695220947266,15669.4921875,65535.0
14838.672051073967,382.4278259277344,496.66571044921875,718.7924194335938,-163.47869873046875,-19.176971435546875,39.814483642578125,22.531145095825195,82.0434341430664,15688.4521484375,65535.0
14838.672451082597,363.9762268066406,490.65301513671875,732.25244140625,-158.9449462890625,-18.455734252929688,40.96111297607422,19.907407760620117,79.35713195800781,15703.123046875,65535.0
14838.672851091227,357.8427429199219,486.63525390625,768.6478271484375,-157.70640563964844,-8.606080055236816,52.15738296508789,28.966405868530273,87.82308959960938,15736.5517578125,65535.0
14838.673251099855,366.799072265625,485.1510925292969,794.8963012695312,-150.03030395507812,-11.769289016723633,51.817874908447266,28.29468536376953,86.3603286743164,15756.548828125,65535.0
14838.673651108486,370.3028869628906,486.4075012207031,807.3008422851562,-134.0117645263672,-21.243999481201172,40.084739685058594,17.949676513671875,75.10486602783203,15774.1787109375,65535.0
14838.674051117116,363.1872863769531,487.03515625,786.9398193359375,-140.80337524414062,-11.59678840637207,50.22999954223633,28.372922897338867,86.96561431884766,15792.833984375,65535.0
14838.674451125746,372.8625183105469,500.185546875,801.8199462890625,-157.2029571533203,-16.08719825744629,46.89731216430664,25.023916244506836,82.69095611572266,15819.7939453125,65535.0
14838.674851134374,379.6315612792969,498.9695129394531,842.6063842773438,-165.48312377929688,-14.681787490844727,47.66139221191406,26.22732925415039,82.95205688476562,15838.9658203125,65535.0
14838.675251143004,391.6275634765625,484.8515930175781,880.0126953125,-158.23085021972656,-7.659965515136719,58.67723083496094,31.875661849975586,89.01579284667969,15860.0537109375,65535.0
14838.675651151634,389.6200256347656,491.8854675292969,902.8330078125,-155.42796325683594,-9.365853309631348,59.43638229370117,27.996261596679688,87.0971450805664,15885.193359375,65535.0
14838.676051160264,375.08172607421875,502.176025390625,942.0025024414062,-165.57321166992188,-13.360217094421387,55.46876907348633,26.010011672973633,84.78824615478516,15901.47265625,65535.0
14838.676451168893,364.1557312011719,501.2113037109375,969.6314086914062,-156.38389587402344,-12.540771484375,55.777435302734375,29.297147750854492,88.92888641357422,15935.05078125,65535.0
14838.676851177523,353.6405944824219,502.52667236328125,983.5838623046875,-160.43515014648438,-0.4114694893360138,71.54934692382812,37.631065368652344,98.59619903564453,15938.646484375,65535.0
14838.677251186153,358.69744873046875,497.3883056640625,949.5604248046875,-165.7466278076172,-3.955260992050171,66.18543243408203,34.000648498535156,93.42207336425781,15974.5380859375,65535.0
14838.677651194783,359.453369140625,490.2470703125,928.22265625,-163.3255615234375,-2.591522216796875,69.5998764038086,37.609378814697266,94.8797607421875,15993.251953125,65535.0
14838.678051203411,344.8646240234375,499.44366455078125,915.8587646484375,-148.55709838867188,-2.199906349182129,72.40414428710938,35.43318557739258,96.72445678710938,16021.658203125,65535.0
14838.678451212041,348.4891357421875,492.10992431640625,900.9909057617188,-147.12464904785156,-10.049666404724121,68.75609588623047,31.997743606567383,90.04216766357422,16043.19140625,65535.0
14838.678851220671,386.24853515625,487.4276428222656,900.9180908203125,-143.85206604003906,0.22459959983825684,74.0635986328125,37.976104736328125,97.84630584716797,16058.7783203125,65535.0
14838.679251229301,415.4892272949219,488.8190002441406,896.5785522460938,-159.77235412597656,-4.162439346313477,74.4996337890625,35.36674499511719,95.04878234863281,16067.0703125,65535.0
14838.67965123793,436.3455505371094,485.9656982421875,869.0360717773438,-170.04315185546875,3.3902809619903564,82.62101745605469,44.142723083496094,100.48207092285156,16117.3056640625,65535.0
14838.68005124656,429.9494323730469,490.71685791015625,826.4584350585938,-156.83786010742188,-7.832526683807373,72.24864959716797,33.23853302001953,91.60161590576172,16128.5087890625,65535.0
14838.68045125519,413.54095458984375,485.59466552734375,821.4608154296875,-148.98301696777344,-3.893122911453247,75.77315521240234,33.866695404052734,92.71662902832031,16132.71875,65535.0
14838.68085126382,400.0748291015625,494.81817626953125,801.8258666992188,-144.14849853515625,6.311280727386475,87.29768371582031,43.55290603637695,100.9021987915039,16152.1640625,65535.0
14838.681251272448,390.6256408691406,495.85498046875,752.8795776367188,-162.07412719726562,6.437314510345459,89.02005767822266,44.318904876708984,102.91578674316406,16177.5380859375,65535.0
14838.681651281078,404.26727294921875,488.85198974609375,729.9595336914062,-166.0130157470703,9.287134170532227,94.36609649658203,50.767391204833984,108.53538513183594,16195.58984375,65535.0
14838.682051289708,418.9829406738281,492.7659606933594,704.6060791015625,-156.43968200683594,9.956806182861328,92.55219268798828,49.32851791381836,107.6156234741211,16218.296875,65535.0
14838.682451298338,413.75714111328125,498.1536865234375,682.5912475585938,-146.6686553955078,1.2561862468719482,84.3558578491211,38.4533576965332,97.33904266357422,16228.0771484375,65535.0
14838.682851306967,419.40179443359375,495.30303955078125,656.510009765625,-131.3914031982422,-10.514641761779785,68.1894760131836,28.065696716308594,88.60977172851562,16265.150390625,65535.0
14838.683251315597,419.421630859375,491.81524658203125,640.3231201171875,-150.78707885742188,-8.21022891998291,67.2105712890625,29.702287673950195,88.72267150878906,16274.50390625,65535.0
14838.683651324227,414.7545166015625,490.19024658203125,621.1272583007812,-168.80868530273438,-0.1910047084093094,79.21513366699219,37.25146484375,100.64469146728516,16279.927734375,65535.0
14838.684051332857,420.489013671875,492.291259765625,588.7651977539062,-171.47096252441406,-6.173920631408691,76.76470947265625,35.8613395690918,95.4631118774414,16313.330078125,65535.0
14838.684451341485,424.2403259277344,497.1011962890625,559.6630249023438,-167.72108459472656,-10.071124076843262,69.88093566894531,27.95349884033203,89.29818725585938,16345.8369140625,65535.0
14838.684851350115,419.4242248535156,496.63037109375,537.01123046875,-171.39663696289062,-5.9033918380737305,69.8247299194336,32.02040481567383,93.10694885253906,16367.283203125,65535.0
14838.685251358746,397.819580078125,494.8597717285156,530.616943359375,-175.7936553955078,-6.992923259735107,70.02471923828125,31.389591217041016,88.78096008300781,16367.5029296875,65535.0
14838.685651367376,402.7234802246094,493.4718933105469,537.776123046875,-181.98526000976562,-2.8443639278411865,71.18617248535156,37.83816909790039,95.4207992553711,16383.0908203125,65535.0
14838.686051376004,428.13604736328125,496.8640441894531,565.963623046875,-190.64132690429688,-17.113689422607422,58.9082145690918,22.625919342041016,83.81046295166016,16383.138671875,65535.0
14838.686451384634,438.0256042480469,489.03399658203125,593.896484375,-198.55099487304688,-15.056640625,56.52170944213867,23.575729370117188,82.36116790771484,16383.1904296875,65535.0
14838.686851393264,438.34234619140625,496.7723693847656,596.7239379882812,-192.95045471191406,-2.316936492919922,69.08834838867188,36.1494026184082,92.80851745605469,16383.244140625,65535.0
14838.687251401894,428.4761657714844,488.20074462890625,569.9547729492188,-185.83453369140625,1.703514575958252,76.11649322509766,39.53261947631836,100.43672943115234,16383.294921875,65535.0
14838.687651410522,421.9184265136719,495.7947692871094,546.5673217773438,-186.25498962402344,-5.779921531677246,67.19770050048828,32.187294006347656,93.18084716796875,16383.341796875,65535.0
14838.688051419153,428.8140563964844,490.9443664550781,553.3496704101562,-186.85398864746094,-7.531350612640381,60.39320373535156,30.842914581298828,88.3047866821289,16383.3828125,65535.0
14838.688451427783,451.29022216796875,480.4856872558594,562.6347045898438,-180.8409423828125,-11.686927795410156,57.25468826293945,27.89032554626465,85.73273468017578,16383.41796875,65535.0
14838.688851436413,446.7374572753906,491.1904602050781,549.3798828125,-181.51138305664062,0.3728290796279907,69.87083435058594,38.3394775390625,98.90266418457031,16383.4462890625,65535.0
14838.689251445041,431.2865905761719,492.0966796875,540.1460571289062,-172.56504821777344,-15.602807998657227,48.545475006103516,22.843257904052734,82.77531433105469,16383.4697265625,65535.0
14838.689651453671,415.3732604980469,488.0587463378906,541.4300537109375,-174.4856414794922,-19.230796813964844,44.44062423706055,21.393396377563477,79.5887451171875,16383.4873046875,65535.0
14838.690051462301,405.636962890625,498.25970458984375,590.3909301757812,-179.77975463867188,-15.827274322509766,44.90884017944336,22.87388038635254,82.03043365478516,16383.5,65535.0
14838.690451470931,400.0887451171875,492.49066162109375,640.0895385742188,-186.50917053222656,-20.259902954101562,43.25898361206055,22.69078254699707,79.52716827392578,16383.509765625,65535.0
14838.69085147956,396.2178039550781,482.8352966308594,685.4429321289062,-190.04446411132812,-19.410053253173828,42.88928985595703,20.72364616394043,77.78699493408203,16383.515625,65535.0
14838.69125148819,407.0113525390625,480.6432800292969,728.4022827148438,-185.43844604492188,-11.03780746459961,49.584815979003906,27.376230239868164,85.11669921875,16383.5185546875,65535.0
14838.69165149682,387.115234375,490.6054382324219,725.7313842773438,-184.0032958984375,-19.450599670410156,41.22046661376953,18.145729064941406,77.28287506103516,16383.5205078125,65535.0
14838.69205150545,370.0460510253906,489.94232177734375,699.424560546875,-177.57656860351562,-10.89011287689209,49.819087982177734,26.15181541442871,87.10645294189453,16383.5205078125,65535.0
14838.692451514078,359.164794921875,501.6848449707031,735.48193359375,-175.6610870361328,-7.0433478355407715,53.69474411010742,31.067989349365234,88.93153381347656,16383.5185546875,65535.0
14838.692851522708,357.73968505859375,502.1630859375,770.5472412109375,-164.14292907714844,-7.778679847717285,52.65583419799805,31.144132614135742,88.29662322998047,16383.517578125,65535.0
14838.693251531338,367.53875732421875,499.9959411621094,797.7291870117188,-156.53277587890625,-14.48855972290039,46.10246276855469,23.07221794128418,85.23065948486328,16383.5146484375,65535.0
14838.693651539968,359.0275573730469,493.57525634765625,820.0982055664062,-163.1832275390625,-12.868611335754395,48.44430160522461,25.59471321105957,85.78369903564453,16383.5126953125,65535.0
14838.694051548597,358.78558349609375,489.0522155761719,832.7396240234375,-174.36477661132812,-12.593936920166016,47.74420928955078,25.33502769470215,83.38878631591797,16383.5107421875,65535.0
14838.694451557227,360.9042053222656,495.9463806152344,864.0107421875,-182.2811279296875,-8.591529846191406,52.22762680053711,30.507991790771484,88.98399353027344,16383.5078125,65535.0
14838.694851565857,362.302490234375,498.8172607421875,910.6223754882812,-189.00119018554688,-9.112639427185059,56.17991256713867,28.972078323364258,87.88763427734375,16383.505859375,65535.0
14838.695251574485,351.5009765625,499.13824462890625,935.4086303710938,-180.73959350585938,-6.934506416320801,62.3809814453125,33.4200325012207,91.95662689208984,16383.5048828125,65535.0
14838.695651583115,332.41680908203125,487.5611877441406,944.6276245117188,-171.57408142089844,-3.0401549339294434,66.39325714111328,37.875858306884766,95.85359191894531,16383.5029296875,65535.0
14838.696051591745,320.0222473144531,490.1714172363281,953.3978881835938,-175.549560546875,3.024351119995117,70.6461410522461,42.125404357910156,100.25785827636719,16383.501953125,65535.0
14838.696451600375,301.3020935058594,492.15972900390625,954.103515625,-168.43508911132812,-1.96358323097229,64.10790252685547,33.67487335205078,93.68407440185547,16383.5009765625,65535.0
14838.696851609006,293.1199035644531,489.21722412109375,916.5244140625,-173.4697723388672,-9.696067810058594,57.281166076660156,27.290206909179688,83.84013366699219,16383.5,65535.0
14838.697251617634,287.4995422363281,484.1895446777344,858.36376953125,-171.25936889648438,-8.325797080993652,61.48320388793945,28.284069061279297,89.55345916748047,16383.5,65535.0
14838.697651626264,280.4774475097656,481.99200439453125,831.1500854492188,-158.09292602539062,2.1781270503997803,74.0965576171875,39.842830657958984,98.07572174072266,16383.4990234375,65535.0
14838.698051634894,262.8401794433594,481.0692443847656,796.326904296875,-161.11163330078125,-0.3886808454990387,73.99803161621094,35.78703308105469,98.052490234375,16383.4990234375,65535.0
14838.698451643522,249.911865234375,474.69622802734375,766.1307983398438,-164.03292846679688,1.9542171955108643,72.83863067626953,37.7950439453125,96.041259765625,16383.4990234375,65535.0
14838.698851652152,228.4615936279297,471.5859069824219,741.6500244140625,-165.15704345703125,5.186761379241943,80.46074676513672,40.71087646484375,99.17620086669922,16383.4990234375,65535.0
14838.699251660782,217.47418212890625,471.8589172363281,715.17236328125,-170.4450225830078,-3.5250186920166016,74.03317260742188,37.57955551147461,94.44876861572266,16383.4990234375,65535.0
14838.699651669413,214.40907287597656,474.8665771484375,678.7294311523438,-173.285888671875,2.2074174880981445,80.13997650146484,39.83036422729492,98.1904067993164,16383.4990234375,65535.0
14838.700051678043,213.8081817626953,470.6076354980469,649.843505859375,-174.40684509277344,6.564194202423096,90.03445434570312,44.902732849121094,106.29005432128906,16383.4990234375,65535.0
14838.700451686671,226.09632873535156,479.767822265625,628.488037109375,-174.18809509277344,5.310930252075195,89.03366088867188,46.8966064453125,104.49512481689453,16383.4990234375,65535.0
14838.700851695301,249.6735382080078,471.40850830078125,603.7960205078125,-174.4171142578125,12.693244934082031,94.92396545410156,50.644256591796875,108.53416442871094,16383.4990234375,65535.0
14838.701251703931,276.5061340332031,466.2455139160156,595.3740844726562,-173.45022583007812,15.685681343078613,96.0125961303711,51.482723236083984,111.93403625488281,16383.5,65535.0
14838.70165171256,299.9678649902344,470.65167236328125,603.046630859375,-167.5779571533203,13.500192642211914,95.30809783935547,51.24137878417969,108.64186096191406,16383.5,65535.0
14838.70205172119,325.6412048339844,474.8650207519531,602.248779296875,-165.12939453125,2.6246190071105957,85.54461669921875,41.867279052734375,99.62152099609375,16383.5,65535.0
14838.70245172982,355.17352294921875,469.5401611328125,583.9898681640625,-161.1334991455078,6.643497467041016,87.67012786865234,45.64361572265625,102.36479187011719,16383.5,65535.0
14838.70285173845,360.541015625,473.66131591796875,578.2020874023438,-161.7899627685547,11.100643157958984,91.5075454711914,49.94795608520508,108.54254913330078,16383.5,65535.0
14838.70325174708,365.73321533203125,473.9747619628906,599.0994873046875,-164.82275390625,13.374783515930176,95.25669860839844,51.26272964477539,110.8330078125,16383.5,65535.0
14838.703651755708,364.9795227050781,480.80255126953125,612.4476928710938,-175.57691955566406,18.165889739990234,99.61710357666016,56.00440216064453,114.18419647216797,16383.5,65535.0
14838.704051764338,340.37054443359375,477.1062316894531,622.5006103515625,-185.4074249267578,13.45077133178711,96.45252990722656,53.32322692871094,109.47217559814453,16383.5,65535.0
14838.704451772968,333.09332275390625,478.3902282714844,619.8333740234375,-191.03260803222656,17.149019241333008,100.07516479492188,55.52281951904297,116.37386322021484,16383.5,65535.0
14838.704851781597,312.0277099609375,481.6500244140625,604.2083129882812,-185.2176055908203,13.755376815795898,96.32393646240234,52.867462158203125,112.03795623779297,16383.5,65535.0
14838.705251790227,287.6283874511719,487.524169921875,604.62646484375,-175.22276306152344,10.178160667419434,89.212890625,48.6633186340332,106.43671417236328,16383.5,65535.0
14838.705651798857,291.4082336425781,487.1426086425781,611.4080200195312,-171.55001831054688,7.527065753936768,84.19205474853516,45.109500885009766,103.38648223876953,16383.5,65535.0
14838.706051807487,289.2657470703125,496.7512512207031,625.4409790039062,-194.46583557128906,1.6192920207977295,77.18099975585938,40.02879333496094,100.42869567871094,16383.5,65535.0
14838.706451816117,282.689453125,503.0899353027344,626.83935546875,-194.2999267578125,4.500459671020508,77.06338500976562,42.932010650634766,101.82630157470703,16383.5,65535.0
14838.706851824745,293.8797302246094,498.75872802734375,634.8656616210938,-177.37362670898438,8.477553367614746,81.4061508178711,46.01321792602539,104.23817443847656,16383.5,65535.0
14838.707251833375,290.25396728515625,499.5007019042969,632.5300903320312,-181.689208984375,3.3601937294006348,79.99066162109375,42.88850784301758,104.24701690673828,16383.5,65535.0
14838.707651842005,295.76214599609375,508.14227294921875,615.4539794921875,-184.07501220703125,-8.450003623962402,65.705322265625,30.700763702392578,87.82113647460938,16383.5,65535.0
14838.708051850634,311.30303955078125,507.4825439453125,625.7046508789062,-184.2896270751953,-4.590014457702637,66.54547119140625,35.15513610839844,94.93448638916016,16383.5,65535.0
14838.708451859264,329.050048828125,501.634765625,643.1056518554688,-189.0247802734375,-0.17724448442459106,69.77062225341797,41.43169403076172,102.96028900146484,16383.5,65535.0
14838.708851867894,348.4127502441406,507.04425048828125,698.3373413085938,-191.31838989257812,1.772015929222107,71.10442352294922,43.43415832519531,99.37025451660156,16383.5,65535.0
14838.709251876524,361.95306396484375,499.3832092285156,737.65234375,-190.14962768554688,6.5070366859436035,73.41817474365234,44.14567565917969,105.08748626708984,16383.5,65535.0
14838.709651885154,377.346923828125,491.8478698730469,740.1815185546875,-181.9202117919922,-4.981464862823486,60.4952278137207,36.068138122558594,93.7472152709961,16383.5,65535.0
14838.710051893782,374.57470703125,493.9419860839844,739.7355346679688,-182.69808959960938,-4.676680564880371,57.82090377807617,34.978946685791016,93.92693328857422,16383.5,65535.0
14838.710451902412,368.0713195800781,495.9408264160156,762.0665283203125,-182.7647247314453,-5.333944797515869,56.33634567260742,32.28968048095703,93.70185852050781,16383.5,65535.0
14838.710851911042,352.22509765625,483.6192626953125,788.5419311523438,-185.59800720214844,-2.5651872158050537,61.60942840576172,35.48146057128906,97.45258331298828,16383.5,65535.0
14838.71125191967,351.4273681640625,483.0341796875,830.165283203125,-181.6114044189453,-8.217416763305664,56.62471389770508,33.95466995239258,89.95956420898438,16383.5,65535.0
14838.7116519283,341.4459228515625,487.7278747558594,850.0153198242188,-177.16212463378906,-10.445411682128906,50.01891326904297,31.437355041503906,85.99566650390625,16383.5,65535.0
14838.712051936931,315.7289123535156,489.78076171875,852.04248046875,-173.69708251953125,-11.673582077026367,48.86944580078125,28.467374801635742,86.30551147460938,16383.5,65535.0
14838.712451945561,288.8526611328125,487.5474853515625,861.8618774414062,-174.7967529296875,-2.4445641040802,56.54880142211914,35.66865921020508,92.54420471191406,16383.5,65535.0
14838.712851954191,275.9350891113281,489.8428649902344,895.7276000976562,-187.94772338867188,7.022916793823242,71.98815155029297,46.18242645263672,102.76359558105469,16383.5,65535.0
14838.71325196282,260.6817932128906,492.7394714355469,902.4234008789062,-181.01278686523438,-2.845036506652832,60.53215026855469,34.981990814208984,96.01119232177734,16383.5,65535.0
14838.71365197145,249.40493774414062,489.3124084472656,885.5523071289062,-174.9954376220703,-11.444316864013672,48.54412078857422,25.52708625793457,86.82115173339844,16383.5,65535.0
14838.71405198008,225.59498596191406,489.59747314453125,861.7018432617188,-167.3470458984375,-6.081541061401367,54.599098205566406,34.48623275756836,90.40323638916016,16383.5,65535.0
14838.714451988708,213.05552673339844,487.64825439453125,848.9807739257812,-163.59266662597656,-10.498370170593262,50.139122009277344,30.741973876953125,85.46113586425781,16383.5,65535.0
14838.714851997338,213.72042846679688,497.0915222167969,821.1835327148438,-165.7758331298828,-12.397462844848633,48.74109649658203,26.414270401000977,84.49400329589844,16383.5,65535.0
14838.715252005968,226.80477905273438,488.4942932128906,809.3090209960938,-170.65740966796875,-8.664519309997559,52.515995025634766,30.448457717895508,89.62806701660156,16383.5,65535.0
14838.715652014598,233.60040283203125,490.8735046386719,815.493408203125,-164.02723693847656,-0.33531755208969116,62.951568603515625,36.90558624267578,97.25211334228516,16383.5,65535.0
14838.716052023226,228.68325805664062,485.08990478515625,782.3960571289062,-166.63043212890625,-7.8740434646606445,55.96165466308594,30.75612449645996,89.0893783569336,16383.5,65535.0
14838.716452031857,232.76742553710938,472.6741943359375,719.8630981445312,-167.515869140625,-10.344114303588867,56.23359680175781,31.227825164794922,89.54188537597656,16383.5,65535.0
14838.716852040487,247.58502197265625,470.0959167480469,669.1256103515625,-164.05958557128906,-8.084753036499023,57.29364013671875,32.454689025878906,90.37552642822266,16383.5,65535.0
14838.717252049117,276.4612731933594,482.45904541015625,641.4688720703125,-167.40818786621094,7.783796787261963,74.99185943603516,44.230186462402344,103.19084930419922,16383.5,65535.0
14838.717652057745,286.0828857421875,478.0353088378906,621.78759765625,-170.27352905273438,9.755038261413574,83.43437957763672,49.0219841003418,107.72012329101562,16383.5,65535.0
14838.718052066375,292.5496826171875,476.6681823730469,588.01953125,-164.2400665283203,11.075128555297852,83.80697631835938,49.08125686645508,106.68711853027344,16383.5,65535.0
14838.718452075005,298.2554931640625,475.4070739746094,575.9822387695312,-157.5101318359375,8.763524055480957,82.45862579345703,46.60097885131836,107.72852325439453,16383.5,65535.0
14838.718852083635,303.12945556640625,476.7503967285156,584.7230834960938,-160.94602966308594,2.1088874340057373,77.85716247558594,42.42211151123047,103.85820007324219,16383.5,65535.0
14838.719252092264,317.7979736328125,473.772705078125,553.9786987304688,-173.65321350097656,3.8275554180145264,78.1783447265625,42.63978958129883,100.9281997680664,16383.5,65535.0
14838.719652100894,305.8356018066406,485.47406005859375,516.9901733398438,-172.68675231933594,7.161280632019043,83.9223403930664,47.22282791137695,104.99461364746094,16383.5,65535.0
14838.720052109524,279.2693176269531,479.12554931640625,508.14453125,-166.54920959472656,2.1429848670959473,84.02398681640625,43.370887756347656,102.37265014648438,16383.5,65535.0
14838.720452118154,273.313232421875,486.373291015625,493.868408203125,-164.939208984375,6.417686462402344,84.80803680419922,45.47597885131836,104.24800872802734,16383.5,65535.0
14838.720852126782,292.258056640625,488.6289367675781,480.14654541015625,-160.6168212890625,0.026624489575624466,72.72053527832031,35.36545944213867,93.83026885986328,16383.5,65535.0
14838.721252135412,301.8541564941406,484.242431640625,455.4864196777344,-153.2283477783203,3.6141064167022705,77.5007095336914,40.76026916503906,99.91602325439453,16383.5,65535.0
14838.721652144042,301.52081298828125,479.3768615722656,432.36920166015625,-162.02651977539062,-2.3993396759033203,75.5849609375,36.698734283447266,95.19207000732422,16383.5,65535.0
14838.722052152672,290.7386474609375,484.7103576660156,426.9397277832031,-173.5090789794922,4.4317450523376465,82.13318634033203,41.09043884277344,100.10931396484375,16383.5,65535.0
14838.7224521613,282.6630554199219,491.7518310546875,411.3691711425781,-184.16885375976562,13.92204761505127,91.26951599121094,51.70315170288086,109.79139709472656,16383.5,65535.0
14838.72285216993,287.51751708984375,481.8149719238281,410.88604736328125,-184.76393127441406,8.74589729309082,88.36031341552734,46.45041275024414,107.25690460205078,16383.5,65535.0
14838.72325217856,321.614501953125,484.7874450683594,417.489013671875,-186.9357147216797,11.260954856872559,91.61103820800781,49.61627197265625,109.23712158203125,16383.5,65535.0
14838.723652187191,356.5086975097656,489.6591796875,425.417236328125,-194.47789001464844,2.455817222595215,83.53572845458984,44.53731918334961,102.51466369628906,16383.5,65535.0
14838.72405219582,368.7445068359375,488.5410461425781,459.2974548339844,-190.4722137451172,9.025551795959473,84.19863891601562,49.72873306274414,105.33586120605469,16383.5,65535.0
14838.72445220445,359.81829833984375,487.1487121582031,487.54534912109375,-178.46835327148438,8.221835136413574,84.8203353881836,48.4361457824707,105.849853515625,16383.5,65535.0
14838.72485221308,355.532958984375,479.9756164550781,503.17724609375,-182.16221618652344,2.636810541152954,77.46702575683594,42.35477828979492,99.85980987548828,16383.5,65535.0
14838.72525222171,360.2609558105469,472.9995422363281,499.1392517089844,-178.83140563964844,9.679953575134277,81.37664031982422,48.06229019165039,105.93956756591797,16383.5,65535.0
14838.725652230338,370.6374206542969,479.564208984375,472.20635986328125,-169.66990661621094,12.896799087524414,83.30970001220703,49.12702941894531,106.40471649169922,16383.5,65535.0
14838.726052238968,383.4355773925781,489.8448181152344,450.37445068359375,-166.5894317626953,5.658904075622559,78.85247039794922,45.359554290771484,102.30328369140625,16383.5,65535.0
14838.726452247598,378.2500915527344,485.5128173828125,451.75421142578125,-160.15396118164062,5.858145713806152,72.86876678466797,44.425880432128906,101.46692657470703,16383.5,65535.0
14838.726852256228,378.5810546875,477.4659729003906,448.0865478515625,-163.79916381835938,3.7685558795928955,71.7657699584961,44.21571731567383,101.63129425048828,16383.5,65535.0
14838.727252264856,369.62591552734375,482.218017578125,466.57666015625,-165.9168243408203,-3.8625452518463135,61.67850875854492,34.045475006103516,94.09263610839844,16383.5,65535.0
14838.727652273486,360.67578125,485.9654846191406,479.9877014160156,-171.99891662597656,-1.4308065176010132,61.648372650146484,34.86595153808594,93.61654663085938,16383.5,65535.0
14838.728052282117,349.9195251464844,481.4577941894531,466.5953369140625,-169.17906188964844,-0.3643472194671631,62.77769470214844,38.03616714477539,95.28874206542969,16383.5,65535.0
14838.728452290747,342.1609802246094,482.84869384765625,451.04840087890625,-168.3699493408203,-5.990212917327881,57.12049865722656,32.34479904174805,92.53557586669922,16383.5,65535.0
14838.728852299375,343.7880859375,491.3122863769531,449.6561279296875,-170.79408264160156,-1.0117954015731812,61.1561164855957,38.349998474121094,95.0498275756836,16383.5,65535.0
14838.729252308005,362.0396423339844,491.2728271484375,446.7622375488281,-157.49757385253906,-8.361565589904785,51.31728744506836,29.57549476623535,86.8991928100586,16383.5,65535.0
14838.729652316635,385.5587158203125,498.5928955078125,466.0181579589844,-154.84725952148438,-11.45529556274414,49.55342483520508,27.4147891998291,85.54032897949219,16383.5,65535.0
14838.730052325265,409.9893798828125,495.93365478515625,469.8658447265625,-165.6118927001953,-10.792084693908691,48.53511428833008,29.185739517211914,84.83038330078125,16383.5,65535.0
14838.730452333893,442.31988525390625,490.4451904296875,483.5905456542969,-163.214111328125,-7.5068769454956055,47.76494598388672,31.028945922851562,89.70790100097656,16383.5,65535.0
14838.730852342524,475.7561340332031,487.94427490234375,504.3356018066406,-166.36817932128906,-9.280009269714355,46.92372131347656,28.422672271728516,86.81320190429688,16383.5,65535.0
14838.731252351154,515.343505859375,485.9815368652344,513.9857788085938,-169.23501586914062,-3.298604965209961,51.77214050292969,31.140228271484375,92.76958465576172,16383.5,65535.0
14838.731652359784,532.3273315429688,490.8213195800781,513.2098388671875,-163.5810089111328,-14.906682968139648,41.50468063354492,25.360107421875,83.42777252197266,16383.5,65535.0
14838.732052368412,520.5859985351562,488.58050537109375,516.7429809570312,-161.10585021972656,-8.350055694580078,51.74927520751953,32.58037567138672,93.23744201660156,16383.5,65535.0
14838.732452377042,498.77593994140625,486.8325500488281,516.2991943359375,-159.05552673339844,-10.542007446289062,46.07799530029297,30.030012130737305,88.9495620727539,16383.5,65535.0
14838.732852385672,483.86248779296875,476.9547424316406,535.935302734375,-165.96990966796875,-19.074251174926758,37.5103645324707,18.797033309936523,78.95934295654297,16383.5,65535.0
14838.733252394302,464.4119567871094,488.9246826171875,553.9140014648438,-156.92849731445312,-10.012225151062012,48.454158782958984,29.179340362548828,89.08820343017578,16383.5,65535.0
14838.73365240293,447.94268798828125,481.45849609375,572.6920776367188,-159.01976013183594,-9.096360206604004,49.98198699951172,30.321578979492188,87.07332611083984,16383.5,65535.0
14838.73405241156,437.5763244628906,473.08612060546875,568.03271484375,-153.71542358398438,-9.913476943969727,50.59233474731445,29.074270248413086,87.34880065917969,16383.5,65535.0
14838.73445242019,429.08154296875,478.3457946777344,560.85107421875,-166.7240447998047,-7.640920162200928,54.30534744262695,32.3571891784668,90.8973159790039,16383.5,65535.0
14838.73485242882,417.7435302734375,480.4435119628906,561.9495239257812,-171.3843536376953,-2.931204319000244,59.63393020629883,36.24314880371094,93.98177337646484,16383.5,65535.0
14838.73525243745,440.6145324707031,478.0840759277344,572.8546142578125,-171.81893920898438,-15.436799049377441,45.65420150756836,24.251976013183594,82.02928924560547,16383.5,65535.0
14838.73565244608,440.4093017578125,478.8222351074219,628.27587890625,-169.5318145751953,-11.489224433898926,48.662078857421875,28.949033737182617,89.13380432128906,16383.5,65535.0
14838.73605245471,436.23651123046875,479.5552978515625,664.5884399414062,-171.6002655029297,-7.250499248504639,54.318016052246094,32.26938247680664,91.06107330322266,16383.5,65535.0
14838.73645246334,451.0573425292969,482.9931640625,657.164794921875,-172.57662963867188,-1.5134273767471313,61.027549743652344,37.27792739868164,93.0481948852539,16383.5,65535.0
14838.736852471968,456.7321472167969,481.0824279785156,683.17041015625,-163.37985229492188,-5.485486030578613,58.490325927734375,32.773193359375,91.50740814208984,16383.5,65535.0
14838.737252480598,451.45452880859375,475.8435363769531,727.4220581054688,-170.1709747314453,-1.3602598905563354,68.96206665039062,38.899784088134766,98.31861114501953,16383.5,65535.0
14838.737652489228,415.3042907714844,481.5263366699219,750.2030029296875,-173.4007568359375,5.228956699371338,76.51688385009766,45.576011657714844,101.5823745727539,16383.5,65535.0
14838.738052497858,376.7503967285156,481.0264892578125,751.8992919921875,-156.22537231445312,8.897682189941406,79.71923828125,50.14768600463867,106.9242935180664,16383.5,65535.0
14838.738452506486,363.4463806152344,478.0453186035156,747.6649169921875,-149.3693389892578,10.382720947265625,87.36489868164062,50.262847900390625,110.46121215820312,16383.5,65535.0
14838.738852515116,358.1671142578125,474.9785461425781,740.0680541992188,-146.14529418945312,10.578718185424805,85.56295013427734,47.20565414428711,109.63092803955078,16383.5,65535.0
14838.739252523746,354.0483093261719,477.27996826171875,747.1023559570312,-150.0924072265625,14.479413986206055,90.13207244873047,55.70563507080078,113.42658996582031,16383.5,65535.0
14838.739652532375,345.93218994140625,485.8362121582031,757.3138427734375,-150.22361755371094,12.283405303955078,89.90731811523438,51.53624725341797,109.15435028076172,16383.5,65535.0
14838.740052541005,355.2282409667969,484.12481689453125,755.5336303710938,-145.18759155273438,11.993744850158691,92.38378143310547,51.64924621582031,113.64675903320312,16383.5,65535.0
14838.740452549635,363.34515380859375,483.03424072265625,751.26513671875,-145.21981811523438,7.796163558959961,85.60386657714844,46.6710090637207,105.05286407470703,16383.5,65535.0
14838.740852558265,379.2974548339844,483.7867736816406,735.4562377929688,-151.81101989746094,2.3566043376922607,82.12278747558594,40.3383903503418,101.55043029785156,16383.5,65535.0
14838.741252566895,393.5736999511719,491.8807678222656,710.4324951171875,-157.7497100830078,8.520472526550293,83.90147399902344,45.43038558959961,105.7543716430664,16383.5,65535.0
14838.741652575523,390.4234924316406,479.9020690917969,669.4343872070312,-156.6604766845703,3.1581544876098633,77.58360290527344,40.168704986572266,101.33049011230469,16383.5,65535.0
14838.742052584153,401.7830810546875,485.3804016113281,659.4169311523438,-169.65431213378906,1.2183706760406494,78.58332824707031,39.22711944580078,100.87583923339844,16383.5,65535.0
14838.742452592784,402.2350158691406,495.64764404296875,662.8239135742188,-173.23074340820312,-4.505582332611084,73.76325988769531,34.8247184753418,94.26943969726562,16383.5,65535.0
14838.742852601412,398.51092529296875,477.0775451660156,632.07373046875,-171.28207397460938,4.914581298828125,81.28910827636719,41.49103927612305,99.84876251220703,16383.5,65535.0
14838.743252610042,391.9463195800781,485.25823974609375,606.62353515625,-168.17364501953125,12.891756057739258,90.99474334716797,53.05702209472656,109.97286987304688,16383.5,65535.0
14838.743652618672,367.9925842285156,490.7459716796875,599.2474975585938,-165.79281616210938,5.878896713256836,82.893798828125,42.721923828125,106.1600341796875,16383.5,65535.0
14838.744052627302,347.1629638671875,488.4312744140625,603.0211181640625,-161.0802764892578,-0.7378248572349548,71.91897583007812,39.478111267089844,96.10861206054688,16383.5,65535.0
14838.744452635932,358.3810119628906,483.3946228027344,584.43603515625,-168.07022094726562,0.0019615022465586662,72.84992980957031,41.990821838378906,99.9668197631836,16383.5,65535.0
14838.74485264456,372.0926818847656,478.7435302734375,557.4193725585938,-169.86990356445312,-2.5291285514831543,70.0540771484375,37.907684326171875,98.11807250976562,16383.5,65535.0
14838.74525265319,382.43939208984375,490.1418762207031,543.3095092773438,-162.0337371826172,-1.9025743007659912,69.5928726196289,37.210391998291016,97.0805435180664,16383.5,65535.0
14838.74565266182,375.63116455078125,484.81414794921875,540.0139770507812,-151.01898193359375,-3.9927432537078857,67.96404266357422,36.47380828857422,94.43534851074219,16383.5,65535.0
14838.746052670449,367.3917236328125,481.8409118652344,534.8069458007812,-155.75326538085938,-4.289195537567139,63.236263275146484,34.985435485839844,93.6792221069336,16383.5,65535.0
14838.746452679079,368.5696716308594,481.5076904296875,529.9771728515625,-174.16986083984375,-9.552489280700684,54.98525619506836,26.70689582824707,88.57279968261719,16383.5,65535.0
14838.74685268771,360.2645568847656,480.06744384765625,531.2637939453125,-175.03912353515625,-8.924635887145996,54.07682418823242,28.230323791503906,85.72249603271484,16383.5,65535.0
14838.74725269634,364.835693359375,480.8204345703125,553.5614624023438,-174.8163604736328,-12.975689888000488,50.86394119262695,24.558086395263672,83.30315399169922,16383.5,65535.0
14838.74765270497,368.6947326660156,499.95098876953125,573.2993774414062,-188.44235229492188,-18.541481018066406,46.40888595581055,20.099180221557617,81.45695495605469,16383.5,65535.0
14838.748052713598,371.28955078125,495.3053894042969,573.3363037109375,-183.19320678710938,-12.241402626037598,50.031089782714844,27.329818725585938,86.67375946044922,16383.5,65535.0
14838.748452722228,371.42120361328125,493.4744567871094,582.416748046875,-173.83294677734375,-17.73771095275879,40.895904541015625,21.864913940429688,78.03822326660156,16383.5,65535.0
14838.748852730858,357.4527282714844,493.10089111328125,587.4147338867188,-154.48348999023438,-11.445144653320312,47.890342712402344,25.361282348632812,84.53482818603516,16383.5,65535.0
14838.749252739486,349.6856994628906,496.44561767578125,578.7100830078125,-163.01930236816406,-13.923507690429688,46.83422088623047,24.251291275024414,82.44117736816406,16383.5,65535.0
14838.749652748116,360.1227722167969,490.0981750488281,563.4412231445312,-164.37615966796875,-10.426321983337402,48.0271110534668,28.548046112060547,88.57978057861328,16383.5,65535.0
14838.750052756746,354.6727600097656,493.52606201171875,549.2603759765625,-161.00076293945312,-20.174041748046875,36.77571105957031,16.688968658447266,77.30121612548828,16383.5,65535.0
14838.750452765376,354.3544006347656,487.8656005859375,553.6298828125,-162.37330627441406,-12.305992126464844,43.22010040283203,25.855907440185547,86.25598907470703,16383.5,65535.0
14838.750852774006,338.597900390625,481.8717346191406,559.7019653320312,-168.37307739257812,-12.1580171585083,45.994041442871094,27.376392364501953,86.85382080078125,16383.5,65535.0
14838.751252782635,325.6734313964844,483.58746337890625,556.4345703125,-164.33062744140625,-17.91356086730957,35.32447052001953,19.643400192260742,80.64031982421875,16383.5,65535.0
14838.751652791265,322.4355163574219,488.600830078125,563.9572143554688,-164.74313354492188,-13.744176864624023,37.92526626586914,22.82400894165039,82.72772979736328,16383.5,65535.0
14838.752052799895,310.15264892578125,491.5244445800781,561.35009765625,-152.87478637695312,-10.024046897888184,45.14501190185547,27.46062469482422,84.46211242675781,16383.5,65535.0
14838.752452808523,308.0437927246094,489.5293273925781,574.3269653320312,-143.828369140625,-15.709802627563477,40.879241943359375,22.40745735168457,79.40132141113281,16383.5,65535.0
14838.752852817153,297.39508056640625,478.7310485839844,571.396484375,-144.16758728027344,-12.066312789916992,43.58499526977539,28.191635131835938,87.09153747558594,16383.5,65535.0
14838.753252825783,270.1292724609375,484.8038635253906,562.5733032226562,-153.28939819335938,-18.569538116455078,37.666507720947266,19.732040405273438,78.80695343017578,16383.5,65535.0
14838.753652834414,241.26174926757812,487.4499206542969,561.3469848632812,-151.1363983154297,-20.00554084777832,38.088008880615234,21.520797729492188,78.50540161132812,16383.5,65535.0
14838.754052843044,226.6527557373047,484.47174072265625,556.3502197265625,-141.0049591064453,-20.07954216003418,35.28951644897461,21.970319747924805,77.79651641845703,16383.5,65535.0
14838.754452851672,211.44577026367188,490.0512390136719,554.3268432617188,-148.20765686035156,-18.982133865356445,38.39149856567383,19.52216148376465,79.82135009765625,16383.5,65535.0
14838.754852860302,217.87088012695312,492.7479248046875,544.516845703125,-152.41937255859375,-16.6925106048584,43.38949966430664,24.496965408325195,81.68363952636719,16383.5,65535.0
14838.755252868932,246.96302795410156,485.078857421875,588.788818359375,-158.63790893554688,-9.142075538635254,46.47700500488281,27.40028953552246,85.81053161621094,16383.5,65535.0
14838.75565287756,260.4222412109375,475.7919616699219,677.3587036132812,-168.75709533691406,-8.707023620605469,51.083953857421875,30.645483016967773,87.09203338623047,16383.5,65535.0
14838.75605288619,281.251953125,486.88671875,748.1429443359375,-165.9869842529297,-13.360984802246094,51.1461067199707,28.70319938659668,87.54109191894531,16383.5,65535.0
14838.75645289482,314.422607421875,481.5646057128906,793.5469970703125,-160.10948181152344,-4.207898139953613,57.22358703613281,32.8580207824707,91.1983871459961,16383.5,65535.0
14838.75685290345,334.36798095703125,480.1154479980469,798.0038452148438,-156.95477294921875,0.2945132851600647,61.116573333740234,36.02392578125,95.56536102294922,16383.5,65535.0
14838.75725291208,358.9596252441406,475.04541015625,802.356201171875,-159.96450805664062,-4.826714515686035,60.6325569152832,36.631141662597656,95.10112762451172,16383.5,65535.0
14838.757652920709,354.2300109863281,473.2181396484375,811.4202880859375,-164.42323303222656,-0.21073389053344727,66.41570281982422,37.89025115966797,99.36511993408203,16383.5,65535.0
14838.75805292934,345.0630798339844,474.477783203125,824.3233642578125,-157.8776092529297,-4.6773176193237305,64.29513549804688,35.775794982910156,95.81006622314453,16383.5,65535.0
14838.75845293797,347.12713623046875,478.0111083984375,797.0894165039062,-144.1676788330078,-7.677748680114746,61.377986907958984,32.86396026611328,90.90784454345703,16383.5,65535.0
14838.758852946597,335.2309875488281,473.72991943359375,782.0437622070312,-143.06715393066406,2.927868604660034,73.80110168457031,42.303287506103516,100.72247314453125,16383.5,65535.0
14838.759252955228,327.4363098144531,478.8025817871094,764.1163940429688,-136.70538330078125,3.2571258544921875,77.67720794677734,41.65950012207031,104.99803924560547,16383.5,65535.0
14838.759652963858,329.3611755371094,478.78204345703125,738.1470947265625,-137.5056610107422,-2.854792356491089,69.50473022460938,37.56108093261719,95.49530029296875,16383.5,65535.0
14838.760052972488,324.7332458496094,470.0590515136719,728.1529541015625,-128.2438201904297,1.1759531497955322,76.01251983642578,40.45290756225586,97.49372100830078,16383.5,65535.0
14838.760452981116,312.5813293457031,472.36260986328125,701.5518188476562,-130.16513061523438,4.57699728012085,82.13990020751953,45.35496520996094,103.31269073486328,16383.5,65535.0
14838.760852989746,306.5968933105469,476.2453308105469,665.5685424804688,-139.43331909179688,-2.1010582447052,75.9929428100586,36.654144287109375,97.31947326660156,16383.5,65535.0
14838.761252998376,302.06329345703125,484.6538391113281,651.8909912109375,-133.92686462402344,-8.56923770904541,67.59796142578125,30.407602310180664,90.05078125,16383.5,65535.0
14838.761653007006,302.5155029296875,478.6380920410156,671.9971313476562,-142.04678344726562,-5.582577228546143,69.10015106201172,33.4962272644043,93.94740295410156,16383.5,65535.0
14838.762053015635,306.7149658203125,473.3795471191406,660.7957153320312,-164.88075256347656,-2.967456102371216,73.21311950683594,37.0257453918457,95.57234954833984,16383.5,65535.0
14838.762453024265,323.1640625,482.7357482910156,599.6328125,-178.43165588378906,6.438793182373047,83.25009155273438,43.83106994628906,104.27980041503906,16383.5,65535.0
14838.762853032895,338.00433349609375,483.2342529296875,561.642578125,-173.7938690185547,9.210372924804688,86.8808822631836,49.08222579956055,105.09659576416016,16383.5,65535.0
14838.763253041525,355.56744384765625,487.7243957519531,556.1869506835938,-174.87612915039062,7.624214172363281,85.43309020996094,48.06792068481445,106.07344818115234,16383.5,65535.0
14838.763653050153,383.8861083984375,488.3980712890625,566.319580078125,-182.94918823242188,6.753211498260498,82.23280334472656,43.85307693481445,104.38835906982422,16383.5,65535.0
14838.764053058783,419.4394836425781,488.96337890625,558.2799682617188,-174.6931915283203,-4.803776264190674,69.85406494140625,31.831392288208008,92.81605529785156,16383.5,65535.0
14838.764453067413,419.0362854003906,489.974609375,545.6864013671875,-179.31700134277344,-5.633610725402832,62.64945602416992,31.0649471282959,86.98871612548828,16383.5,65535.0
14838.764853076043,433.1728820800781,489.2046203613281,554.451904296875,-178.13795471191406,-1.098626732826233,69.50616455078125,39.38808059692383,96.94317626953125,16383.5,65535.0
14838.765253084672,451.238037109375,493.3326416015625,562.1904296875,-185.13845825195312,-5.908679485321045,67.20500183105469,33.82417678833008,90.66988372802734,16383.5,65535.0
14838.765653093302,438.7936706542969,487.2648010253906,552.21337890625,-191.2881317138672,-7.383365154266357,63.01043701171875,31.145036697387695,90.55121612548828,16383.5,65535.0
14838.766053101932,437.8858947753906,477.4027099609375,545.889892578125,-186.17276000976562,-13.46745777130127,56.56430435180664,25.668838500976562,87.08745574951172,16383.5,65535.0
14838.766453110562,440.8172912597656,478.9681091308594,546.0050659179688,-185.3030548095703,-5.8324737548828125,63.19505310058594,35.34507369995117,92.25926971435547,16383.5,65535.0
14838.76685311919,456.5781555175781,481.3543395996094,553.44775390625,-185.9925994873047,-0.7677226662635803,67.71404266357422,37.91728973388672,96.68447875976562,16383.5,65535.0
14838.76725312782,431.0172424316406,478.5649719238281,556.5341796875,-178.7138671875,-10.611594200134277,57.170799255371094,29.85800552368164,88.9190444946289,16383.5,65535.0
14838.76765313645,401.8397216796875,477.030517578125,562.8861694335938,-182.1650848388672,-15.452127456665039,50.997894287109375,24.71404457092285,85.06555938720703,16383.5,65535.0
14838.76805314508,384.5491027832031,476.1195983886719,567.5640258789062,-182.0832977294922,-12.398780822753906,49.46143341064453,26.19065284729004,83.83203887939453,16383.5,65535.0
14838.768453153709,373.6252746582031,468.1364440917969,594.8359375,-178.8336639404297,-16.167396545410156,44.56844711303711,20.858654022216797,78.94139862060547,16383.5,65535.0
14838.768853162339,364.2052001953125,474.2286376953125,592.1886596679688,-180.4786834716797,-22.752487182617188,36.96597671508789,17.998573303222656,76.85307312011719,16383.5,65535.0
14838.769253170969,332.86883544921875,470.86383056640625,566.3873291015625,-182.47593688964844,-22.676082611083984,36.27639389038086,17.438343048095703,75.15117645263672,16383.5,65535.0
14838.7696531796,333.5528564453125,471.7706604003906,550.0095825195312,-176.5853729248047,-16.437053680419922,42.38127136230469,20.582439422607422,81.90969848632812,16383.5,65535.0
14838.770053188227,335.6081848144531,482.0164489746094,523.108154296875,-171.18728637695312,-18.614412307739258,37.88670349121094,19.931840896606445,81.44263458251953,16383.5,65535.0
14838.770453196857,321.3384094238281,473.8807373046875,493.49713134765625,-173.648193359375,-16.52912712097168,37.75590133666992,20.46892547607422,79.52240753173828,16383.5,65535.0
14838.770853205488,317.2589416503906,483.490234375,495.3477478027344,-160.27490234375,-16.98767852783203,38.27037048339844,21.378971099853516,79.7990493774414,16383.5,65535.0
14838.771253214118,318.4035339355469,468.09295654296875,526.9654541015625,-177.4764862060547,-15.703239440917969,41.773719787597656,23.303991317749023,82.27383422851562,16383.5,65535.0
14838.771653222746,292.3470153808594,478.17755126953125,534.4389038085938,-180.05934143066406,-18.495813369750977,39.167781829833984,19.513059616088867,78.02932739257812,16383.5,65535.0
14838.772053231376,273.9798583984375,486.9070739746094,542.0169067382812,-174.70623779296875,-21.187580108642578,36.46242904663086,19.187772750854492,77.16182708740234,16383.5,65535.0
14838.772453240006,270.71539306640625,480.3594970703125,557.6688842773438,-169.3765411376953,-15.17273235321045,42.45980453491211,26.463708877563477,81.9924545288086,16383.5,65535.0
14838.772853248636,280.43023681640625,474.2933654785156,582.1490478515625,-170.78221130371094,-8.083045959472656,47.21358871459961,28.223434448242188,87.19395446777344,16383.5,65535.0
14838.773253257265,285.2590637207031,474.2005310058594,586.9385986328125,-171.6966094970703,-11.185761451721191,48.512901306152344,29.518173217773438,88.65518188476562,16383.5,65535.0
14838.773653265895,293.4321594238281,470.93695068359375,582.115966796875,-175.62774658203125,-16.462684631347656,39.47529220581055,20.019594192504883,79.50668334960938,16383.5,65535.0
14838.774053274525,299.3386535644531,479.0526123046875,593.9940185546875,-185.77334594726562,-9.119902610778809,50.74563980102539,27.752803802490234,90.47024536132812,16383.5,65535.0
14838.774453283155,304.3463439941406,482.691650390625,617.1760864257812,-179.37551879882812,-16.288145065307617,45.22836685180664,25.59808921813965,82.66996002197266,16383.5,65535.0
14838.774853291783,319.7431335449219,483.62945556640625,628.5813598632812,-172.63031005859375,-6.149916172027588,54.21553039550781,34.769432067871094,94.19073486328125,16383.5,65535.0
14838.775253300413,336.3033142089844,482.27587890625,638.1218872070312,-173.76170349121094,-1.067744255065918,62.23908233642578,36.34950256347656,97.3127670288086,16383.5,65535.0
14838.775653309043,343.9871826171875,471.5721740722656,619.2153930664062,-175.9132537841797,-2.3520731925964355,62.37242889404297,38.833431243896484,94.7366943359375,16383.5,65535.0
14838.776053317673,358.6510314941406,477.8382568359375,602.5938110351562,-175.86607360839844,1.4395925998687744,65.85053253173828,40.94504928588867,99.31521606445312,16383.5,65535.0
14838.776453326302,355.3057556152344,478.8144836425781,608.7750244140625,-164.6702880859375,5.1325249671936035,71.64897918701172,45.56785583496094,106.03575897216797,16383.5,65535.0
14838.776853334932,358.140380859375,473.1595764160156,614.2859497070312,-163.30909729003906,5.934506416320801,75.8262710571289,45.56085968017578,105.33575439453125,16383.5,65535.0
14838.777253343562,375.01202392578125,475.20257568359375,610.4652099609375,-174.2917022705078,8.09204387664795,78.0135269165039,46.25355529785156,103.0040283203125,16383.5,65535.0
14838.777653352192,364.91778564453125,475.0784912109375,622.6665649414062,-164.8465118408203,6.532651424407959,73.32865142822266,44.052494049072266,100.7776107788086,16383.5,65535.0
14838.77805336082,378.59967041015625,481.1939392089844,640.5576171875,-154.49716186523438,0.1662462055683136,71.37332153320312,39.67832946777344,98.46027374267578,16383.5,65535.0
14838.77845336945,377.7262878417969,470.26947021484375,639.2653198242188,-150.96969604492188,-0.3260004222393036,72.85944366455078,40.10044860839844,99.02037811279297,16383.5,65535.0
14838.77885337808,363.5343017578125,476.93939208984375,610.4614868164062,-156.11903381347656,-0.4462043046951294,70.20220947265625,37.54507064819336,93.96732330322266,16383.5,65535.0
14838.77925338671,370.2486877441406,478.63092041015625,591.1480102539062,-139.3241729736328,15.5238037109375,86.25984954833984,50.155582427978516,110.51390075683594,16383.5,65535.0
14838.779653395339,380.164306640625,483.57305908203125,608.834228515625,-139.32041931152344,18.451208114624023,96.2352523803711,56.80409622192383,115.99369049072266,16383.5,65535.0
14838.780053403969,390.7987365722656,475.65478515625,634.3673095703125,-148.3973388671875,21.361961364746094,98.75276947021484,59.44645690917969,118.9929428100586,16383.5,65535.0
14838.780453412599,395.8921203613281,481.052001953125,660.5203247070312,-152.1025390625,17.184326171875,97.52759552001953,55.713134765625,114.80252838134766,16383.5,65535.0
14838.780853421227,396.2854919433594,476.0457763671875,677.0643920898438,-155.68882751464844,19.895572662353516,99.29381561279297,56.34584045410156,115.13001251220703,16383.5,65535.0
14838.781253429857,399.6899108886719,474.2472839355469,678.6934814453125,-155.7281951904297,16.708126068115234,96.52392578125,57.23381805419922,113.27542114257812,16383.5,65535.0
14838.781653438487,416.0644226074219,481.7960510253906,657.3577270507812,-156.42855834960938,4.553834438323975,83.05232238769531,44.61663055419922,105.33399200439453,16383.5,65535.0
14838.782053447118,422.2852478027344,479.8354797363281,647.9229125976562,-161.32797241210938,6.375651836395264,83.14754486083984,46.8833122253418,105.267578125,16383.5,65535.0
14838.782453455748,432.75042724609375,482.1537780761719,646.564453125,-166.49078369140625,13.747509002685547,90.24421691894531,55.166385650634766,110.93999481201172,16383.5,65535.0
14838.782853464376,432.21142578125,483.67486572265625,644.8574829101562,-162.49900817871094,9.21855640411377,87.88053894042969,49.115421295166016,108.05565643310547,16383.5,65535.0
14838.783253473006,419.47552490234375,484.82208251953125,640.7388916015625,-164.32382202148438,-1.477531909942627,74.71179962158203,37.81948471069336,95.9050521850586,16383.5,65535.0
14838.783653481636,387.3074645996094,482.1766052246094,658.4513549804688,-175.30848693847656,-2.094961404800415,71.28861999511719,35.78969192504883,94.49249267578125,16383.5,65535.0
14838.784053490264,366.68133544921875,477.1411437988281,690.7683715820312,-174.6663818359375,-1.8284661769866943,72.49263000488281,37.00065612792969,96.7890625,16383.5,65535.0
14838.784453498894,358.68450927734375,466.1527099609375,718.8036499023438,-165.66946411132812,0.4330630600452423,71.63996887207031,36.39578628540039,94.93760681152344,16383.5,65535.0
14838.784853507525,356.87701416015625,473.590087890625,728.5556030273438,-164.85606384277344,-1.2217438220977783,75.02859497070312,36.96683120727539,98.2406997680664,16383.5,65535.0
14838.785253516155,349.33831787109375,477.8367919921875,719.3014526367188,-175.37962341308594,-0.14236164093017578,70.35106658935547,39.81184387207031,98.31016540527344,16383.5,65535.0
14838.785653524785,350.8691101074219,480.26214599609375,707.8477172851562,-170.90359497070312,-0.5484233498573303,71.17381286621094,38.108299255371094,100.26547241210938,16383.5,65535.0
14838.786053533413,352.2125244140625,484.10125732421875,685.3438110351562,-162.91183471679688,-7.849771022796631,61.651309967041016,31.96255111694336,91.6130142211914,16383.5,65535.0
14838.786453542043,348.3218994140625,478.9629821777344,681.3628540039062,-167.6096954345703,-2.0702521800994873,65.53866577148438,37.714839935302734,95.77716064453125,16383.5,65535.0
14838.786853550673,364.29071044921875,489.24615478515625,683.4699096679688,-174.47671508789062,0.38073670864105225,69.1444320678711,39.93074417114258,100.40745544433594,16383.5,65535.0
14838.787253559301,359.83001708984375,490.9218444824219,697.6434936523438,-182.60264587402344,-1.1931133270263672,64.92022705078125,35.6759033203125,96.21573638916016,16383.5,65535.0
14838.787653567932,353.2545471191406,495.474365234375,709.744873046875,-180.9558563232422,-6.5603532791137695,59.1601676940918,29.35547637939453,90.94677734375,16383.5,65535.0
14838.788053576562,348.14276123046875,494.037353515625,702.0172729492188,-188.62640380859375,-5.103222370147705,57.751548767089844,32.83930969238281,90.869873046875,16383.5,65535.0
14838.788453585192,350.3173522949219,492.96429443359375,657.3507080078125,-181.45530700683594,-6.248071670532227,55.24671173095703,31.345327377319336,90.89073181152344,16383.5,65535.0
14838.788853593822,351.58270263671875,494.677001953125,642.965576171875,-181.37319946289062,-16.083179473876953,46.30583190917969,24.33386993408203,84.55827331542969,16383.5,65535.0
14838.78925360245,342.303466796875,490.8809814453125,693.5199584960938,-177.70115661621094,-13.556866645812988,45.45661544799805,25.755802154541016,84.76716613769531,16383.5,65535.0
14838.78965361108,346.4968566894531,496.1315002441406,731.6986694335938,-172.07525634765625,-10.345402717590332,48.925235748291016,26.063270568847656,86.29713439941406,16383.5,65535.0
14838.79005361971,354.0418701171875,491.9636535644531,746.24365234375,-181.88160705566406,-14.075335502624512,44.361167907714844,24.67017936706543,82.15374755859375,16383.5,65535.0
14838.790453628339,343.8586730957031,494.1271057128906,762.6893920898438,-190.2216339111328,-13.223869323730469,43.24028778076172,23.70072364807129,85.40022277832031,16383.5,65535.0
14838.790853636969,334.5062255859375,481.6941833496094,764.4730224609375,-190.29302978515625,-16.80852508544922,41.701019287109375,23.116790771484375,82.31476593017578,16383.5,65535.0
14838.791253645599,330.5213623046875,483.625732421875,726.567138671875,-177.35304260253906,-18.483957290649414,34.47549057006836,21.077669143676758,81.1382827758789,16383.5,65535.0
14838.791653654229,339.7798767089844,484.72039794921875,698.055419921875,-163.12814331054688,-20.945232391357422,33.8300666809082,17.07082176208496,77.1025390625,16383.5,65535.0
14838.792053662859,343.13067626953125,475.8540344238281,714.1708374023438,-162.8856201171875,-7.569695949554443,49.84152603149414,29.9047908782959,90.37206268310547,16383.5,65535.0
14838.792453671487,329.48565673828125,478.28485107421875,739.332275390625,-163.70724487304688,-10.202445030212402,45.67911911010742,26.6571102142334,86.12016296386719,16383.5,65535.0
14838.792853680117,301.83306884765625,474.8440246582031,725.6902465820312,-162.90357971191406,-11.022417068481445,45.33195114135742,27.937732696533203,87.93565368652344,16383.5,65535.0
14838.793253688747,271.9348449707031,479.5596008300781,704.033203125,-175.0472412109375,-7.939983367919922,49.9730224609375,30.115428924560547,88.48953247070312,16383.5,65535.0
14838.793653697376,269.9981689453125,473.1162109375,686.8421020507812,-164.5723114013672,-12.386856079101562,47.777549743652344,26.657873153686523,87.0417251586914,16383.5,65535.0
14838.794053706006,259.980712890625,476.32958984375,682.5515747070312,-160.54029846191406,-21.204389572143555,36.398624420166016,19.205671310424805,77.7780532836914,16383.5,65535.0
14838.794453714636,237.35792541503906,473.1158447265625,664.7186889648438,-159.77618408203125,-15.681600570678711,42.35749816894531,24.206138610839844,82.68450927734375,16383.5,65535.0
14838.794853723266,230.61575317382812,484.420654296875,644.4235229492188,-147.6864471435547,-21.516902923583984,37.75005340576172,16.401538848876953,76.7421646118164,16383.5,65535.0
14838.795253731896,240.30923461914062,482.51031494140625,648.6453247070312,-152.92434692382812,-23.329496383666992,34.723846435546875,17.597564697265625,75.34199523925781,16383.5,65535.0
14838.795653740524,235.0078887939453,476.89910888671875,695.7427368164062,-154.70738220214844,-23.32546615600586,36.86271286010742,17.781940460205078,76.38805389404297,16383.5,65535.0
14838.796053749154,223.33468627929688,478.28570556640625,726.789306640625,-159.85592651367188,-27.12624740600586,33.016212463378906,13.427549362182617,71.08671569824219,16383.5,65535.0
14838.796453757785,198.3929901123047,481.0976257324219,719.1723022460938,-160.57061767578125,-21.583419799804688,39.89189910888672,20.334964752197266,77.79005432128906,16383.5,65535.0
14838.796853766413,182.5547637939453,473.945556640625,686.6209106445312,-160.84432983398438,-25.38995933532715,37.15261459350586,17.24456787109375,76.22940063476562,16383.5,65535.0
14838.797253775043,181.0804901123047,481.4696044921875,685.9957885742188,-152.60107421875,-24.573015213012695,37.4918327331543,14.968222618103027,72.32909393310547,16383.5,65535.0
14838.797653783673,183.96334838867188,477.652587890625,664.1241455078125,-142.29745483398438,-17.586402893066406,45.37028884887695,23.400482177734375,81.6133804321289,16383.5,65535.0
14838.798053792303,189.2349395751953,478.541015625,644.3211669921875,-153.51051330566406,-10.060861587524414,57.25362014770508,29.635318756103516,87.27847290039062,16383.5,65535.0
14838.798453800933,202.06045532226562,481.8958740234375,634.9867553710938,-153.5524444580078,-12.340557098388672,56.23762512207031,26.860673904418945,86.40422821044922,16383.5,65535.0
14838.798853809561,220.60089111328125,483.0693664550781,650.3694458007812,-144.72315979003906,-9.707304000854492,59.92790985107422,30.77203941345215,88.71426391601562,16383.5,65535.0
14838.799253818192,218.70411682128906,484.293701171875,661.6373291015625,-150.60342407226562,-4.907430648803711,69.43254089355469,35.06714630126953,93.37681579589844,16383.5,65535.0
14838.799653826822,212.20497131347656,475.5650329589844,653.06103515625,-156.7502899169922,-1.400506615638733,74.65519714355469,41.71141815185547,96.93465423583984,16383.5,65535.0
14838.80005383545,219.6915740966797,479.2886962890625,623.620361328125,-151.83460998535156,-0.8866797089576721,71.70598602294922,36.83127975463867,95.500732421875,16383.5,65535.0
14838.80045384408,240.6415557861328,488.4477233886719,595.8382568359375,-158.9132843017578,-5.224349498748779,68.42300415039062,31.362329483032227,91.28129577636719,16383.5,65535.0
14838.80085385271,283.68499755859375,493.5935363769531,593.763427734375,-158.9098358154297,0.41150155663490295,76.55501556396484,38.9588623046875,98.38542938232422,16383.5,65535.0
14838.80125386134,336.3431091308594,481.6449279785156,603.9850463867188,-169.04974365234375,-6.547911167144775,68.10464477539062,32.756797790527344,92.76374053955078,16383.5,65535.0
14838.801653869969,375.4855041503906,470.99322509765625,636.7108764648438,-164.74273681640625,4.096376419067383,78.00831604003906,42.62833023071289,99.13182830810547,16383.5,65535.0
14838.802053878599,406.18023681640625,479.735107421875,641.1925048828125,-157.1345672607422,7.187465667724609,85.08805084228516,45.3184700012207,105.74693298339844,16383.5,65535.0
14838.802453887229,430.166748046875,475.1549987792969,631.5828247070312,-161.250244140625,-6.8687214851379395,68.5904769897461,31.140485763549805,90.84622192382812,16383.5,65535.0
14838.802853895859,461.13250732421875,484.5344543457031,611.6849365234375,-163.08982849121094,-3.683130979537964,69.24776458740234,33.47422790527344,93.533447265625,16383.5,65535.0
14838.803253904487,491.7283020019531,476.030029296875,596.6029663085938,-156.6556854248047,-0.33398669958114624,72.44560241699219,35.62209701538086,95.38338470458984,16383.5,65535.0
14838.803653913117,521.0968017578125,474.8921813964844,590.2380981445312,-154.11109924316406,-4.131501197814941,71.38243103027344,35.965389251708984,95.063720703125,16383.5,65535.0
14838.804053921747,522.5341186523438,473.8133850097656,588.5037231445312,-155.09713745117188,1.037524700164795,76.01356506347656,40.72682189941406,99.34866333007812,16383.5,65535.0
14838.804453930377,509.63555908203125,482.79791259765625,572.2203369140625,-148.35569763183594,-8.847752571105957,65.13948059082031,30.712003707885742,89.30856323242188,16383.5,65535.0
14838.804853939006,505.58392333984375,483.2799072265625,556.342529296875,-140.83604431152344,-14.551894187927246,56.91035079956055,24.28093147277832,84.1751937866211,16383.5,65535.0
14838.805253947636,490.7545471191406,492.27899169921875,561.0584106445312,-149.45689392089844,-8.022526741027832,57.474796295166016,27.9212589263916,84.42185974121094,16383.5,65535.0
14838.805653956266,482.1488342285156,487.57763671875,562.1264038085938,-156.19461059570312,-11.676764488220215,56.573768615722656,25.69606590270996,84.50057983398438,16383.5,65535.0
14838.806053964896,468.376953125,490.8490905761719,568.6693115234375,-174.4225616455078,-14.345832824707031,51.66932678222656,26.82965087890625,86.93751525878906,16383.5,65535.0
