0,1,2,3,4,5,6,7,8,9,10
15418.808566721069,142.8148956298828,311.480712890625,166.7869873046875,-645.7195434570312,-38.02180862426758,31.40822982788086,2.155961036682129,59.84537887573242,16383.5,65535.0
15418.808966729699,141.1361083984375,313.5823974609375,178.34971618652344,-642.6206665039062,-43.507957458496094,26.193971633911133,-1.098636269569397,54.16379165649414,16383.5,65535.0
15418.80936673833,131.46487426757812,318.56732177734375,188.55966186523438,-635.2557373046875,-40.07691955566406,26.98940658569336,1.292056918144226,54.70508575439453,16383.5,65535.0
15418.80976674696,121.3818130493164,313.9109191894531,201.15208435058594,-637.258544921875,-41.58314514160156,26.47565460205078,3.3564722537994385,57.30122756958008,16383.5,65535.0
15418.81016675559,126.07967376708984,306.41473388671875,207.6550750732422,-638.7857666015625,-49.669673919677734,12.650310516357422,-6.826888561248779,48.94041061401367,16383.5,65535.0
15418.810566764218,117.092041015625,295.2218322753906,193.1248779296875,-637.7103881835938,-41.1439323425293,16.355863571166992,-2.038043260574341,53.92063903808594,16383.5,65535.0
15418.810966772848,121.51300811767578,293.9410705566406,215.5664825439453,-650.2538452148438,-46.161258697509766,18.68828773498535,-3.4070680141448975,51.17976760864258,16383.5,65535.0
15418.811366781478,114.31645202636719,298.3900451660156,222.13015747070312,-652.9906005859375,-46.25840377807617,16.8673038482666,-3.5072073936462402,51.97391891479492,16383.5,65535.0
15418.811766790106,103.83599090576172,303.630126953125,211.4417724609375,-649.0098876953125,-46.73017120361328,15.591431617736816,-6.335172653198242,50.22066116333008,16383.5,65535.0
15418.812166798736,100.91397857666016,296.54791259765625,195.89276123046875,-651.6238403320312,-45.898380279541016,17.990365982055664,-1.8735361099243164,53.21300506591797,16383.5,65535.0
15418.812566807366,114.3278579711914,304.8815002441406,196.51397705078125,-645.7879028320312,-40.28431701660156,24.16615867614746,2.7419207096099854,56.27267837524414,16383.5,65535.0
15418.812966815996,113.21839141845703,306.05450439453125,212.79696655273438,-636.313232421875,-37.98736572265625,25.480356216430664,3.043552875518799,59.632774353027344,16383.5,65535.0
15418.813366824625,115.21514129638672,308.62255859375,206.44151306152344,-624.840087890625,-35.55736541748047,32.44435501098633,6.008323669433594,63.193851470947266,16383.5,65535.0
15418.813766833255,130.57521057128906,309.0118103027344,199.6172332763672,-625.6904296875,-50.23151779174805,16.85735321044922,-7.356967926025391,49.704689025878906,16383.5,65535.0
15418.814166841885,141.38665771484375,300.71942138671875,198.98373413085938,-623.3585815429688,-42.3807487487793,25.689983367919922,0.7980898022651672,58.08086013793945,16383.5,65535.0
15418.814566850515,140.0297393798828,307.5892639160156,239.3149871826172,-618.300537109375,-37.46014404296875,31.59294319152832,6.132682800292969,62.81325912475586,16383.5,65535.0
15418.814966859143,151.4888458251953,303.0187683105469,254.95494079589844,-620.3035278320312,-37.165260314941406,30.045442581176758,4.862977027893066,62.114627838134766,16383.5,65535.0
15418.815366867773,172.2804718017578,304.8343811035156,229.68502807617188,-614.3317260742188,-33.06379699707031,35.47746658325195,6.5789642333984375,63.228065490722656,16383.5,65535.0
15418.815766876403,168.89857482910156,310.9793701171875,230.69334411621094,-614.1685180664062,-36.94942855834961,33.11146545410156,1.5801973342895508,59.71676254272461,16383.5,65535.0
15418.816166885033,156.92359924316406,296.8990783691406,244.06777954101562,-604.6908569335938,-37.86573028564453,30.39784812927246,3.9316606521606445,61.18852233886719,16383.5,65535.0
15418.816566893662,149.42532348632812,309.7032165527344,235.72177124023438,-606.7615966796875,-39.33835220336914,32.78488540649414,3.858696460723877,58.51702880859375,16383.5,65535.0
15418.816966902292,159.161376953125,314.6669921875,183.29762268066406,-610.0983276367188,-30.64436149597168,42.70547103881836,12.146832466125488,66.13508605957031,16383.5,65535.0
15418.817366910922,164.9065399169922,304.1373291015625,189.50140380859375,-594.9105224609375,-34.03950119018555,39.42523956298828,8.173735618591309,64.05488586425781,16383.5,65535.0
15418.817766919552,179.4644012451172,312.3638916015625,218.34678649902344,-596.6283569335938,-33.77878189086914,37.70833969116211,8.037956237792969,65.08198547363281,16383.5,65535.0
15418.81816692818,203.3070526123047,312.95465087890625,238.0904083251953,-598.704833984375,-26.520605087280273,47.88454818725586,14.184782981872559,69.99742889404297,16383.5,65535.0
15418.81856693681,212.4288787841797,324.40252685546875,253.40310668945312,-586.3836059570312,-29.267887115478516,45.69951248168945,13.419111251831055,68.62322998046875,16383.5,65535.0
15418.81896694544,207.47021484375,320.23809814453125,264.5827941894531,-589.6056518554688,-30.310943603515625,46.49918746948242,13.906662940979004,67.76512145996094,16383.5,65535.0
15418.81936695407,208.40206909179688,321.4210510253906,251.78770446777344,-594.3639526367188,-33.423248291015625,47.412254333496094,8.042798042297363,62.94578170776367,16383.5,65535.0
15418.819766962699,206.35679626464844,323.5990295410156,248.80844116210938,-586.50732421875,-22.43754768371582,57.6015510559082,16.906095504760742,76.03214263916016,16383.5,65535.0
15418.820166971329,218.85745239257812,323.5882873535156,256.3602600097656,-587.2703857421875,-12.08481216430664,73.31324005126953,29.384859085083008,86.55687713623047,16383.5,65535.0
15418.820566979959,230.8853759765625,330.84393310546875,266.64666748046875,-593.7049560546875,-22.252134323120117,62.41657257080078,18.249006271362305,75.2896728515625,16383.5,65535.0
15418.82096698859,223.32740783691406,330.3616943359375,276.3796691894531,-587.0795288085938,-25.234697341918945,55.96270751953125,14.828215599060059,71.4661636352539,16383.5,65535.0
15418.821366997217,236.16404724121094,329.808837890625,285.42236328125,-591.0557250976562,-20.213668823242188,63.85700988769531,21.63193130493164,76.9881591796875,16383.5,65535.0
15418.821767005848,244.66482543945312,323.891357421875,306.0212097167969,-595.7841186523438,-28.35672378540039,56.855770111083984,14.96996021270752,72.41048431396484,16383.5,65535.0
15418.822167014478,255.23976135253906,315.3646240234375,287.12310791015625,-603.1714477539062,-22.184280395507812,60.290367126464844,21.00088882446289,76.1538314819336,16383.5,65535.0
15418.822567023108,255.9206085205078,321.8218994140625,281.602294921875,-611.820556640625,-21.07158660888672,64.6321029663086,20.699983596801758,77.10855102539062,16383.5,65535.0
15418.822967031736,256.4605407714844,332.27142333984375,285.68951416015625,-615.545166015625,-20.220075607299805,60.08119201660156,19.957077026367188,77.98876953125,16383.5,65535.0
15418.823367040366,273.59112548828125,328.03125,272.46710205078125,-615.458984375,-21.007877349853516,61.302242279052734,24.1850643157959,78.21934509277344,16383.5,65535.0
15418.823767048996,280.2792053222656,326.4139404296875,274.93060302734375,-609.4921264648438,-36.6392707824707,44.38800048828125,6.8326215744018555,61.151214599609375,16383.5,65535.0
15418.824167057626,275.3064270019531,318.1700439453125,264.7745056152344,-610.2520751953125,-32.39828109741211,44.365055084228516,11.262447357177734,66.06798553466797,16383.5,65535.0
15418.824567066255,265.1483154296875,316.04510498046875,261.3409118652344,-614.20654296875,-34.8104362487793,42.498435974121094,9.495528221130371,63.55558395385742,16383.5,65535.0
15418.824967074885,260.7773132324219,320.1496276855469,273.41064453125,-615.4273071289062,-34.771934509277344,37.30940628051758,6.758322238922119,63.43655776977539,16383.5,65535.0
15418.825367083515,246.57958984375,317.197509765625,265.7850341796875,-619.5702514648438,-27.32822036743164,48.45236587524414,16.781885147094727,72.45572662353516,16383.5,65535.0
15418.825767092145,243.22271728515625,315.4331359863281,264.82403564453125,-636.217529296875,-31.197782516479492,43.38794708251953,10.875334739685059,68.86402130126953,16383.5,65535.0
15418.826167100773,257.9206848144531,320.7362976074219,231.84091186523438,-638.8098754882812,-30.36858367919922,42.111572265625,11.588144302368164,69.22361755371094,16383.5,65535.0
15418.826567109403,266.0645751953125,330.75787353515625,213.4916229248047,-646.3687744140625,-31.081790924072266,39.31452560424805,9.409948348999023,67.87181854248047,16383.5,65535.0
15418.826967118033,267.5828552246094,326.6958312988281,225.79376220703125,-655.7446899414062,-26.749814987182617,45.56667709350586,14.400491714477539,72.12842559814453,16383.5,65535.0
15418.827367126663,262.4188232421875,329.9582214355469,254.43060302734375,-655.6660766601562,-29.107521057128906,42.859718322753906,15.327794075012207,69.49695587158203,16383.5,65535.0
15418.827767135292,252.2552032470703,327.52349853515625,262.07330322265625,-651.8756713867188,-21.789520263671875,46.65510177612305,18.049564361572266,74.10396575927734,16383.5,65535.0
15418.828167143922,237.40296936035156,329.4382629394531,251.8890380859375,-652.8215942382812,-28.26406478881836,40.110877990722656,14.970198631286621,69.47993469238281,16383.5,65535.0
15418.828567152552,243.40341186523438,336.5607604980469,242.23898315429688,-657.4678344726562,-37.194091796875,31.826215744018555,8.78515911102295,64.82758331298828,16383.5,65535.0
15418.828967161182,234.57083129882812,339.743896484375,229.86756896972656,-645.396484375,-37.03961944580078,25.842344284057617,1.3573315143585205,60.297725677490234,16383.5,65535.0
15418.82936716981,221.57623291015625,328.212158203125,223.0437469482422,-635.1322021484375,-35.18167495727539,26.356428146362305,3.5395755767822266,62.73103713989258,16383.5,65535.0
15418.82976717844,215.29278564453125,331.51654052734375,216.76243591308594,-637.6469116210938,-41.306556701660156,19.85669708251953,-0.9879700541496277,55.71607208251953,16383.5,65535.0
15418.83016718707,205.0082244873047,339.52520751953125,214.4788360595703,-633.3427124023438,-41.97261428833008,21.15870475769043,0.3050379455089569,55.88911437988281,16383.5,65535.0
15418.8305671957,224.78140258789062,327.03607177734375,206.8350830078125,-629.0521850585938,-28.125978469848633,35.43895721435547,15.742791175842285,69.39239501953125,16383.5,65535.0
15418.830967204329,226.40162658691406,332.3171691894531,213.6359405517578,-622.1469116210938,-32.99070739746094,29.939842224121094,9.222143173217773,63.75137710571289,16383.5,65535.0
15418.831367212959,226.94651794433594,328.9935302734375,224.97608947753906,-624.487060546875,-44.296730041503906,17.109054565429688,-3.2226123809814453,53.7409553527832,16383.5,65535.0
15418.831767221589,255.6287384033203,331.7510070800781,227.29104614257812,-619.289794921875,-44.835205078125,19.281034469604492,-1.3037792444229126,56.73366928100586,16383.5,65535.0
15418.832167230219,274.3814392089844,325.239013671875,212.2599334716797,-615.4638061523438,-36.03706741333008,26.604137420654297,9.495708465576172,65.23040771484375,16383.5,65535.0
15418.832567238847,269.06488037109375,317.1601257324219,223.01541137695312,-619.9070434570312,-41.02080535888672,20.972660064697266,3.196113348007202,57.884037017822266,16383.5,65535.0
15418.832967247477,259.7320556640625,316.6037292480469,224.26170349121094,-618.46484375,-34.964378356933594,26.94519805908203,7.403824329376221,60.80684280395508,16383.5,65535.0
15418.833367256108,245.22535705566406,321.1952819824219,232.79205322265625,-613.0313110351562,-43.16096115112305,23.661771774291992,-0.2955925166606903,54.190921783447266,16383.5,65535.0
15418.833767264738,232.33497619628906,325.14398193359375,234.20083618164062,-605.3538208007812,-44.79093933105469,20.31304931640625,-1.6417758464813232,54.29241943359375,16383.5,65535.0
15418.834167273366,223.7022247314453,322.905029296875,220.8291778564453,-609.9091796875,-42.59037399291992,23.868627548217773,0.4650922119617462,55.57028579711914,16383.5,65535.0
15418.834567281996,209.06019592285156,315.98260498046875,227.23434448242188,-610.5509643554688,-39.668121337890625,27.955642700195312,6.293731212615967,59.38257598876953,16383.5,65535.0
15418.834967290626,194.9134063720703,314.8978271484375,217.96041870117188,-615.4464721679688,-37.0257453918457,28.257328033447266,4.263425827026367,61.39607238769531,16383.5,65535.0
15418.835367299256,207.88575744628906,321.5862731933594,217.61679077148438,-622.673583984375,-31.58163833618164,34.817317962646484,9.135302543640137,66.93553161621094,16383.5,65535.0
15418.835767307884,196.06532287597656,314.67047119140625,193.0394287109375,-620.1083374023438,-35.92820358276367,32.189117431640625,8.004019737243652,63.66423034667969,16383.5,65535.0
15418.836167316515,186.14068603515625,317.0538635253906,193.07098388671875,-611.2003173828125,-41.24345397949219,30.75836944580078,4.250424861907959,59.40890121459961,16383.5,65535.0
15418.836567325145,192.09146118164062,321.8948669433594,210.87953186035156,-619.1011352539062,-32.92981719970703,41.22416305541992,11.662801742553711,66.15664672851562,16383.5,65535.0
15418.836967333773,193.7654571533203,319.54571533203125,224.4813690185547,-617.2037353515625,-28.779287338256836,45.962642669677734,14.97317886352539,71.983154296875,16383.5,65535.0
15418.837367342403,190.8817596435547,317.924560546875,221.20538330078125,-614.3932495117188,-26.18511962890625,51.41233825683594,16.531450271606445,73.06763458251953,16383.5,65535.0
15418.837767351033,185.95172119140625,322.1690368652344,229.35507202148438,-611.3717651367188,-37.22633743286133,42.41404724121094,6.904423713684082,63.87923812866211,16383.5,65535.0
15418.838167359663,209.2030029296875,313.7126159667969,229.32611083984375,-603.6312255859375,-45.25401306152344,31.89698028564453,-2.362515926361084,55.89726257324219,16383.5,65535.0
15418.838567368293,224.46176147460938,312.6786193847656,226.9996337890625,-611.4923706054688,-37.00701141357422,37.57187271118164,6.80094051361084,62.027130126953125,16383.5,65535.0
15418.838967376922,214.4976348876953,320.367919921875,253.28089904785156,-607.3678588867188,-26.072786331176758,53.7541389465332,18.496877670288086,73.31620788574219,16383.5,65535.0
15418.839367385552,212.12698364257812,326.2261047363281,280.00689697265625,-606.7260131835938,-19.068632125854492,61.77165985107422,22.23719024658203,80.16544342041016,16383.5,65535.0
15418.839767394182,203.5950164794922,321.1133117675781,277.1352844238281,-613.524169921875,-20.009803771972656,62.22351837158203,20.158447265625,77.64971923828125,16383.5,65535.0
15418.84016740281,202.95852661132812,317.4744567871094,266.32318115234375,-614.4270629882812,-27.84384536743164,55.34950637817383,15.28569507598877,70.7130126953125,16383.5,65535.0
15418.84056741144,210.3955535888672,314.4824523925781,246.2691192626953,-616.8831787109375,-21.110822677612305,61.44054412841797,20.552616119384766,78.9896011352539,16383.5,65535.0
15418.84096742007,217.0076141357422,320.5903015136719,253.22537231445312,-622.4183959960938,-26.33049964904785,56.718990325927734,15.647708892822266,69.66120147705078,16383.5,65535.0
15418.8413674287,216.38204956054688,329.0345764160156,284.7071838378906,-623.1293334960938,-17.568897247314453,63.17116928100586,24.265274047851562,79.82010650634766,16383.5,65535.0
15418.84176743733,222.70167541503906,326.1195983886719,308.7107238769531,-614.513671875,-15.255352020263672,69.613037109375,29.772855758666992,84.32785034179688,16383.5,65535.0
15418.842167445959,224.16546630859375,320.2532958984375,306.7259826660156,-608.748046875,-18.546125411987305,63.536251068115234,23.0433406829834,78.58888244628906,16383.5,65535.0
15418.842567454589,231.97454833984375,329.18359375,288.0128173828125,-616.3899536132812,-17.312681198120117,62.61697769165039,22.117069244384766,79.7295913696289,16383.5,65535.0
15418.842967463219,234.01962280273438,327.9526672363281,274.2519836425781,-617.3289794921875,-22.74582862854004,59.44628143310547,20.476144790649414,77.44754028320312,16383.5,65535.0
15418.843367471847,248.29483032226562,326.97393798828125,281.1465759277344,-618.9005737304688,-15.494837760925293,64.97601318359375,27.072534561157227,84.50444030761719,16383.5,65535.0
15418.843767480477,237.86309814453125,327.9024353027344,286.61761474609375,-615.3182983398438,-15.879986763000488,64.76510620117188,25.760910034179688,81.66937255859375,16383.5,65535.0
15418.844167489107,232.87637329101562,316.8381652832031,306.6935119628906,-631.1375122070312,-23.8776798248291,56.20752716064453,18.65165138244629,75.49332427978516,16383.5,65535.0
15418.844567497737,227.22145080566406,315.5201416015625,310.60113525390625,-633.1498413085938,-23.07059097290039,56.32905960083008,19.073217391967773,76.10929870605469,16383.5,65535.0
15418.844967506368,234.25482177734375,325.443359375,305.0666809082031,-622.6323852539062,-21.986400604248047,54.72639083862305,20.5843448638916,75.08828735351562,16383.5,65535.0
15418.845367514996,231.40322875976562,324.01007080078125,312.9973449707031,-625.6585083007812,-29.098848342895508,46.570560455322266,15.6066312789917,69.57632446289062,16383.5,65535.0
15418.845767523626,234.21041870117188,321.32525634765625,330.7235412597656,-629.2833251953125,-34.18400573730469,37.83531188964844,9.397566795349121,62.91993713378906,16383.5,65535.0
15418.846167532256,223.2269744873047,322.65911865234375,334.92156982421875,-619.8690795898438,-28.688501358032227,45.30897521972656,13.870945930480957,68.92843627929688,16383.5,65535.0
15418.846567540884,212.7781219482422,321.0668029785156,329.2065734863281,-629.7800903320312,-36.210472106933594,35.57099533081055,8.563087463378906,64.44617462158203,16383.5,65535.0
15418.846967549514,207.51278686523438,316.0916748046875,312.0797424316406,-629.9868774414062,-28.665966033935547,40.738643646240234,14.59148120880127,71.9505615234375,16383.5,65535.0
15418.847367558144,212.9539337158203,316.06134033203125,311.241943359375,-633.0661010742188,-32.380367279052734,39.26664352416992,9.655792236328125,67.66326141357422,16383.5,65535.0
15418.847767566775,215.11851501464844,323.4524230957031,294.4331359863281,-625.0087280273438,-35.256290435791016,32.07512664794922,5.4644975662231445,63.09878158569336,16383.5,65535.0
15418.848167575405,208.124755859375,322.8570251464844,285.69244384765625,-638.7158203125,-34.211570739746094,30.895158767700195,7.368129730224609,60.91557312011719,16383.5,65535.0
15418.848567584033,201.04965209960938,321.98321533203125,288.08038330078125,-631.986328125,-45.4184455871582,24.17832374572754,2.186354398727417,54.19264221191406,16383.5,65535.0
15418.848967592663,201.7958221435547,322.91693115234375,298.6855163574219,-629.5054931640625,-41.21997833251953,21.075227737426758,3.1430304050445557,54.53025436401367,16383.5,65535.0
15418.849367601293,202.91226196289062,325.85260009765625,285.54083251953125,-635.5596923828125,-42.46116256713867,17.23652458190918,-0.8765146136283875,54.060508728027344,16383.5,65535.0
15418.849767609921,201.23648071289062,324.68115234375,285.456298828125,-631.802001953125,-41.86507034301758,20.311643600463867,3.290766477584839,58.485023498535156,16383.5,65535.0
15418.850167618551,200.08258056640625,317.39239501953125,269.6921081542969,-627.2184448242188,-37.55908966064453,22.49318504333496,4.18154764175415,59.79970169067383,16383.5,65535.0
15418.850567627182,199.08306884765625,315.5514221191406,276.20550537109375,-624.1815795898438,-38.69244384765625,22.704681396484375,1.4488170146942139,57.042667388916016,16383.5,65535.0
15418.850967635812,185.21221923828125,322.6779479980469,280.1856384277344,-620.2347412109375,-43.0034294128418,21.332645416259766,-1.6700561046600342,55.274234771728516,16383.5,65535.0
15418.851367644442,174.60475158691406,324.6327819824219,244.13372802734375,-620.55712890625,-45.22038650512695,14.05871295928955,-4.052000045776367,54.43100357055664,16383.5,65535.0
15418.85176765307,165.7133026123047,323.6846008300781,223.78692626953125,-618.864990234375,-41.71692657470703,17.95124626159668,-0.1477540135383606,55.66966247558594,16383.5,65535.0
15418.8521676617,150.20571899414062,325.4704895019531,225.627197265625,-600.3975830078125,-47.635986328125,12.143046379089355,-5.108641147613525,52.019134521484375,16383.5,65535.0
15418.85256767033,145.82029724121094,331.73492431640625,246.61813354492188,-608.173095703125,-45.21993637084961,14.781540870666504,-4.174184322357178,53.91587829589844,16383.5,65535.0
15418.852967678959,133.1156768798828,333.7926940917969,264.5378723144531,-616.589111328125,-42.78994369506836,18.427366256713867,-2.310351610183716,54.459903717041016,16383.5,65535.0
15418.853367687589,138.00088500976562,328.5884704589844,267.5596008300781,-613.5703125,-33.53611373901367,28.778419494628906,10.000117301940918,62.02341842651367,16383.5,65535.0
15418.853767696219,147.50526428222656,331.8461608886719,260.12567138671875,-615.4562377929688,-26.7393798828125,36.866085052490234,17.15134620666504,69.31989288330078,16383.5,65535.0
15418.854167704849,151.89004516601562,339.0796813964844,246.73345947265625,-611.6298828125,-33.237586975097656,33.228790283203125,9.501799583435059,63.700767517089844,16383.5,65535.0
15418.854567713479,149.11769104003906,335.60894775390625,226.4130096435547,-606.9939575195312,-42.62858963012695,22.98430633544922,-0.7634400129318237,54.83748245239258,16383.5,65535.0
15418.854967722107,164.02462768554688,342.4716491699219,243.28619384765625,-612.5075073242188,-39.511783599853516,28.427892684936523,3.8316268920898438,61.3886833190918,16383.5,65535.0
15418.855367730737,156.0596923828125,336.97412109375,245.77268981933594,-605.2298583984375,-39.193687438964844,28.278934478759766,2.2697746753692627,60.794620513916016,16383.5,65535.0
15418.855767739367,134.64654541015625,328.2080993652344,258.3887634277344,-607.3896484375,-30.927881240844727,37.74420928955078,10.223867416381836,65.44405364990234,16383.5,65535.0
15418.856167747996,119.62317657470703,317.8197937011719,256.9548645019531,-613.9976196289062,-39.10989761352539,32.6799201965332,3.729076862335205,60.64408874511719,16383.5,65535.0
15418.856567756626,113.68797302246094,315.0575866699219,253.7339630126953,-621.8770141601562,-44.25922393798828,25.65355110168457,-3.12699556350708,56.77593994140625,16383.5,65535.0
15418.856967765256,107.50040435791016,300.0404052734375,262.75335693359375,-620.8407592773438,-33.70450973510742,36.306846618652344,4.510049819946289,59.43745803833008,16383.5,65535.0
15418.857367773886,117.28682708740234,293.22796630859375,264.1771240234375,-616.2474365234375,-28.141494750976562,43.080718994140625,11.334663391113281,66.02604675292969,16383.5,65535.0
15418.857767782514,121.78255462646484,298.49102783203125,268.9837646484375,-604.4808349609375,-27.488988876342773,47.933475494384766,15.064462661743164,69.81036376953125,16383.5,65535.0
15418.858167791144,111.46270751953125,295.7118835449219,287.2365417480469,-601.2839965820312,-28.855560302734375,45.13302993774414,12.98875617980957,67.40996551513672,16383.5,65535.0
15418.858567799774,107.89112091064453,307.419921875,300.7984619140625,-605.4556884765625,-38.836429595947266,38.76903533935547,6.564690589904785,61.54839324951172,16383.5,65535.0
15418.858967808404,107.22360229492188,298.6293029785156,310.9399719238281,-593.9872436523438,-36.97721481323242,39.85962677001953,5.161104679107666,61.6104736328125,16383.5,65535.0
15418.859367817033,99.49718475341797,303.8844909667969,293.2104187011719,-584.4425659179688,-22.37226676940918,56.6088752746582,18.963796615600586,73.14240264892578,16383.5,65535.0
15418.859767825663,106.67449188232422,304.73760986328125,299.8746337890625,-597.609619140625,-31.813976287841797,52.3869743347168,11.628355026245117,69.14628601074219,16383.5,65535.0
15418.860167834293,130.46739196777344,312.0840759277344,326.438720703125,-605.2117919921875,-25.438135147094727,57.639129638671875,19.554033279418945,76.23590850830078,16383.5,65535.0
15418.860567842923,153.8381805419922,308.16693115234375,314.6863708496094,-604.3037109375,-24.628156661987305,61.24946594238281,19.8309326171875,74.32522583007812,16383.5,65535.0
15418.860967851551,183.6171875,308.5948486328125,306.7939453125,-604.4132080078125,-29.53830337524414,51.36940002441406,13.855133056640625,70.71703338623047,16383.5,65535.0
15418.861367860181,184.24407958984375,304.4280090332031,306.57257080078125,-600.8998413085938,-22.100614547729492,60.02960205078125,20.61675262451172,77.28768157958984,16383.5,65535.0
15418.861767868812,190.3050079345703,314.0760498046875,322.4721374511719,-607.0296630859375,-24.9105167388916,59.0644645690918,18.324199676513672,72.97160339355469,16383.5,65535.0
15418.862167877442,189.44500732421875,307.79779052734375,311.9393615722656,-614.4153442382812,-20.10776710510254,60.34992218017578,18.746652603149414,77.18639373779297,16383.5,65535.0
15418.86256788607,178.1566619873047,314.949951171875,290.95635986328125,-608.00390625,-21.0058650970459,60.624610900878906,18.513635635375977,76.95768737792969,16383.5,65535.0
15418.8629678947,172.38658142089844,317.2967529296875,282.4312744140625,-611.2975463867188,-26.981231689453125,52.55716323852539,12.552515983581543,68.92927551269531,16383.5,65535.0
15418.86336790333,148.02484130859375,325.9116516113281,275.6709899902344,-615.6224365234375,-26.2286434173584,54.67802047729492,19.2898006439209,73.0764389038086,16383.5,65535.0
15418.86376791196,143.83042907714844,323.77862548828125,256.2253723144531,-624.2901000976562,-24.78195571899414,53.693572998046875,19.9073543548584,74.57093811035156,16383.5,65535.0
15418.864167920588,144.17654418945312,322.80841064453125,257.1844482421875,-631.8513793945312,-27.967483520507812,48.28132247924805,16.073373794555664,70.51174926757812,16383.5,65535.0
15418.864567929219,133.63888549804688,326.0113220214844,242.23670959472656,-634.5818481445312,-22.371601104736328,54.468326568603516,17.5980167388916,74.134521484375,16383.5,65535.0
15418.864967937849,137.72769165039062,327.0215148925781,223.38973999023438,-616.2703247070312,-24.01373863220215,51.49352264404297,17.49915313720703,73.12513732910156,16383.5,65535.0
15418.865367946479,141.99928283691406,328.9413146972656,219.16619873046875,-612.2221069335938,-26.464599609375,49.592262268066406,15.505599021911621,72.11311340332031,16383.5,65535.0
15418.865767955107,143.82699584960938,337.46881103515625,214.60255432128906,-618.7181396484375,-32.368194580078125,46.13750457763672,14.05077838897705,68.1927261352539,16383.5,65535.0
15418.866167963737,150.07644653320312,329.53961181640625,211.12838745117188,-629.2003173828125,-30.480844497680664,45.28456115722656,10.219610214233398,64.63265228271484,16383.5,65535.0
15418.866567972367,159.61532592773438,326.59149169921875,209.77565002441406,-637.773681640625,-23.057411193847656,48.893959045410156,18.281322479248047,73.24815368652344,16383.5,65535.0
15418.866967980997,175.40240478515625,333.16729736328125,210.80508422851562,-635.4578857421875,-21.356660842895508,53.67448425292969,21.789304733276367,78.21660614013672,16383.5,65535.0
15418.867367989626,175.7381591796875,329.3865661621094,214.44676208496094,-639.3837890625,-30.649110794067383,43.83804702758789,15.67343521118164,72.65351867675781,16383.5,65535.0
15418.867767998256,170.6278839111328,322.6278991699219,203.36672973632812,-642.2428588867188,-35.86054611206055,34.563575744628906,8.123283386230469,66.10493469238281,16383.5,65535.0
15418.868168006886,167.23336791992188,319.6034240722656,197.78575134277344,-645.2379760742188,-31.82864761352539,35.54286193847656,8.847738265991211,64.38455200195312,16383.5,65535.0
15418.868568015516,170.38595581054688,321.0261535644531,200.31541442871094,-637.2892456054688,-31.710058212280273,37.14460754394531,11.643113136291504,68.5483169555664,16383.5,65535.0
15418.868968024144,185.01239013671875,320.0936584472656,219.56390380859375,-643.720703125,-45.02237319946289,24.943424224853516,1.0605342388153076,54.37644958496094,16383.5,65535.0
15418.869368032774,212.3076171875,323.51116943359375,219.8251953125,-633.6465454101562,-43.779502868652344,22.135427474975586,1.839735746383667,53.41701889038086,16383.5,65535.0
15418.869768041404,227.80706787109375,316.44256591796875,204.8740234375,-637.2352905273438,-41.10590362548828,21.684316635131836,2.9624953269958496,57.24021911621094,16383.5,65535.0
15418.870168050034,229.30816650390625,308.1011657714844,207.59100341796875,-633.6658935546875,-47.57416534423828,13.89482593536377,-6.503450393676758,50.73873519897461,16383.5,65535.0
15418.870568058663,221.026611328125,308.29608154296875,184.2372589111328,-641.815673828125,-32.33904266357422,28.612394332885742,7.725250720977783,63.04010009765625,16383.5,65535.0
15418.870968067293,220.47093200683594,309.6524658203125,167.95242309570312,-641.4124755859375,-38.61830520629883,23.89064598083496,3.427506446838379,59.46925354003906,16383.5,65535.0
15418.871368075923,226.413330078125,312.0459289550781,216.29808044433594,-630.0497436523438,-44.915279388427734,17.065086364746094,-2.2596595287323,55.261600494384766,16383.5,65535.0
15418.871768084553,247.2161102294922,321.20318603515625,221.1228790283203,-624.8396606445312,-41.41390609741211,20.417797088623047,0.05169012024998665,54.78273391723633,16383.5,65535.0
15418.872168093181,246.2950897216797,308.67578125,174.8236083984375,-625.8202514648438,-34.46927261352539,27.107622146606445,6.082976818084717,62.35280990600586,16383.5,65535.0
15418.872568101811,247.36915588378906,307.4886474609375,160.90213012695312,-628.941650390625,-33.62749099731445,29.31861114501953,6.831010818481445,63.25938415527344,16383.5,65535.0
15418.872968110441,249.08395385742188,319.36297607421875,190.3150177001953,-616.7364501953125,-42.624534606933594,25.562414169311523,2.442370653152466,57.383113861083984,16383.5,65535.0
15418.873368119072,263.7624206542969,317.634033203125,173.98866271972656,-621.5822143554688,-34.0279541015625,30.60114288330078,9.730568885803223,63.71686553955078,16383.5,65535.0
15418.8737681277,264.4432067871094,313.0038146972656,178.59201049804688,-618.0537109375,-35.734214782714844,30.701778411865234,5.897865295410156,62.7401008605957,16383.5,65535.0
15418.87416813633,259.0491027832031,317.0380554199219,210.74844360351562,-607.4891357421875,-31.93062400817871,36.50678253173828,11.660384178161621,68.55394744873047,16383.5,65535.0
15418.87456814496,254.66732788085938,317.9847106933594,183.34356689453125,-616.1433715820312,-38.5456657409668,26.994386672973633,1.9478411674499512,59.9602165222168,16383.5,65535.0
15418.87496815359,237.85601806640625,314.7629699707031,149.76943969726562,-614.7249755859375,-39.61707305908203,27.075037002563477,0.8680883049964905,58.44047546386719,16383.5,65535.0
15418.875368162218,233.7736053466797,317.051025390625,128.657470703125,-612.5099487304688,-37.76585388183594,30.424346923828125,4.8686418533325195,62.28172302246094,16383.5,65535.0
15418.875768170848,233.59478759765625,307.3345947265625,112.46820068359375,-603.3911743164062,-36.932899475097656,33.665706634521484,5.506656169891357,62.57204055786133,16383.5,65535.0
15418.876168179479,221.91824340820312,312.4792175292969,109.56068420410156,-605.7267456054688,-41.41025924682617,29.403038024902344,2.027676820755005,57.80184555053711,16383.5,65535.0
15418.876568188109,221.15505981445312,314.4759826660156,125.52095794677734,-616.6637573242188,-27.462812423706055,41.045257568359375,15.065045356750488,70.01531219482422,16383.5,65535.0
15418.876968196737,212.50363159179688,315.93402099609375,148.134521484375,-614.705810546875,-22.764881134033203,52.323150634765625,21.36972427368164,76.78923797607422,16383.5,65535.0
15418.877368205367,204.5508575439453,318.853271484375,166.89022827148438,-607.678466796875,-17.558937072753906,59.407527923583984,23.93378448486328,81.0682144165039,16383.5,65535.0
15418.877768213997,196.13320922851562,323.1893310546875,181.92527770996094,-605.7196655273438,-27.332111358642578,53.39445495605469,18.303062438964844,73.34217834472656,16383.5,65535.0
15418.878168222625,185.70835876464844,320.0849609375,203.0443878173828,-605.9588012695312,-34.42802810668945,43.33375930786133,10.422308921813965,66.45101165771484,16383.5,65535.0
15418.878568231255,186.7353057861328,325.58599853515625,217.1679229736328,-600.9168090820312,-17.855907440185547,60.51224136352539,23.850976943969727,77.9625473022461,16383.5,65535.0
15418.878968239886,192.0188751220703,319.7489929199219,225.07821655273438,-584.7279052734375,-27.573862075805664,58.930458068847656,18.685205459594727,74.14805603027344,16383.5,65535.0
15418.879368248516,179.40211486816406,319.4545593261719,203.19216918945312,-581.3626098632812,-7.5617756843566895,72.32771301269531,31.6580753326416,89.2789535522461,16383.5,65535.0
15418.879768257146,180.55258178710938,318.4580993652344,184.12831115722656,-588.5119018554688,-10.780036926269531,73.10316467285156,29.835079193115234,86.89146423339844,16383.5,65535.0
15418.880168265774,184.2355194091797,322.7396545410156,190.6837615966797,-579.61572265625,-18.256893157958984,65.34378814697266,24.84751319885254,80.59693145751953,16383.5,65535.0
15418.880568274404,181.28404235839844,322.487060546875,201.78546142578125,-582.0914306640625,-16.035097122192383,65.92585754394531,21.9676513671875,78.7425765991211,16383.5,65535.0
15418.880968283034,184.13404846191406,318.262451171875,204.84780883789062,-582.4854736328125,-12.562295913696289,72.60287475585938,31.31861686706543,84.42375946044922,16383.5,65535.0
15418.881368291663,188.7538604736328,321.7559814453125,188.60858154296875,-588.438232421875,-11.162091255187988,71.31570434570312,29.60274887084961,86.57874298095703,16383.5,65535.0
15418.881768300293,207.63003540039062,322.3465270996094,201.05734252929688,-593.1766357421875,-23.446918487548828,58.41966247558594,18.172985076904297,75.6771469116211,16383.5,65535.0
15418.882168308923,210.24269104003906,320.55560302734375,205.0696258544922,-587.6046142578125,-14.041893005371094,65.94318389892578,27.245412826538086,83.03962707519531,16383.5,65535.0
15418.882568317553,203.43124389648438,321.6059875488281,204.19827270507812,-592.7767944335938,-8.460673332214355,72.0735092163086,30.145830154418945,87.96151733398438,16383.5,65535.0
15418.882968326183,207.8781280517578,330.2774658203125,209.85812377929688,-590.634033203125,-24.924802780151367,56.31024932861328,19.24441146850586,73.85879516601562,16383.5,65535.0
15418.883368334811,201.62185668945312,326.3758239746094,193.98281860351562,-603.4428100585938,-15.27850341796875,64.30079650878906,28.83895492553711,85.68246459960938,16383.5,65535.0
15418.883768343441,201.27432250976562,314.04437255859375,186.66366577148438,-599.7178955078125,-12.438719749450684,69.11705780029297,31.71735382080078,85.98761749267578,16383.5,65535.0
15418.884168352071,207.91036987304688,324.1421813964844,209.93943786621094,-600.4373779296875,-25.221343994140625,54.5716438293457,17.727344512939453,73.13059997558594,16383.5,65535.0
15418.8845683607,222.3810272216797,324.2425842285156,230.45431518554688,-598.1630249023438,-16.69588851928711,60.88437271118164,24.78958511352539,81.51740264892578,16383.5,65535.0
15418.88496836933,230.8134002685547,320.4378662109375,218.08392333984375,-600.7998046875,-14.957255363464355,64.5920639038086,27.808073043823242,85.30194091796875,16383.5,65535.0
15418.88536837796,212.7476348876953,323.44378662109375,201.345458984375,-608.2655639648438,-20.071258544921875,56.633216857910156,23.426801681518555,78.86589813232422,16383.5,65535.0
15418.88576838659,207.94073486328125,329.05926513671875,197.83876037597656,-601.3650512695312,-27.44091796875,46.93010711669922,14.67962646484375,72.51448822021484,16383.5,65535.0
15418.88616839522,206.1240234375,336.34735107421875,190.2614288330078,-605.7169189453125,-23.628751754760742,50.124237060546875,18.922836303710938,75.80594635009766,16383.5,65535.0
15418.886568403848,217.11355590820312,324.0303039550781,182.02394104003906,-609.9940185546875,-19.703685760498047,55.38737869262695,24.15267562866211,77.9225845336914,16383.5,65535.0
15418.886968412478,229.24429321289062,326.8856201171875,201.29595947265625,-614.437744140625,-21.872907638549805,45.87128448486328,16.309337615966797,72.96563720703125,16383.5,65535.0
15418.887368421108,230.78253173828125,332.2764892578125,242.55557250976562,-617.4360961914062,-29.565574645996094,42.010189056396484,14.3048677444458,67.84129333496094,16383.5,65535.0
15418.887768429737,238.40748596191406,325.695068359375,189.74111938476562,-621.5930786132812,-31.296836853027344,38.40573501586914,14.655221939086914,68.04682922363281,16383.5,65535.0
15418.888168438367,231.9847412109375,322.19805908203125,138.5377197265625,-616.8882446289062,-31.81499671936035,33.92129898071289,9.854832649230957,64.82108306884766,16383.5,65535.0
15418.888568446997,231.6634979248047,314.177490234375,180.9783477783203,-620.7300415039062,-31.348730087280273,35.39706039428711,10.740241050720215,66.88909149169922,16383.5,65535.0
15418.888968455627,237.7041473388672,318.4924621582031,221.4663543701172,-624.6834106445312,-33.147281646728516,27.469398498535156,7.004549503326416,62.52078628540039,16383.5,65535.0
15418.889368464257,228.29058837890625,312.50079345703125,208.08680725097656,-626.819580078125,-32.953086853027344,30.98297119140625,9.611066818237305,67.58357238769531,16383.5,65535.0
15418.889768472885,222.2459716796875,310.0404968261719,183.31846618652344,-632.300048828125,-41.91993713378906,22.32874298095703,1.2398492097854614,57.68925094604492,16383.5,65535.0
15418.890168481516,241.98208618164062,307.2513122558594,148.67889404296875,-639.318603515625,-36.35465621948242,25.51188850402832,6.682152271270752,63.06675338745117,16383.5,65535.0
15418.890568490146,246.55393981933594,316.0430908203125,166.6895751953125,-643.88330078125,-32.43350601196289,31.592641830444336,12.279927253723145,66.61981201171875,16383.5,65535.0
15418.890968498774,246.93203735351562,310.0545654296875,217.36553955078125,-641.8690795898438,-36.12672805786133,23.976436614990234,5.626505374908447,58.84760665893555,16383.5,65535.0
15418.891368507404,243.7509765625,307.67474365234375,223.55374145507812,-633.0593872070312,-33.025997161865234,24.973583221435547,7.049834728240967,62.48984909057617,16383.5,65535.0
15418.891768516034,239.5675506591797,304.1953430175781,240.0671844482422,-625.1658325195312,-38.746826171875,21.234729766845703,4.825182914733887,57.97494125366211,16383.5,65535.0
15418.892168524664,253.80059814453125,305.2850341796875,237.12399291992188,-624.9796752929688,-42.63589096069336,16.88199806213379,1.9824661016464233,56.82912063598633,16383.5,65535.0
15418.892568533294,260.835205078125,314.90277099609375,217.21768188476562,-628.2694702148438,-38.75428009033203,22.663881301879883,2.836916208267212,58.48475646972656,16383.5,65535.0
15418.892968541923,240.84715270996094,312.3839111328125,210.2819061279297,-620.8316650390625,-40.73588943481445,21.390878677368164,1.280709147453308,60.62215805053711,16383.5,65535.0
15418.893368550553,234.4003143310547,320.74896240234375,198.72943115234375,-610.0362548828125,-30.945112228393555,30.15677261352539,11.592216491699219,67.37759399414062,16383.5,65535.0
15418.893768559183,222.08590698242188,325.02044677734375,206.24603271484375,-610.869873046875,-42.28902053833008,19.864486694335938,0.6857849955558777,56.077964782714844,16383.5,65535.0
15418.894168567811,234.13226318359375,319.0404968261719,220.3892822265625,-621.5311279296875,-40.03664779663086,22.537261962890625,3.3073389530181885,58.5306510925293,16383.5,65535.0
15418.894568576441,237.71495056152344,323.7730407714844,226.40386962890625,-631.9865112304688,-39.655399322509766,23.971302032470703,3.331960439682007,57.459442138671875,16383.5,65535.0
15418.894968585071,215.77499389648438,327.50396728515625,213.23497009277344,-630.4597778320312,-33.488502502441406,31.93329620361328,8.796028137207031,65.06909942626953,16383.5,65535.0
15418.895368593701,206.53419494628906,339.29632568359375,207.83277893066406,-621.8327026367188,-40.301788330078125,30.802982330322266,7.0818190574646,65.84297943115234,16383.5,65535.0
15418.895768602331,199.48886108398438,327.9449462890625,219.49942016601562,-611.6572875976562,-37.2961540222168,25.889158248901367,4.7521071434021,61.01433181762695,16383.5,65535.0
15418.89616861096,196.8944854736328,320.16546630859375,215.41261291503906,-613.6265258789062,-27.03995132446289,37.39356231689453,14.384592056274414,70.26842498779297,16383.5,65535.0
15418.89656861959,209.63462829589844,323.86566162109375,213.42115783691406,-606.7933959960938,-30.642440795898438,40.845577239990234,10.342331886291504,70.84261322021484,16383.5,65535.0
15418.89696862822,223.2798309326172,305.7106018066406,208.82180786132812,-589.4301147460938,-26.873517990112305,45.467689514160156,15.196171760559082,71.5420150756836,16383.5,65535.0
15418.897368636848,220.82687377929688,319.0026550292969,204.19512939453125,-579.392578125,-24.890092849731445,47.53879928588867,17.79001235961914,72.70698547363281,16383.5,65535.0
15418.897768645478,213.39942932128906,313.7198486328125,209.0314178466797,-581.9008178710938,-25.021833419799805,48.14390563964844,17.00597381591797,70.86197662353516,16383.5,65535.0
15418.898168654108,219.2395782470703,319.7852478027344,210.14036560058594,-583.310546875,-34.504798889160156,42.13302230834961,7.057727336883545,62.397315979003906,16383.5,65535.0
15418.898568662738,221.61012268066406,328.1083068847656,212.16407775878906,-580.765869140625,-25.38690185546875,50.74221420288086,18.854341506958008,72.69429016113281,16383.5,65535.0
15418.898968671367,212.47103881835938,330.1527404785156,217.1566619873047,-583.572265625,-25.487762451171875,54.65855407714844,18.540912628173828,74.86907196044922,16383.5,65535.0
15418.899368679997,212.02870178222656,325.83380126953125,213.7388458251953,-586.3786010742188,-31.73400115966797,46.44865036010742,8.753039360046387,67.19609832763672,16383.5,65535.0
15418.899768688627,210.33538818359375,329.4209289550781,223.5376434326172,-593.5798950195312,-18.571550369262695,60.76377487182617,24.737369537353516,80.13223266601562,16383.5,65535.0
15418.900168697257,215.5167999267578,328.28900146484375,223.1571807861328,-617.1805419921875,-21.970565795898438,63.88677215576172,22.821142196655273,77.17024230957031,16383.5,65535.0
15418.900568705885,207.39013671875,338.0727233886719,227.86656188964844,-608.080810546875,-15.73971939086914,65.7637710571289,22.11642074584961,78.49874114990234,16383.5,65535.0
15418.900968714515,210.65260314941406,343.0595397949219,224.76593017578125,-589.5588989257812,-7.706182956695557,74.7004165649414,32.87657928466797,86.9772720336914,16383.5,65535.0
15418.901368723145,201.50611877441406,340.04840087890625,219.16856384277344,-587.4745483398438,-24.163196563720703,59.4904670715332,17.407285690307617,73.2135238647461,16383.5,65535.0
15418.901768731776,200.97561645507812,340.3251037597656,235.16612243652344,-581.9601440429688,-32.27980422973633,47.27259063720703,10.196043968200684,65.52033996582031,16383.5,65535.0
15418.902168740404,202.98025512695312,340.0536193847656,236.0078582763672,-587.217529296875,-31.655614852905273,47.96104431152344,10.744667053222656,67.82040405273438,16383.5,65535.0
15418.902568749034,193.64891052246094,332.15234375,242.28257751464844,-615.0418701171875,-27.246679306030273,52.717350006103516,15.092672348022461,68.64822387695312,16383.5,65535.0
15418.902968757664,207.38516235351562,324.69366455078125,240.8181610107422,-610.9328002929688,-26.17273712158203,56.93986129760742,17.816085815429688,74.20492553710938,16383.5,65535.0
15418.903368766294,212.99526977539062,330.6863098144531,240.97817993164062,-598.092529296875,-20.68561363220215,60.781837463378906,23.687246322631836,77.65940856933594,16383.5,65535.0
15418.903768774922,204.29354858398438,337.28265380859375,231.1813201904297,-580.1666259765625,-19.544116973876953,60.38633346557617,24.023513793945312,77.23283386230469,16383.5,65535.0
15418.904168783552,206.3550262451172,317.6817626953125,233.5714569091797,-573.8594970703125,-18.52614402770996,58.04726028442383,22.424074172973633,77.8551254272461,16383.5,65535.0
15418.904568792183,191.5656280517578,322.3057556152344,248.21484375,-581.4179077148438,-31.9014949798584,43.498531341552734,12.133380889892578,64.52388763427734,16383.5,65535.0
15418.904968800813,196.29421997070312,320.05023193359375,265.8733825683594,-587.3451538085938,-26.5771484375,51.20818328857422,17.455564498901367,74.32492065429688,16383.5,65535.0
15418.905368809441,194.20697021484375,320.71405029296875,272.237060546875,-598.181396484375,-24.882415771484375,51.11260223388672,18.608449935913086,71.69405364990234,16383.5,65535.0
15418.905768818071,193.09588623046875,319.314208984375,246.70761108398438,-605.4652099609375,-29.654783248901367,43.19579315185547,13.677569389343262,69.21318054199219,16383.5,65535.0
15418.906168826701,183.44168090820312,323.0971984863281,232.99142456054688,-607.7171020507812,-35.6553955078125,36.01914596557617,6.957724094390869,65.02794647216797,16383.5,65535.0
15418.906568835331,184.1664581298828,321.26995849609375,240.13201904296875,-604.9910278320312,-34.02405548095703,37.38333511352539,9.488504409790039,67.0135726928711,16383.5,65535.0
15418.90696884396,189.31246948242188,317.1833190917969,252.27415466308594,-608.2274780273438,-40.6246223449707,29.512678146362305,-0.3961196541786194,57.50490951538086,16383.5,65535.0
15418.90736885259,182.03611755371094,316.34918212890625,259.0135498046875,-605.1163330078125,-34.33274841308594,34.168861389160156,6.151017665863037,65.15071105957031,16383.5,65535.0
15418.90776886122,182.1060333251953,311.7176818847656,243.1870574951172,-610.6110229492188,-40.59720230102539,27.744670867919922,6.859493732452393,60.425331115722656,16383.5,65535.0
15418.90816886985,187.81472778320312,317.39794921875,248.2049102783203,-619.251953125,-47.290489196777344,20.168567657470703,-3.491182565689087,52.97567367553711,16383.5,65535.0
15418.908568878478,185.95852661132812,318.8154296875,243.9539031982422,-616.4461059570312,-37.192588806152344,29.284086227416992,3.3169922828674316,60.57424545288086,16383.5,65535.0
15418.908968887108,177.11903381347656,332.3609313964844,240.9993133544922,-610.5032958984375,-42.88740921020508,22.522916793823242,1.059706211090088,55.90217590332031,16383.5,65535.0
15418.909368895738,176.87489318847656,328.1236572265625,229.29879760742188,-611.7224731445312,-44.220027923583984,20.37981605529785,0.7257035374641418,54.66725540161133,16383.5,65535.0
15418.909768904368,168.74566650390625,331.40277099609375,205.28382873535156,-610.3429565429688,-40.026222229003906,22.732763290405273,2.474501848220825,55.622798919677734,16383.5,65535.0
15418.910168912997,166.91001892089844,327.2338562011719,209.25299072265625,-622.8455200195312,-37.48300552368164,20.842689514160156,2.69882869720459,60.324947357177734,16383.5,65535.0
15418.910568921627,163.87277221679688,333.2320861816406,227.26100158691406,-629.9906616210938,-44.829654693603516,19.130075454711914,-2.9726967811584473,52.07880783081055,16383.5,65535.0
15418.910968930257,153.59036254882812,342.198486328125,257.2098083496094,-628.0652465820312,-48.62371826171875,12.976818084716797,-7.191603183746338,47.374481201171875,16383.5,65535.0
15418.911368938887,164.5726776123047,336.56475830078125,226.83267211914062,-625.6721801757812,-46.06456756591797,13.52852725982666,-2.6193079948425293,53.07650375366211,16383.5,65535.0
15418.911768947515,180.5745391845703,332.4888916015625,173.23013305664062,-626.3821411132812,-58.75251388549805,2.8982350826263428,-15.370781898498535,39.57176208496094,16383.5,65535.0
15418.912168956145,183.20216369628906,338.8460693359375,173.20289611816406,-632.6112670898438,-56.66089630126953,3.0488338470458984,-14.245638847351074,43.59785842895508,16383.5,65535.0
15418.912568964775,170.67018127441406,331.76812744140625,198.1499786376953,-632.3646240234375,-57.0838623046875,2.1252660751342773,-16.473291397094727,42.21900939941406,16383.5,65535.0
15418.912968973405,157.77049255371094,335.14031982421875,201.37954711914062,-627.598876953125,-56.60323715209961,3.5551655292510986,-14.468152046203613,41.823299407958984,16383.5,65535.0
15418.913368982034,154.16696166992188,340.51025390625,195.6195526123047,-623.90478515625,-52.83505630493164,8.735703468322754,-9.642574310302734,45.153968811035156,16383.5,65535.0
15418.913768990664,154.63400268554688,331.3842468261719,176.68919372558594,-614.6072387695312,-43.63825988769531,18.148698806762695,-0.3997648060321808,55.518157958984375,16383.5,65535.0
15418.914168999294,152.59356689453125,345.0338439941406,158.5176239013672,-616.32080078125,-44.14268112182617,18.19672393798828,1.3641812801361084,55.447265625,16383.5,65535.0
15418.914569007924,154.20799255371094,346.7677307128906,160.09364318847656,-620.8907470703125,-42.94734573364258,21.221460342407227,-2.6067566871643066,55.172977447509766,16383.5,65535.0
15418.914969016552,164.5299530029297,338.3535461425781,178.09231567382812,-611.0587158203125,-44.72423553466797,21.462661743164062,-2.55301833152771,53.74932861328125,16383.5,65535.0
15418.915369025182,171.25389099121094,344.1507568359375,185.99789428710938,-605.38232421875,-46.50294876098633,20.701534271240234,-2.394015312194824,53.13063049316406,16383.5,65535.0
15418.915769033812,153.83045959472656,336.53631591796875,188.2848663330078,-601.7449951171875,-46.86526107788086,21.810264587402344,-3.043625831604004,52.03957748413086,16383.5,65535.0
15418.916169042443,149.39486694335938,331.0164489746094,196.37322998046875,-616.1812744140625,-48.8712272644043,20.36458396911621,-3.8796050548553467,50.12772750854492,16383.5,65535.0
15418.91656905107,149.29046630859375,331.8543701171875,191.2013702392578,-618.2484741210938,-46.60028839111328,23.560937881469727,-2.618147134780884,56.543392181396484,16383.5,65535.0
15418.916969059701,140.41387939453125,331.75390625,180.66867065429688,-611.8948974609375,-41.436378479003906,29.58173370361328,2.6184439659118652,57.31564712524414,16383.5,65535.0
15418.917369068331,139.7649688720703,321.0520935058594,182.30970764160156,-619.0425415039062,-46.64146041870117,27.710599899291992,-2.311211109161377,51.35820007324219,16383.5,65535.0
15418.917769076961,137.48731994628906,326.08111572265625,194.43116760253906,-611.1395874023438,-41.37874984741211,33.05725860595703,3.217466115951538,59.7628173828125,16383.5,65535.0
15418.91816908559,140.6419677734375,340.88861083984375,212.16983032226562,-603.1417846679688,-33.856842041015625,41.569618225097656,7.728848457336426,64.34202575683594,16383.5,65535.0
15418.91856909422,137.33181762695312,337.0090026855469,226.7166290283203,-600.2587280273438,-33.91584014892578,44.74216079711914,7.893063068389893,64.31769561767578,16383.5,65535.0
15418.91896910285,144.2633514404297,336.4754943847656,242.3831024169922,-595.4833374023438,-27.003568649291992,53.686248779296875,16.03316307067871,71.5503921508789,16383.5,65535.0
15418.91936911148,180.57322692871094,335.1945495605469,270.4687194824219,-600.605712890625,-37.287296295166016,44.51068115234375,6.67465353012085,62.856895446777344,16383.5,65535.0
15418.919769120108,208.90684509277344,330.7740783691406,268.4696960449219,-610.266845703125,-30.9258975982666,51.256595611572266,9.787247657775879,70.33451843261719,16383.5,65535.0
15418.920169128738,230.94451904296875,340.1089172363281,235.2256622314453,-611.5557861328125,-40.3018684387207,38.37957000732422,2.9649817943573,56.9900016784668,16383.5,65535.0
15418.920569137368,221.0104217529297,326.0128479003906,236.01373291015625,-613.8418579101562,-26.20842742919922,52.25691223144531,15.990886688232422,72.38365936279297,16383.5,65535.0
15418.920969145998,203.40895080566406,330.9560241699219,276.1207275390625,-617.1084594726562,-36.01194381713867,47.50102996826172,7.2039289474487305,64.69552612304688,16383.5,65535.0
15418.921369154627,212.27513122558594,331.0666809082031,313.3824157714844,-605.4656372070312,-40.801719665527344,37.11884307861328,-1.0154330730438232,54.031097412109375,16383.5,65535.0
15418.921769163257,226.59280395507812,321.583984375,313.09716796875,-600.8348388671875,-38.2606201171875,40.7778205871582,2.201214075088501,60.06903076171875,16383.5,65535.0
15418.922169171887,229.28366088867188,326.0788269042969,296.43963623046875,-601.56640625,-42.36119842529297,37.268714904785156,1.7706509828567505,61.19883346557617,16383.5,65535.0
15418.922569180515,218.78260803222656,327.421875,275.9833984375,-597.4103393554688,-41.09080123901367,37.04234313964844,0.7057263851165771,57.5383186340332,16383.5,65535.0
15418.922969189145,208.62484741210938,334.85198974609375,271.9659729003906,-602.6250610351562,-42.5267219543457,36.10219192504883,1.7237756252288818,58.054595947265625,16383.5,65535.0
15418.923369197775,207.00021362304688,346.7371826171875,282.0626220703125,-609.3748168945312,-43.59562683105469,34.6956672668457,-0.8713268041610718,57.573062896728516,16383.5,65535.0
15418.923769206405,209.32716369628906,343.97454833984375,289.8917541503906,-607.7889404296875,-41.74378967285156,34.025203704833984,1.4508202075958252,56.9271240234375,16383.5,65535.0
15418.924169215035,201.84292602539062,330.525146484375,280.35595703125,-613.518798828125,-32.64765167236328,45.33810043334961,10.402158737182617,67.34744262695312,16383.5,65535.0
15418.924569223664,196.7198028564453,337.86151123046875,250.6565704345703,-612.15185546875,-35.198341369628906,41.77005386352539,9.726248741149902,65.7757568359375,16383.5,65535.0
15418.924969232294,194.68386840820312,343.3954772949219,240.68975830078125,-608.5232543945312,-37.644676208496094,37.39944076538086,6.812001705169678,59.3344841003418,16383.5,65535.0
15418.925369240924,182.15185546875,345.9367370605469,257.60272216796875,-609.6012573242188,-31.772533416748047,40.017391204833984,10.51923656463623,66.03418731689453,16383.5,65535.0
15418.925769249552,187.10150146484375,341.5812072753906,273.7767333984375,-605.8963623046875,-34.64010238647461,42.45384216308594,10.422279357910156,64.64803314208984,16383.5,65535.0
15418.926169258182,181.798828125,343.8514709472656,276.9690856933594,-620.2398681640625,-36.569435119628906,39.0879020690918,7.43805456161499,62.99828338623047,16383.5,65535.0
15418.926569266812,175.76010131835938,348.4788818359375,282.7923278808594,-628.5785522460938,-35.03071975708008,34.46178436279297,5.909501552581787,62.4525032043457,16383.5,65535.0
15418.926969275442,166.1993865966797,348.4798278808594,285.06707763671875,-626.5181884765625,-38.10114669799805,31.476638793945312,7.458793640136719,62.45549774169922,16383.5,65535.0
15418.927369284072,171.9684600830078,347.40435791015625,300.4275207519531,-619.95556640625,-31.437366485595703,37.294349670410156,12.741374969482422,66.11982727050781,16383.5,65535.0
15418.9277692927,181.05819702148438,352.9925842285156,299.2143859863281,-633.9805908203125,-34.775760650634766,32.37841796875,6.840108394622803,62.1508674621582,16383.5,65535.0
15418.92816930133,206.56614685058594,358.8489685058594,256.8757629394531,-635.9617919921875,-43.34638214111328,22.860132217407227,-2.2922329902648926,55.58521270751953,16383.5,65535.0
15418.928569309961,217.74972534179688,362.3300476074219,235.93959045410156,-635.7420043945312,-36.973873138427734,28.486949920654297,4.819448471069336,61.808074951171875,16383.5,65535.0
15418.92896931859,228.9051971435547,365.8961486816406,218.84530639648438,-625.5635986328125,-38.58498764038086,27.951190948486328,3.94362735748291,59.7818717956543,16383.5,65535.0
15418.92936932722,226.707275390625,366.5952453613281,210.65133666992188,-623.0938720703125,-35.32908248901367,28.123504638671875,7.113532543182373,62.98793411254883,16383.5,65535.0
15418.92976933585,224.50926208496094,366.00836181640625,210.7542266845703,-626.8914794921875,-36.43135070800781,24.95153045654297,6.641602993011475,61.8471794128418,16383.5,65535.0
15418.93016934448,230.1522674560547,361.6333923339844,221.9667205810547,-638.8550415039062,-37.732887268066406,24.20833396911621,4.788532257080078,60.05967330932617,16383.5,65535.0
15418.93056935311,236.96681213378906,370.76422119140625,234.71630859375,-627.9423217773438,-51.18827438354492,12.055729866027832,-5.602184772491455,48.11124801635742,16383.5,65535.0
15418.930969361738,230.0778350830078,355.8320617675781,229.57627868652344,-619.1072998046875,-48.74285125732422,10.270666122436523,-8.69466495513916,47.16447830200195,16383.5,65535.0
15418.931369370368,223.17303466796875,347.8800048828125,221.60330200195312,-612.1895751953125,-46.30555725097656,12.389715194702148,-2.5266239643096924,51.3875617980957,16383.5,65535.0
15418.931769378998,223.03323364257812,346.01116943359375,218.36328125,-619.0935668945312,-47.044029235839844,14.866267204284668,-1.5306494235992432,51.88258743286133,16383.5,65535.0
15418.932169387626,224.52154541015625,345.328369140625,223.997802734375,-638.9476318359375,-44.052303314208984,17.266233444213867,-1.447994351387024,56.28133010864258,16383.5,65535.0
15418.932569396256,220.46063232421875,349.1477966308594,221.0172119140625,-633.1322631835938,-44.504600524902344,18.932945251464844,-0.3834824860095978,56.95577621459961,16383.5,65535.0
15418.932969404887,216.73594665527344,337.6404113769531,217.41372680664062,-633.235595703125,-45.044822692871094,14.59495735168457,-2.8592193126678467,52.91451644897461,16383.5,65535.0
15418.933369413517,201.0078887939453,336.8482971191406,212.78201293945312,-632.6878051757812,-53.139766693115234,7.779009819030762,-10.77800464630127,45.8414306640625,16383.5,65535.0
15418.933769422147,200.113037109375,345.9336242675781,195.80665588378906,-624.5218505859375,-50.9973030090332,6.956393718719482,-9.317129135131836,48.21709060668945,16383.5,65535.0
15418.934169430775,204.36073303222656,351.0963439941406,194.44058227539062,-621.4488525390625,-50.221736907958984,8.503414154052734,-7.030031681060791,50.432132720947266,16383.5,65535.0
15418.934569439405,184.29563903808594,349.0910949707031,183.90452575683594,-630.5578002929688,-49.8220100402832,11.952099800109863,-6.811183452606201,45.93327331542969,16383.5,65535.0
15418.934969448035,177.03152465820312,347.9999084472656,180.20166015625,-639.0939331054688,-55.975955963134766,6.229026794433594,-12.028532981872559,42.513484954833984,16383.5,65535.0
15418.935369456663,176.06228637695312,355.43121337890625,176.9241180419922,-635.8770141601562,-53.125308990478516,8.692537307739258,-10.96562385559082,46.18535614013672,16383.5,65535.0
15418.935769465294,151.21942138671875,351.4049072265625,162.2892608642578,-620.2474365234375,-50.34900665283203,13.056987762451172,-7.099757671356201,49.02855682373047,16383.5,65535.0
15418.936169473924,140.26336669921875,339.9674072265625,152.73817443847656,-613.6876831054688,-50.880706787109375,11.647254943847656,-10.917277336120605,48.63134765625,16383.5,65535.0
15418.936569482554,148.6844482421875,345.4906921386719,153.9078826904297,-602.39990234375,-46.03054428100586,17.101335525512695,-3.067380905151367,53.721412658691406,16383.5,65535.0
15418.936969491184,146.63124084472656,347.4808349609375,171.60903930664062,-603.0789794921875,-59.02439880371094,10.492390632629395,-11.62393569946289,42.78946304321289,16383.5,65535.0
15418.937369499812,133.5283966064453,345.9457092285156,179.83328247070312,-601.6026611328125,-51.06155014038086,14.942254066467285,-9.209941864013672,49.35746765136719,16383.5,65535.0
15418.937769508442,142.93348693847656,350.9342041015625,173.1707000732422,-609.005859375,-48.77500915527344,20.851808547973633,-6.781920909881592,50.1492919921875,16383.5,65535.0
15418.938169517072,149.1502685546875,346.42041015625,180.9381561279297,-607.4574584960938,-43.88615036010742,27.343746185302734,-4.0157952308654785,53.37877655029297,16383.5,65535.0
15418.9385695257,141.2195281982422,357.2312316894531,204.43649291992188,-610.982421875,-53.578277587890625,19.93061637878418,-8.05669116973877,47.36091995239258,16383.5,65535.0
15418.93896953433,136.40040588378906,352.7850036621094,224.25648498535156,-607.2355346679688,-42.93267822265625,30.55992889404297,-1.1339678764343262,54.837284088134766,16383.5,65535.0
15418.93936954296,141.84510803222656,350.4205627441406,194.5810546875,-597.8156127929688,-39.54387283325195,36.7504768371582,3.1336705684661865,59.406734466552734,16383.5,65535.0
15418.93976955159,143.0218505859375,357.11260986328125,168.36500549316406,-604.8702392578125,-38.53618621826172,39.509613037109375,6.19089937210083,61.888397216796875,16383.5,65535.0
15418.940169560221,144.38404846191406,357.9232482910156,169.0356903076172,-615.2705078125,-35.91426086425781,40.39918899536133,5.622641086578369,60.763919830322266,16383.5,65535.0
15418.94056956885,146.7161407470703,372.3357238769531,174.52833557128906,-614.02783203125,-38.54018020629883,38.94416809082031,5.143374919891357,58.91112518310547,16383.5,65535.0
15418.94096957748,125.83482360839844,376.2080078125,186.75103759765625,-616.6967163085938,-33.927310943603516,44.37852096557617,10.63402271270752,62.93001174926758,16383.5,65535.0
15418.94136958611,121.2227783203125,375.6235046386719,214.8782501220703,-626.8023681640625,-41.74796676635742,36.1240119934082,1.2603657245635986,57.97748565673828,16383.5,65535.0
15418.941769594738,118.7710189819336,374.5942077636719,239.7344970703125,-627.5471801757812,-46.93589782714844,31.492530822753906,0.5876060128211975,53.851707458496094,16383.5,65535.0
15418.942169603368,109.05994415283203,380.99993896484375,247.35226440429688,-629.4590454101562,-44.20406723022461,32.32410430908203,-0.596013069152832,55.56389617919922,16383.5,65535.0
15418.942569611998,115.48646545410156,382.06280517578125,248.81494140625,-634.2098999023438,-34.96131896972656,41.93830490112305,6.467064380645752,63.33562088012695,16383.5,65535.0
15418.942969620628,130.80502319335938,383.2486267089844,250.4232177734375,-637.1231079101562,-37.6651725769043,40.949745178222656,4.472153663635254,60.692665100097656,16383.5,65535.0
15418.943369629256,155.7344970703125,387.968505859375,268.1290588378906,-634.1194458007812,-30.125301361083984,48.09250259399414,11.820676803588867,70.81352233886719,16383.5,65535.0
15418.943769637886,173.40182495117188,376.6336975097656,269.6395263671875,-632.89208984375,-34.383705139160156,43.710391998291016,8.64394474029541,64.67698669433594,16383.5,65535.0
15418.944169646516,180.4562530517578,374.29248046875,246.852294921875,-632.9537963867188,-35.10333251953125,41.59447479248047,5.841685771942139,61.81182098388672,16383.5,65535.0
15418.944569655147,173.42352294921875,374.4925231933594,254.17044067382812,-634.81494140625,-27.653438568115234,44.93523025512695,15.29113483428955,67.75977325439453,16383.5,65535.0
15418.944969663775,180.27818298339844,380.3116760253906,259.6365966796875,-626.4569702148438,-27.677875518798828,45.55813217163086,13.120403289794922,68.06365966796875,16383.5,65535.0
15418.945369672405,188.13490295410156,380.833740234375,251.6326141357422,-636.20458984375,-30.052865982055664,45.91714096069336,10.99796199798584,69.73739624023438,16383.5,65535.0
15418.945769681035,197.0284881591797,375.012451171875,266.52764892578125,-632.4667358398438,-32.548484802246094,39.60220718383789,11.041254043579102,66.3830337524414,16383.5,65535.0
15418.946169689665,209.5352325439453,377.539794921875,257.19622802734375,-637.9808349609375,-45.82670974731445,26.753440856933594,-2.1471779346466064,53.59432601928711,16383.5,65535.0
15418.946569698293,210.5102996826172,383.0487976074219,263.74322509765625,-639.6697998046875,-36.14541244506836,34.04780960083008,7.075446128845215,61.02033996582031,16383.5,65535.0
15418.946969706923,212.1919403076172,376.3044128417969,267.4868469238281,-637.635498046875,-32.73630142211914,36.716468811035156,8.863972663879395,64.7109375,16383.5,65535.0
15418.947369715554,215.3459014892578,369.70037841796875,253.39085388183594,-646.5635986328125,-28.596158981323242,36.874534606933594,12.02914047241211,67.1229248046875,16383.5,65535.0
15418.947769724184,226.5589141845703,371.82476806640625,241.63597106933594,-634.1531372070312,-27.56816291809082,41.56557083129883,14.45100212097168,69.7073745727539,16383.5,65535.0
15418.948169732812,222.7906036376953,375.92431640625,229.81202697753906,-626.8571166992188,-41.98225784301758,27.83683204650879,2.2350504398345947,58.489566802978516,16383.5,65535.0
15418.948569741442,232.27833557128906,377.7711486816406,227.50030517578125,-644.2567138671875,-40.66661071777344,22.67646026611328,2.1074907779693604,57.28600311279297,16383.5,65535.0
15418.948969750072,247.40118408203125,386.4054870605469,225.612548828125,-647.13623046875,-38.17808151245117,26.49759864807129,4.057916164398193,60.00481033325195,16383.5,65535.0
15418.949369758702,265.24627685546875,372.4290466308594,224.2913818359375,-654.3643798828125,-46.54755783081055,15.995440483093262,-3.0655384063720703,55.01469039916992,16383.5,65535.0
15418.94976976733,267.2896423339844,364.982177734375,219.4759521484375,-651.86962890625,-44.481170654296875,17.209585189819336,-2.035947322845459,53.92995071411133,16383.5,65535.0
15418.95016977596,257.0139465332031,359.41912841796875,189.22874450683594,-649.3099365234375,-43.125572204589844,19.339529037475586,-1.0144813060760498,55.93156433105469,16383.5,65535.0
15418.95056978459,249.97169494628906,348.6857604980469,167.00889587402344,-651.1885375976562,-37.432979583740234,24.35714340209961,6.43413782119751,61.918296813964844,16383.5,65535.0
15418.95096979322,232.23951721191406,351.96600341796875,174.99050903320312,-648.7449340820312,-35.168724060058594,29.990880966186523,8.448243141174316,64.75577545166016,16383.5,65535.0
15418.951369801849,232.3999786376953,338.92535400390625,167.03135681152344,-652.1751708984375,-29.223922729492188,32.23387145996094,10.701858520507812,69.26976776123047,16383.5,65535.0
15418.95176981048,233.26922607421875,343.4947204589844,175.05702209472656,-647.3700561523438,-47.590858459472656,13.13506031036377,-5.399559020996094,47.925376892089844,16383.5,65535.0
15418.95216981911,217.8921356201172,347.92010498046875,199.050537109375,-652.4498291015625,-55.130985260009766,1.956595540046692,-14.039037704467773,41.84554672241211,16383.5,65535.0
15418.95256982774,220.3959503173828,356.21142578125,207.29562377929688,-646.6399536132812,-45.47822952270508,14.21184253692627,-2.241269111633301,54.66023254394531,16383.5,65535.0
15418.952969836368,230.362060546875,350.8499755859375,188.48252868652344,-633.8267822265625,-37.34765625,23.762792587280273,6.3056159019470215,60.61505889892578,16383.5,65535.0
15418.953369844998,234.19508361816406,352.4781494140625,168.15408325195312,-631.6666259765625,-34.915130615234375,27.94971466064453,8.868884086608887,61.68416976928711,16383.5,65535.0
15418.953769853628,245.36004638671875,358.5290832519531,167.97018432617188,-641.47314453125,-28.611936569213867,35.55091857910156,11.962457656860352,69.26327514648438,16383.5,65535.0
15418.954169862258,229.92681884765625,358.2684326171875,158.2611083984375,-633.6714477539062,-36.01072692871094,31.339412689208984,9.68295955657959,64.82413482666016,16383.5,65535.0
15418.954569870886,212.8359375,368.50579833984375,157.895751953125,-626.0514526367188,-30.718006134033203,33.18484115600586,10.56628131866455,64.83111572265625,16383.5,65535.0
15418.954969879516,197.2147979736328,364.6735534667969,162.89706420898438,-623.0576171875,-33.73638916015625,34.13612365722656,9.393274307250977,67.3998794555664,16383.5,65535.0
15418.955369888146,179.57281494140625,361.69891357421875,164.53292846679688,-618.9041137695312,-25.088706970214844,43.60084915161133,18.9951229095459,73.56503295898438,16383.5,65535.0
15418.955769896776,161.59507751464844,380.6741943359375,163.3704071044922,-618.9263916015625,-32.03160858154297,39.121036529541016,12.719223022460938,67.66265106201172,16383.5,65535.0
15418.956169905405,156.6812286376953,374.1072082519531,168.4578857421875,-620.3994750976562,-30.931873321533203,40.45497131347656,13.053594589233398,68.55313110351562,16383.5,65535.0
15418.956569914035,157.69845581054688,368.12322998046875,178.1036376953125,-618.2176513671875,-35.748897552490234,31.186857223510742,6.684955596923828,64.1834487915039,16383.5,65535.0
15418.956969922665,164.59295654296875,379.09130859375,191.9062042236328,-622.3832397460938,-33.57706069946289,33.807613372802734,9.392542839050293,67.05809020996094,16383.5,65535.0
15418.957369931295,161.640625,369.0281066894531,196.44561767578125,-625.636474609375,-34.149139404296875,37.5207405090332,10.563398361206055,66.58573150634766,16383.5,65535.0
15418.957769939923,174.20062255859375,372.0110778808594,207.0869598388672,-624.3719482421875,-26.322303771972656,44.77678680419922,14.90750789642334,71.5456771850586,16383.5,65535.0
15418.958169948553,172.4289093017578,360.835693359375,216.5293731689453,-621.7303466796875,-22.054542541503906,50.031578063964844,17.69136619567871,75.59432220458984,16383.5,65535.0
15418.958569957183,170.4593048095703,365.5653991699219,212.6199951171875,-626.1834106445312,-19.19193458557129,56.209232330322266,23.058204650878906,80.76106262207031,16383.5,65535.0
15418.958969965814,161.29840087890625,367.742919921875,201.18394470214844,-626.8866577148438,-17.61393928527832,60.348670959472656,26.227869033813477,79.66360473632812,16383.5,65535.0
15418.959369974442,156.9479522705078,366.9181213378906,205.40399169921875,-623.4223022460938,-24.46002769470215,55.21745681762695,21.040388107299805,75.93851470947266,16383.5,65535.0
15418.959769983072,155.8072509765625,368.6278381347656,221.9373779296875,-623.51318359375,-20.958145141601562,55.00590515136719,20.032794952392578,76.85905456542969,16383.5,65535.0
15418.960169991702,164.9496307373047,378.7774963378906,204.29421997070312,-626.4154663085938,-27.955978393554688,49.87959671020508,13.1315279006958,70.98603820800781,16383.5,65535.0
15418.960570000332,166.461181640625,383.3621520996094,185.79307556152344,-626.6708984375,-23.991621017456055,54.242774963378906,19.459604263305664,76.67274475097656,16383.5,65535.0
15418.96097000896,180.1578369140625,387.4870910644531,181.260009765625,-629.5443725585938,-26.45574951171875,54.42359924316406,17.17340850830078,70.20586395263672,16383.5,65535.0
15418.96137001759,203.63929748535156,401.5821533203125,167.65170288085938,-636.7973022460938,-30.915544509887695,46.436744689941406,11.618555068969727,64.48519897460938,16383.5,65535.0
15418.96177002622,203.0478973388672,399.5029296875,168.92391967773438,-646.1953735351562,-25.36716079711914,49.911808013916016,16.706144332885742,71.5915298461914,16383.5,65535.0
15418.96217003485,206.87965393066406,388.19085693359375,182.72500610351562,-636.6459350585938,-26.813982009887695,52.83515167236328,17.697269439697266,70.23880004882812,16383.5,65535.0
15418.962570043479,207.0770263671875,395.078857421875,206.14161682128906,-636.611572265625,-28.545677185058594,51.670509338378906,16.043371200561523,71.86701202392578,16383.5,65535.0
15418.962970052109,210.14491271972656,401.84039306640625,216.8101806640625,-644.6021118164062,-33.73466110229492,44.262245178222656,8.681938171386719,65.61864471435547,16383.5,65535.0
15418.96337006074,201.86123657226562,393.3875427246094,210.1505889892578,-650.5872192382812,-31.953371047973633,40.7964973449707,8.942347526550293,64.8193359375,16383.5,65535.0
15418.963770069367,210.89857482910156,391.0249938964844,216.46762084960938,-648.7344970703125,-30.43325424194336,42.722991943359375,11.021780014038086,63.85919189453125,16383.5,65535.0
15418.964170077998,203.59129333496094,393.46099853515625,224.29632568359375,-644.9138793945312,-26.172929763793945,49.56985092163086,16.7470703125,73.36600494384766,16383.5,65535.0
15418.964570086628,198.7663116455078,387.80694580078125,200.16441345214844,-648.3673706054688,-24.667007446289062,54.11122512817383,18.728199005126953,76.74927520751953,16383.5,65535.0
15418.964970095258,206.63592529296875,385.9672546386719,160.77764892578125,-644.563232421875,-37.68357849121094,38.15121841430664,4.657905578613281,61.07522201538086,16383.5,65535.0
15418.965370103888,196.10350036621094,390.48724365234375,177.69020080566406,-647.0520629882812,-29.350603103637695,41.92034149169922,12.569272994995117,68.18207550048828,16383.5,65535.0
15418.965770112516,198.82537841796875,387.8165283203125,187.92019653320312,-646.2471313476562,-27.735979080200195,45.5839958190918,16.199954986572266,70.72814178466797,16383.5,65535.0
15418.966170121146,210.34701538085938,380.1585998535156,201.4490203857422,-641.44189453125,-35.007408142089844,36.288665771484375,4.425717830657959,63.64338302612305,16383.5,65535.0
15418.966570129776,214.72854614257812,369.3260498046875,223.68280029296875,-645.8980102539062,-30.2757625579834,38.54599380493164,10.338868141174316,68.4432601928711,16383.5,65535.0
15418.966970138405,222.8238067626953,370.0130310058594,216.6956024169922,-652.4340209960938,-32.276039123535156,31.996206283569336,8.703112602233887,62.427005767822266,16383.5,65535.0
15418.967370147035,228.9115447998047,371.5339660644531,236.89053344726562,-647.2520751953125,-42.06443405151367,24.26682472229004,1.9122785329818726,56.051429748535156,16383.5,65535.0
15418.967770155665,224.24114990234375,370.60205078125,255.52285766601562,-638.1632080078125,-38.68701934814453,26.084224700927734,4.05800199508667,62.39336013793945,16383.5,65535.0
15418.968170164295,233.01417541503906,373.6139221191406,229.40261840820312,-633.82666015625,-36.578372955322266,27.64090919494629,7.9966511726379395,63.18974685668945,16383.5,65535.0
15418.968570172925,247.75506591796875,388.4833068847656,225.08050537109375,-646.5662231445312,-37.47542190551758,24.99280548095703,2.946946620941162,62.69379425048828,16383.5,65535.0
15418.968970181553,247.26832580566406,380.50872802734375,239.26902770996094,-653.0279541015625,-39.9248161315918,23.574462890625,3.212439775466919,60.28252029418945,16383.5,65535.0
15418.969370190183,258.331298828125,390.5169372558594,254.17616271972656,-655.0193481445312,-44.29481506347656,16.779356002807617,-0.8006590604782104,52.87213897705078,16383.5,65535.0
15418.969770198813,272.4914245605469,400.5898742675781,263.60748291015625,-660.7509155273438,-46.888648986816406,11.824764251708984,-3.147981643676758,52.763702392578125,16383.5,65535.0
15418.970170207442,282.05255126953125,383.1806640625,250.34506225585938,-665.8056030273438,-41.509830474853516,14.030750274658203,-1.5018045902252197,51.41979217529297,16383.5,65535.0
15418.970570216072,278.53363037109375,382.7473449707031,244.44322204589844,-657.1610107421875,-51.75764846801758,9.143941879272461,-8.388410568237305,48.977901458740234,16383.5,65535.0
15418.970970224702,280.5351257324219,385.32708740234375,235.06185913085938,-658.044677734375,-53.894622802734375,7.356072425842285,-7.730246067047119,47.28211212158203,16383.5,65535.0
15418.971370233332,281.5358581542969,391.341552734375,208.36427307128906,-641.7987060546875,-43.23474884033203,16.19786834716797,-0.010034731589257717,53.83708572387695,16383.5,65535.0
15418.971770241962,275.8040771484375,392.5348205566406,206.65859985351562,-644.1666259765625,-45.55183792114258,17.259443283081055,-0.5428812503814697,56.02251052856445,16383.5,65535.0
15418.97217025059,264.8800964355469,393.1551818847656,224.1131591796875,-649.9057006835938,-44.90980911254883,14.868439674377441,-1.2838083505630493,53.35723876953125,16383.5,65535.0
15418.97257025922,247.29135131835938,392.1347961425781,232.4767608642578,-654.60888671875,-48.22817611694336,10.764472007751465,-7.08236837387085,46.45369338989258,16383.5,65535.0
15418.97297026785,218.1815185546875,382.31201171875,225.29656982421875,-646.9439086914062,-52.37446212768555,8.703667640686035,-9.433337211608887,46.62311935424805,16383.5,65535.0
15418.973370276479,214.12448120117188,381.069091796875,186.7241668701172,-636.9530029296875,-52.464149475097656,6.829339027404785,-9.765509605407715,44.82159423828125,16383.5,65535.0
15418.973770285109,215.24942016601562,380.3939208984375,164.5019989013672,-652.652587890625,-42.581329345703125,15.679815292358398,-0.8291679620742798,53.736759185791016,16383.5,65535.0
15418.974170293739,210.83006286621094,379.557861328125,171.16183471679688,-660.6246337890625,-46.681278228759766,16.61540412902832,-3.2654025554656982,52.65464401245117,16383.5,65535.0
15418.97457030237,201.03750610351562,380.88916015625,173.38633728027344,-649.8014526367188,-42.16062927246094,21.88625144958496,2.8114471435546875,59.359092712402344,16383.5,65535.0
15418.974970311,199.06430053710938,379.553955078125,168.22491455078125,-647.72216796875,-31.015945434570312,31.958328247070312,13.133320808410645,68.0516586303711,16383.5,65535.0
15418.975370319627,190.84768676757812,369.6809997558594,164.4275360107422,-657.3524169921875,-33.84532928466797,33.291107177734375,6.917135715484619,65.13036346435547,16383.5,65535.0
15418.975770328258,179.59603881835938,369.635986328125,166.52415466308594,-646.7432250976562,-36.40864181518555,30.17084312438965,6.05669641494751,61.57569122314453,16383.5,65535.0
15418.976170336888,182.50967407226562,370.5788269042969,166.6093292236328,-647.7506713867188,-38.6370849609375,28.144977569580078,2.2962169647216797,58.65057373046875,16383.5,65535.0
15418.976570345516,189.77804565429688,360.3768310546875,163.5260009765625,-656.2222290039062,-42.10417175292969,24.88209342956543,-2.6946465969085693,56.840980529785156,16383.5,65535.0
15418.976970354146,184.9620361328125,369.6780090332031,157.4163360595703,-653.2340087890625,-41.31298828125,26.677488327026367,0.18777328729629517,56.89502716064453,16383.5,65535.0
15418.977370362776,176.17974853515625,368.3270263671875,141.916748046875,-646.8154296875,-54.08990478515625,13.4492826461792,-12.506508827209473,44.08500289916992,16383.5,65535.0
15418.977770371406,179.48336791992188,369.6273193359375,153.64675903320312,-651.7540283203125,-42.28515625,27.70044708251953,0.7374449372291565,57.84943771362305,16383.5,65535.0
15418.978170380036,188.0982666015625,378.2414855957031,169.32557678222656,-654.8749389648438,-37.553157806396484,34.509708404541016,3.390389919281006,60.559356689453125,16383.5,65535.0
15418.978570388665,190.1671142578125,372.5247802734375,204.1813507080078,-652.0806274414062,-28.366174697875977,42.68903732299805,12.210972785949707,68.18473815917969,16383.5,65535.0
15418.978970397295,191.16795349121094,379.4176330566406,188.35772705078125,-646.9047241210938,-25.528526306152344,48.1794548034668,14.872781753540039,71.00634002685547,16383.5,65535.0
15418.979370405925,202.70855712890625,385.6537780761719,166.3461151123047,-654.94384765625,-26.435998916625977,50.39311218261719,16.05630111694336,71.45822143554688,16383.5,65535.0
15418.979770414553,201.00119018554688,385.3806457519531,169.40484619140625,-645.7638549804688,-30.59170150756836,45.97645950317383,13.06070613861084,69.55096435546875,16383.5,65535.0
15418.980170423183,204.25148010253906,384.7793884277344,184.11346435546875,-660.0696411132812,-35.38938522338867,41.54806137084961,6.7806077003479,64.72173309326172,16383.5,65535.0
15418.980570431813,214.2152099609375,385.7355041503906,201.27003479003906,-659.8184814453125,-35.26982879638672,41.14387893676758,6.326840877532959,61.662811279296875,16383.5,65535.0
15418.980970440443,208.6758270263672,390.3934326171875,195.27435302734375,-644.6773071289062,-37.71699523925781,36.56281661987305,5.228175163269043,60.13660430908203,16383.5,65535.0
15418.981370449073,213.27508544921875,383.9862976074219,189.3787841796875,-644.2581176757812,-30.978748321533203,43.43025207519531,9.600505828857422,66.52143859863281,16383.5,65535.0
15418.981770457702,195.7299041748047,389.357177734375,193.0873565673828,-655.649658203125,-29.163808822631836,46.56403732299805,11.691840171813965,69.25092315673828,16383.5,65535.0
15418.982170466332,185.48240661621094,382.4477233886719,194.06491088867188,-660.3587646484375,-29.08543586730957,47.16111755371094,11.87328052520752,70.87919616699219,16383.5,65535.0
15418.982570474962,189.21258544921875,382.8856506347656,196.57925415039062,-667.1671142578125,-32.89178466796875,45.48989486694336,10.442037582397461,68.45233154296875,16383.5,65535.0
15418.98297048359,186.84727478027344,394.64654541015625,192.49256896972656,-674.7698364257812,-31.993492126464844,44.05824661254883,9.54029655456543,67.92675018310547,16383.5,65535.0
15418.98337049222,183.2199249267578,383.8208923339844,190.74029541015625,-672.7299194335938,-30.836214065551758,41.53425979614258,10.908884048461914,68.3216323852539,16383.5,65535.0
15418.98377050085,190.27816772460938,390.9469909667969,178.90135192871094,-662.5093383789062,-32.77870178222656,40.627750396728516,11.790562629699707,66.53063201904297,16383.5,65535.0
15418.98417050948,184.61676025390625,381.6046447753906,176.5077667236328,-663.08349609375,-31.451004028320312,42.608070373535156,9.126786231994629,64.3799057006836,16383.5,65535.0
15418.984570518109,190.5232696533203,396.036376953125,180.2676544189453,-660.8485107421875,-35.82917404174805,35.54032516479492,7.646655559539795,61.96122360229492,16383.5,65535.0
15418.984970526739,185.132080078125,391.15966796875,169.49411010742188,-657.3776245117188,-33.255069732666016,41.13953399658203,11.761333465576172,66.2071762084961,16383.5,65535.0
15418.985370535369,176.28321838378906,392.1799011230469,157.35882568359375,-663.6568603515625,-42.032470703125,31.93604278564453,3.977756977081299,58.989219665527344,16383.5,65535.0
15418.985770543999,169.58981323242188,384.3796081542969,159.61932373046875,-667.3969116210938,-44.44608688354492,23.564102172851562,-2.503436326980591,54.7563591003418,16383.5,65535.0
15418.986170552627,165.63153076171875,379.38916015625,171.57339477539062,-666.790771484375,-46.59806442260742,20.42828369140625,-3.971203327178955,52.335792541503906,16383.5,65535.0
15418.986570561257,163.5550537109375,381.647705078125,159.08360290527344,-672.4281005859375,-49.91926193237305,16.118196487426758,-5.98034143447876,52.18391799926758,16383.5,65535.0
15418.986970569887,153.40045166015625,387.8136291503906,139.34109497070312,-679.9525756835938,-45.05398941040039,18.455764770507812,-4.701923370361328,54.12774658203125,16383.5,65535.0
15418.987370578518,148.33091735839844,395.4369812011719,138.40626525878906,-677.67138671875,-41.83241653442383,24.967998504638672,0.46988222002983093,57.23755645751953,16383.5,65535.0
15418.987770587146,146.09657287597656,387.4249267578125,142.09954833984375,-681.8377075195312,-44.788509368896484,19.7675724029541,-5.344412326812744,53.190086364746094,16383.5,65535.0
15418.988170595776,147.59213256835938,392.83770751953125,130.4411163330078,-683.1016235351562,-54.72473907470703,8.377496719360352,-14.044142723083496,43.7946662902832,16383.5,65535.0
15418.988570604406,141.36366271972656,400.7750549316406,125.80071258544922,-678.5574951171875,-53.579647064208984,6.980718612670898,-12.825180053710938,44.315059661865234,16383.5,65535.0
15418.988970613036,137.3469696044922,381.0360107421875,145.6670684814453,-681.9097290039062,-54.09195327758789,7.621264934539795,-13.353809356689453,43.14973068237305,16383.5,65535.0
15418.989370621664,143.33309936523438,379.98797607421875,152.09571838378906,-674.8167114257812,-59.191287994384766,-1.7137023210525513,-18.382841110229492,35.475830078125,16383.5,65535.0
15418.989770630295,143.34864807128906,382.75048828125,155.97142028808594,-677.3419189453125,-59.38657760620117,-4.07213020324707,-16.526535034179688,37.6961555480957,16383.5,65535.0
15418.990170638925,153.54254150390625,376.5517883300781,158.49539184570312,-678.6044921875,-58.20767593383789,-0.13583660125732422,-14.759979248046875,42.75551986694336,16383.5,65535.0
15418.990570647555,162.90771484375,383.9591369628906,159.64366149902344,-677.0474853515625,-47.3562126159668,11.14319896697998,-7.484830379486084,52.688995361328125,16383.5,65535.0
15418.990970656183,154.1192169189453,374.7719421386719,153.17300415039062,-675.204833984375,-49.1429557800293,11.089845657348633,-7.853578567504883,48.03151321411133,16383.5,65535.0
15418.991370664813,165.64822387695312,368.57452392578125,150.73492431640625,-658.3919067382812,-50.003414154052734,8.893292427062988,-6.500055313110352,50.53970718383789,16383.5,65535.0
15418.991770673443,169.10272216796875,380.4753112792969,160.57437133789062,-672.7745361328125,-44.41959762573242,14.867937088012695,-1.354172706604004,53.6667366027832,16383.5,65535.0
15418.992170682073,167.38783264160156,383.8192443847656,152.0364227294922,-669.0091552734375,-37.47926712036133,22.222545623779297,1.5254437923431396,58.51872253417969,16383.5,65535.0
15418.992570690702,166.6559600830078,376.7541809082031,136.9732666015625,-666.9675903320312,-39.62821960449219,19.7561092376709,2.297734022140503,58.06725311279297,16383.5,65535.0
15418.992970699332,169.2119903564453,378.5725402832031,134.7750701904297,-662.0888061523438,-48.38359832763672,11.946595191955566,-6.351731300354004,50.10823440551758,16383.5,65535.0
15418.993370707962,176.56063842773438,372.09521484375,126.8401107788086,-649.529296875,-50.49565887451172,9.418710708618164,-7.920507907867432,49.06953811645508,16383.5,65535.0
15418.993770716592,166.37452697753906,378.31158447265625,130.97637939453125,-661.138427734375,-47.68601989746094,13.791268348693848,-7.94310188293457,53.55892562866211,16383.5,65535.0
15418.99417072522,152.49627685546875,372.13409423828125,144.13575744628906,-671.4732055664062,-47.82787322998047,13.664891242980957,-6.213130474090576,51.534584045410156,16383.5,65535.0
15418.99457073385,142.53895568847656,377.11553955078125,166.3479766845703,-670.8455200195312,-47.907222747802734,17.957481384277344,-1.7921279668807983,51.83467102050781,16383.5,65535.0
15418.99497074248,138.76922607421875,375.58868408203125,178.7718963623047,-671.7277221679688,-42.8917236328125,20.097368240356445,-1.0836879014968872,52.803810119628906,16383.5,65535.0
15418.99537075111,146.08819580078125,374.1027526855469,197.59136962890625,-665.9982299804688,-39.1331672668457,26.77474594116211,2.530681848526001,61.19371795654297,16383.5,65535.0
15418.995770759739,149.78128051757812,362.8314514160156,187.00436401367188,-661.6314086914062,-41.016014099121094,22.547420501708984,1.06343674659729,57.61247253417969,16383.5,65535.0
15418.996170768369,153.73922729492188,363.2679443359375,172.17056274414062,-658.91064453125,-35.649600982666016,25.217844009399414,3.0371618270874023,59.48497009277344,16383.5,65535.0
15418.996570776999,153.7212677001953,372.62811279296875,174.7891845703125,-659.3809814453125,-34.917625427246094,31.958791732788086,4.180562496185303,59.927223205566406,16383.5,65535.0
15418.996970785629,165.74432373046875,366.35516357421875,183.4530029296875,-660.56005859375,-38.07816696166992,34.427642822265625,4.138513088226318,63.371639251708984,16383.5,65535.0
15418.997370794257,163.2241973876953,367.8427429199219,193.98997497558594,-654.7351684570312,-37.97792053222656,35.8228759765625,4.559182643890381,61.471946716308594,16383.5,65535.0
15418.997770802887,160.34591674804688,364.42138671875,185.02232360839844,-644.865478515625,-37.22394943237305,35.48836135864258,5.531826019287109,60.93180465698242,16383.5,65535.0
15418.998170811517,154.2779541015625,360.1962585449219,172.01817321777344,-652.404052734375,-32.330806732177734,38.490055084228516,8.420838356018066,64.54780578613281,16383.5,65535.0
15418.998570820148,146.73167419433594,367.66400146484375,155.58514404296875,-657.0267944335938,-36.12747573852539,40.94963455200195,9.257172584533691,65.287109375,16383.5,65535.0
15418.998970828776,145.2987060546875,361.2664489746094,160.60496520996094,-652.284912109375,-28.427303314208984,53.079978942871094,14.893925666809082,74.15372467041016,16383.5,65535.0
15418.999370837406,144.9661102294922,360.3414611816406,159.30519104003906,-657.7232055664062,-29.97466468811035,52.44450378417969,13.912577629089355,69.27302551269531,16383.5,65535.0
15418.999770846036,152.545166015625,362.3481750488281,181.69207763671875,-663.7734985351562,-19.39883041381836,64.64926147460938,22.89229965209961,79.97295379638672,16383.5,65535.0
15419.000170854666,167.7389373779297,369.63427734375,205.372802734375,-658.1185302734375,-27.525789260864258,56.2171745300293,16.798904418945312,69.2600326538086,16383.5,65535.0
15419.000570863294,171.48300170898438,369.7750244140625,213.8175811767578,-659.7061767578125,-31.011932373046875,51.982887268066406,11.816370010375977,67.73098754882812,16383.5,65535.0
15419.000970871924,170.1743621826172,373.63983154296875,186.04281616210938,-660.8692016601562,-16.91353988647461,65.99479675292969,24.178194046020508,82.72013092041016,16383.5,65535.0
15419.001370880555,170.86370849609375,377.0235595703125,164.87954711914062,-662.1209716796875,-18.990642547607422,65.67862701416016,21.4895076751709,81.8015365600586,16383.5,65535.0
15419.001770889185,174.725341796875,368.6829833984375,161.42941284179688,-662.6287841796875,-30.75906753540039,53.216495513916016,11.830886840820312,66.64437103271484,16383.5,65535.0
15419.002170897813,174.11795043945312,366.3433532714844,164.97560119628906,-658.0719604492188,-26.999696731567383,51.62873077392578,13.48812198638916,69.36612701416016,16383.5,65535.0
15419.002570906443,164.6904754638672,369.3678283691406,170.88031005859375,-664.5358276367188,-24.114559173583984,57.699745178222656,16.703662872314453,74.1270751953125,16383.5,65535.0
15419.002970915073,158.53253173828125,369.0238342285156,177.87672424316406,-669.9158325195312,-22.091550827026367,59.383155822753906,20.86174201965332,76.91876983642578,16383.5,65535.0
15419.003370923703,162.65676879882812,375.3816223144531,168.96437072753906,-665.9965209960938,-24.28610610961914,53.052642822265625,17.54363250732422,73.20901489257812,16383.5,65535.0
15419.003770932331,171.61293029785156,376.9716796875,159.59530639648438,-675.3821411132812,-20.320472717285156,57.5137939453125,21.026081085205078,77.57044982910156,16383.5,65535.0
15419.004170940962,178.74891662597656,365.14910888671875,147.27822875976562,-682.8419189453125,-28.040699005126953,51.073936462402344,12.443367004394531,69.50975799560547,16383.5,65535.0
15419.004570949592,188.23106384277344,371.55511474609375,130.6320037841797,-685.4073486328125,-25.217750549316406,52.0565299987793,16.90873908996582,73.4158935546875,16383.5,65535.0
15419.00497095822,189.61329650878906,366.7198486328125,134.88290405273438,-684.383056640625,-30.838409423828125,48.22196578979492,13.275678634643555,70.98371887207031,16383.5,65535.0
15419.00537096685,190.8978271484375,367.0506286621094,156.7811279296875,-673.6571655273438,-39.08097839355469,38.13753128051758,6.101041316986084,62.94156265258789,16383.5,65535.0
15419.00577097548,194.99142456054688,363.6678771972656,188.2362060546875,-675.2179565429688,-31.553831100463867,40.56119918823242,12.60494327545166,67.02652740478516,16383.5,65535.0
15419.00617098411,185.5264129638672,364.8399963378906,219.19204711914062,-684.3157958984375,-36.60688018798828,36.56089401245117,5.2370219230651855,65.57418823242188,16383.5,65535.0
15419.00657099274,182.09703063964844,360.3665771484375,191.19204711914062,-685.5902709960938,-33.2196044921875,39.534751892089844,7.939614772796631,65.9419937133789,16383.5,65535.0
15419.006971001369,203.54794311523438,357.8164978027344,152.47964477539062,-687.8644409179688,-31.936166763305664,41.13859939575195,12.254952430725098,66.5752944946289,16383.5,65535.0
15419.007371009999,218.32818603515625,356.3369140625,141.5698699951172,-696.3160400390625,-30.192916870117188,41.02523422241211,10.505046844482422,66.7784423828125,16383.5,65535.0
15419.007771018629,253.53147888183594,344.53228759765625,157.1392822265625,-692.1505737304688,-29.128299713134766,40.421791076660156,10.81962776184082,67.68407440185547,16383.5,65535.0
15419.008171027257,278.77386474609375,348.42633056640625,175.9499053955078,-697.6170043945312,-31.132253646850586,38.39507293701172,10.560294151306152,65.33798217773438,16383.5,65535.0
15419.008571035887,299.0799865722656,344.9890441894531,177.57504272460938,-695.88623046875,-22.81620216369629,46.98897933959961,21.534589767456055,72.6670150756836,16383.5,65535.0
15419.008971044517,305.1736755371094,352.63427734375,164.56007385253906,-691.8887939453125,-35.773860931396484,33.51837158203125,6.822781085968018,61.54654312133789,16383.5,65535.0
15419.009371053147,294.7881164550781,346.91326904296875,155.08982849121094,-693.5255126953125,-51.633480072021484,12.550607681274414,-7.964093208312988,48.79289627075195,16383.5,65535.0
15419.009771061777,298.906494140625,339.14013671875,153.5354766845703,-696.29638671875,-37.25531005859375,23.302684783935547,4.330929756164551,59.581626892089844,16383.5,65535.0
15419.010171070406,283.7010192871094,354.01715087890625,148.08740234375,-691.1783447265625,-36.95684051513672,26.22705078125,3.6461095809936523,61.37183380126953,16383.5,65535.0
15419.010571079036,278.4609375,341.76654052734375,153.13172912597656,-698.3270263671875,-42.53915023803711,20.051025390625,-1.2997148036956787,57.823020935058594,16383.5,65535.0
15419.010971087666,268.68603515625,340.616943359375,135.821044921875,-694.3928833007812,-39.858734130859375,21.040327072143555,3.4497807025909424,60.08221435546875,16383.5,65535.0
15419.011371096294,253.89181518554688,346.8282775878906,123.98153686523438,-684.9449462890625,-40.38926696777344,20.708972930908203,0.9911236763000488,59.11723709106445,16383.5,65535.0
15419.011771104924,246.0028533935547,338.6022644042969,133.72145080566406,-687.1029663085938,-37.315853118896484,24.99127960205078,6.403200626373291,59.589073181152344,16383.5,65535.0
15419.012171113554,248.0882110595703,335.44549560546875,111.86283874511719,-679.862060546875,-46.64718246459961,15.493622779846191,-2.148986339569092,52.97953796386719,16383.5,65535.0
15419.012571122184,236.82879638671875,334.7651672363281,111.63768005371094,-685.027587890625,-42.02074432373047,17.25235366821289,-0.6455721855163574,56.4335823059082,16383.5,65535.0
15419.012971130815,214.40753173828125,343.4079284667969,125.28112030029297,-676.9703369140625,-46.543434143066406,19.378719329833984,-2.8848485946655273,52.464073181152344,16383.5,65535.0
15419.013371139443,197.5452117919922,345.5887145996094,125.37212371826172,-674.985595703125,-45.162967681884766,18.496360778808594,-3.961909055709839,52.47639846801758,16383.5,65535.0
15419.013771148073,199.08375549316406,345.2041015625,114.24242401123047,-667.3181762695312,-50.48899841308594,12.450794219970703,-6.77883768081665,48.044471740722656,16383.5,65535.0
15419.014171156703,184.7549591064453,345.8426208496094,108.49517059326172,-664.909912109375,-49.355384826660156,14.841440200805664,-7.507011890411377,47.962459564208984,16383.5,65535.0
15419.014571165331,189.59007263183594,360.1122131347656,121.10136413574219,-664.3185424804688,-46.59086227416992,14.505465507507324,-4.967515468597412,50.50559616088867,16383.5,65535.0
15419.014971173961,199.4976043701172,356.4688415527344,140.13099670410156,-672.414306640625,-39.00035858154297,25.06832504272461,1.7605990171432495,58.853485107421875,16383.5,65535.0
15419.015371182591,185.1824493408203,345.696533203125,160.97763061523438,-658.8192749023438,-34.42862319946289,33.60959243774414,6.652863025665283,62.56877517700195,16383.5,65535.0
15419.015771191222,176.32913208007812,357.3313293457031,163.54571533203125,-658.7472534179688,-37.4161491394043,31.982086181640625,5.630552291870117,63.17566680908203,16383.5,65535.0
15419.016171199852,174.1371612548828,352.4651184082031,159.14987182617188,-664.1070556640625,-36.96257781982422,28.545618057250977,4.690287113189697,60.52896499633789,16383.5,65535.0
15419.01657120848,184.4760284423828,355.3052062988281,178.2779541015625,-660.8933715820312,-40.274513244628906,28.138647079467773,3.412041425704956,57.583221435546875,16383.5,65535.0
15419.01697121711,188.81695556640625,356.6679382324219,198.57933044433594,-657.5945434570312,-32.08446502685547,39.41212844848633,10.933714866638184,68.32095336914062,16383.5,65535.0
15419.01737122574,196.0596923828125,336.722900390625,204.5074920654297,-656.90380859375,-38.41347885131836,34.15932083129883,7.412168502807617,60.711952209472656,16383.5,65535.0
15419.017771234368,213.2564239501953,341.64605712890625,200.48062133789062,-653.5934448242188,-39.11863327026367,34.89215850830078,2.2834279537200928,57.61205291748047,16383.5,65535.0
15419.018171242999,210.65423583984375,343.199462890625,185.62217712402344,-657.6317138671875,-34.18854904174805,42.18478775024414,7.063787460327148,63.32889938354492,16383.5,65535.0
15419.018571251629,202.2190704345703,334.04534912109375,169.33094787597656,-649.7882080078125,-29.837217330932617,46.7984733581543,15.14810848236084,71.27627563476562,16383.5,65535.0
15419.018971260259,191.4529266357422,334.50347900390625,159.9798583984375,-650.2344360351562,-37.076026916503906,37.62171173095703,6.00225305557251,58.73088073730469,16383.5,65535.0
15419.019371268889,201.8148651123047,337.95501708984375,182.0804443359375,-651.8860473632812,-36.59746551513672,44.41281509399414,7.464559555053711,63.423614501953125,16383.5,65535.0
15419.019771277517,192.4362030029297,331.7762756347656,207.62913513183594,-659.1685180664062,-44.54069519042969,38.6927490234375,-2.025294065475464,54.62704849243164,16383.5,65535.0
15419.020171286147,206.78623962402344,325.67388916015625,221.26344299316406,-662.9129028320312,-34.131526947021484,42.07525634765625,6.631378650665283,61.54592514038086,16383.5,65535.0
15419.020571294777,213.80653381347656,331.6727600097656,220.0950469970703,-661.9326171875,-23.18312644958496,57.79304122924805,18.282997131347656,75.27423095703125,16383.5,65535.0
15419.020971303406,209.73280334472656,334.208740234375,215.2626190185547,-653.683349609375,-26.50039291381836,57.238914489746094,20.027368545532227,72.64972686767578,16383.5,65535.0
15419.021371312036,212.2842254638672,328.8667907714844,213.06234741210938,-661.7581787109375,-23.73876190185547,57.868343353271484,18.65919303894043,71.3858871459961,16383.5,65535.0
15419.021771320666,210.36581420898438,334.868408203125,220.5601043701172,-659.300048828125,-19.158445358276367,62.4127082824707,18.475021362304688,76.68354034423828,16383.5,65535.0
15419.022171329296,201.63661193847656,341.7844543457031,215.26626586914062,-660.916259765625,-21.402790069580078,62.21267318725586,21.63346290588379,77.0676498413086,16383.5,65535.0
15419.022571337926,212.4097900390625,348.4202575683594,212.73309326171875,-656.0585327148438,-25.175443649291992,58.40256881713867,19.45553207397461,75.36492919921875,16383.5,65535.0
15419.022971346554,214.3616943359375,346.605712890625,207.98623657226562,-650.0304565429688,-20.5252628326416,58.04194641113281,22.23753547668457,74.10421752929688,16383.5,65535.0
15419.023371355184,211.13963317871094,348.8763427734375,192.38742065429688,-652.4666137695312,-18.434856414794922,60.02642059326172,23.726608276367188,78.53446197509766,16383.5,65535.0
15419.023771363814,208.3592071533203,347.1498107910156,199.83770751953125,-658.6030883789062,-31.681673049926758,49.387149810791016,8.440601348876953,65.90536499023438,16383.5,65535.0
15419.024171372443,206.1278533935547,342.89678955078125,197.9548797607422,-654.2133178710938,-30.22222137451172,47.296531677246094,11.690567970275879,69.17222595214844,16383.5,65535.0
15419.024571381073,209.6971435546875,339.095458984375,200.7109832763672,-663.01953125,-19.352773666381836,59.740840911865234,25.46614646911621,79.51488494873047,16383.5,65535.0
15419.024971389703,209.64305114746094,326.6724853515625,208.1160888671875,-677.068115234375,-18.057727813720703,59.81289291381836,23.792821884155273,78.7574462890625,16383.5,65535.0
15419.025371398333,210.2691650390625,324.7900390625,200.090576171875,-669.5336303710938,-28.18503761291504,46.2671012878418,14.225992202758789,71.19630432128906,16383.5,65535.0
15419.025771406963,227.06472778320312,324.53912353515625,183.0751495361328,-673.2621459960938,-33.016754150390625,39.083011627197266,9.489935874938965,66.55239868164062,16383.5,65535.0
15419.026171415591,241.6105499267578,320.31292724609375,173.57833862304688,-674.5383911132812,-30.57351303100586,40.35748291015625,11.39340877532959,67.9917984008789,16383.5,65535.0
15419.026571424221,247.35031127929688,314.6238098144531,161.95579528808594,-679.642578125,-29.78668212890625,43.61231994628906,13.640249252319336,68.8508529663086,16383.5,65535.0
15419.026971432851,245.37953186035156,302.0423889160156,138.0670166015625,-687.0826416015625,-42.243587493896484,30.426382064819336,1.6027995347976685,57.9852180480957,16383.5,65535.0
15419.02737144148,243.27572631835938,301.6451110839844,137.03717041015625,-676.1907958984375,-42.02906799316406,28.328062057495117,2.4544687271118164,57.69640350341797,16383.5,65535.0
15419.02777145011,230.89720153808594,309.1548156738281,135.2057647705078,-678.9845581054688,-34.47879409790039,33.65968704223633,8.991978645324707,64.11988830566406,16383.5,65535.0
15419.02817145874,226.30235290527344,304.82177734375,136.83953857421875,-674.7051391601562,-37.55160903930664,28.106882095336914,2.206698417663574,61.01810073852539,16383.5,65535.0
15419.02857146737,219.51222229003906,298.4013977050781,141.3393096923828,-666.2926635742188,-35.46697998046875,32.524898529052734,6.131985187530518,63.15984344482422,16383.5,65535.0
15419.028971475998,224.06536865234375,308.7720642089844,141.94700622558594,-674.7581176757812,-31.32523536682129,35.28647232055664,10.149020195007324,66.27095031738281,16383.5,65535.0
15419.029371484628,215.93214416503906,313.8855895996094,155.51783752441406,-675.2905883789062,-35.425376892089844,27.17416763305664,7.026782512664795,63.21869659423828,16383.5,65535.0
15419.029771493259,219.71168518066406,312.62567138671875,159.02853393554688,-663.8787841796875,-38.05448913574219,24.9777889251709,5.383540630340576,60.55038833618164,16383.5,65535.0
15419.030171501889,223.29933166503906,300.87469482421875,164.15283203125,-674.9956665039062,-32.52812957763672,31.191417694091797,9.371338844299316,64.8853988647461,16383.5,65535.0
15419.030571510517,214.8023681640625,309.7139587402344,170.83905029296875,-678.565673828125,-41.705928802490234,22.42243194580078,2.5702009201049805,55.62994384765625,16383.5,65535.0
15419.030971519147,193.97573852539062,306.9508361816406,164.3125762939453,-669.6791381835938,-37.56073760986328,25.373897552490234,6.0486249923706055,60.9263801574707,16383.5,65535.0
15419.031371527777,188.24951171875,307.51409912109375,127.75331115722656,-667.0447998046875,-31.33652114868164,30.226327896118164,7.984242916107178,64.95540618896484,16383.5,65535.0
15419.031771536407,186.53414916992188,303.3785705566406,123.725341796875,-660.6091918945312,-36.56975555419922,23.815414428710938,3.9236817359924316,58.53091812133789,16383.5,65535.0
15419.032171545035,182.24319458007812,302.7431945800781,127.85232543945312,-661.5117797851562,-43.955204010009766,19.35164451599121,0.3342292010784149,55.380001068115234,16383.5,65535.0
15419.032571553666,163.3503875732422,297.78314208984375,119.39946746826172,-642.6171264648438,-29.03420066833496,32.39301300048828,12.86413288116455,65.4500503540039,16383.5,65535.0
15419.032971562296,159.19241333007812,305.9640197753906,137.8437042236328,-630.3697509765625,-39.59804153442383,23.297626495361328,2.717604160308838,56.739891052246094,16383.5,65535.0
15419.033371570926,165.2526397705078,303.4481201171875,159.02813720703125,-626.9005737304688,-45.202083587646484,20.002464294433594,-2.292860269546509,56.24462127685547,16383.5,65535.0
15419.033771579554,149.8882293701172,302.0943603515625,173.4549102783203,-617.6251220703125,-43.441986083984375,23.975162506103516,0.3389301002025604,57.03352355957031,16383.5,65535.0
15419.034171588184,138.58900451660156,304.5875244140625,161.28829956054688,-628.3991088867188,-36.04193878173828,27.41402816772461,6.884150981903076,61.46406555175781,16383.5,65535.0
15419.034571596814,154.44166564941406,317.028076171875,153.4804229736328,-627.5780029296875,-30.99378204345703,34.47294998168945,9.679957389831543,66.44395446777344,16383.5,65535.0
15419.034971605444,160.30987548828125,306.7728576660156,151.5716094970703,-622.5803833007812,-29.937334060668945,37.078857421875,9.647074699401855,67.06623077392578,16383.5,65535.0
15419.035371614073,152.30580139160156,312.6269226074219,146.41574096679688,-620.8671875,-30.800071716308594,37.592559814453125,9.616230010986328,64.5172348022461,16383.5,65535.0
15419.035771622703,159.84117126464844,305.5484924316406,161.2931365966797,-612.1689453125,-35.83333969116211,32.82762145996094,6.6813130378723145,59.69087600708008,16383.5,65535.0
15419.036171631333,172.41920471191406,311.0586853027344,166.1744842529297,-605.3037109375,-34.6689567565918,38.16643142700195,9.386151313781738,64.76649475097656,16383.5,65535.0
15419.036571639963,177.8922119140625,310.58636474609375,167.91748046875,-610.7835693359375,-24.98802947998047,50.03212356567383,17.60911750793457,74.62966918945312,16383.5,65535.0
15419.036971648591,187.26910400390625,306.2051696777344,149.15000915527344,-601.8944091796875,-27.831523895263672,46.028499603271484,13.969958305358887,70.69474792480469,16383.5,65535.0
15419.037371657221,194.00018310546875,300.7774658203125,138.0368194580078,-584.119140625,-26.502243041992188,49.997833251953125,16.873363494873047,73.01976776123047,16383.5,65535.0
15419.037771665851,198.99069213867188,302.8883972167969,143.45533752441406,-577.675537109375,-27.888334274291992,45.62670135498047,12.985228538513184,70.09757232666016,16383.5,65535.0
15419.038171674481,210.41262817382812,306.51763916015625,156.9891815185547,-582.6052856445312,-33.97793197631836,42.445716857910156,10.454840660095215,64.47073364257812,16383.5,65535.0
15419.03857168311,220.01242065429688,300.3763427734375,175.697509765625,-587.4780883789062,-27.504560470581055,49.635982513427734,14.875640869140625,70.66075897216797,16383.5,65535.0
15419.03897169174,210.98924255371094,306.2985534667969,192.18727111816406,-581.31005859375,-22.2779483795166,54.38139343261719,19.757776260375977,77.47523498535156,16383.5,65535.0
15419.03937170037,207.79971313476562,299.2333679199219,227.35159301757812,-586.2742919921875,-14.796348571777344,64.73956298828125,26.999982833862305,81.67572021484375,16383.5,65535.0
15419.039771709,217.03724670410156,306.7337646484375,249.50807189941406,-581.8342895507812,-16.24455451965332,67.7208251953125,27.051937103271484,84.66915130615234,16383.5,65535.0
15419.040171717628,217.56141662597656,316.8155517578125,290.6073913574219,-582.1875,-28.856706619262695,50.61359786987305,13.735980987548828,69.32200622558594,16383.5,65535.0
15419.040571726258,227.04588317871094,300.2102966308594,305.9825134277344,-576.60546875,-31.944698333740234,45.4123420715332,9.486043930053711,64.8779525756836,16383.5,65535.0
15419.040971734888,240.6453399658203,307.5828857421875,283.4874572753906,-585.8878784179688,-26.673980712890625,55.301849365234375,16.314594268798828,73.16546630859375,16383.5,65535.0
15419.041371743519,252.4320526123047,309.68353271484375,272.8846130371094,-584.2970581054688,-19.424823760986328,61.631103515625,20.0482177734375,75.54381561279297,16383.5,65535.0
15419.041771752147,247.855712890625,308.0419921875,280.56005859375,-591.1521606445312,-23.585163116455078,59.44550704956055,20.96430206298828,77.2895278930664,16383.5,65535.0
15419.042171760777,229.52684020996094,308.20050048828125,294.6755676269531,-596.5806884765625,-22.033573150634766,61.68407440185547,20.387466430664062,77.198486328125,16383.5,65535.0
15419.042571769407,236.54159545898438,314.22283935546875,308.3940734863281,-613.44091796875,-23.479026794433594,56.744110107421875,17.790706634521484,72.94017791748047,16383.5,65535.0
15419.042971778037,250.72695922851562,314.2563781738281,318.29986572265625,-614.04150390625,-25.553224563598633,50.55297088623047,16.738479614257812,71.33914947509766,16383.5,65535.0
15419.043371786665,244.87855529785156,320.9276428222656,325.63671875,-615.7208251953125,-25.540021896362305,52.4465446472168,16.767608642578125,72.90922546386719,16383.5,65535.0
15419.043771795295,249.8062744140625,318.8797607421875,315.3572082519531,-620.3106689453125,-26.443614959716797,49.998470306396484,15.252408981323242,71.56088256835938,16383.5,65535.0
15419.044171803926,248.77023315429688,310.74664306640625,307.3257141113281,-618.3179931640625,-29.14262580871582,49.2933464050293,14.113139152526855,70.48085021972656,16383.5,65535.0
15419.044571812556,235.5779266357422,310.9814758300781,294.1012878417969,-615.0450439453125,-29.48811149597168,48.413848876953125,16.06682014465332,68.33650207519531,16383.5,65535.0
15419.044971821184,228.9866485595703,304.2903137207031,277.9696044921875,-612.4348754882812,-36.832557678222656,41.164432525634766,10.303130149841309,64.09465026855469,16383.5,65535.0
15419.045371829814,230.91842651367188,304.4004211425781,254.9146728515625,-613.6954345703125,-43.2368049621582,29.402307510375977,2.101783037185669,57.86875534057617,16383.5,65535.0
15419.045771838444,233.1026611328125,303.71417236328125,232.34002685546875,-614.2573852539062,-32.685264587402344,39.14729309082031,8.717216491699219,65.79209899902344,16383.5,65535.0
15419.046171847074,216.9446258544922,302.01824951171875,232.18507385253906,-626.8779907226562,-30.866483688354492,43.527000427246094,13.977035522460938,68.98963165283203,16383.5,65535.0
15419.046571855702,214.39920043945312,295.5062561035156,220.8012237548828,-624.6139526367188,-30.344942092895508,39.08938980102539,11.601923942565918,66.25621032714844,16383.5,65535.0
15419.046971864333,211.14044189453125,288.9174499511719,208.53704833984375,-626.88427734375,-33.89747619628906,32.86228561401367,6.270544052124023,64.14439392089844,16383.5,65535.0
15419.047371872963,218.0143280029297,296.9122314453125,209.73089599609375,-630.2705078125,-38.51942825317383,33.27394104003906,5.231008529663086,59.97418975830078,16383.5,65535.0
15419.047771881593,221.37681579589844,289.82952880859375,209.26280212402344,-640.4373779296875,-37.599430084228516,31.873598098754883,5.821281909942627,63.88425827026367,16383.5,65535.0
15419.048171890221,216.52822875976562,286.5470275878906,184.09555053710938,-634.7973022460938,-31.226760864257812,34.575904846191406,10.679655075073242,67.72827911376953,16383.5,65535.0
15419.048571898851,203.45449829101562,286.16552734375,167.18948364257812,-632.8867797851562,-32.31351089477539,36.071048736572266,10.694869041442871,67.02729034423828,16383.5,65535.0
15419.048971907481,199.1820831298828,282.15234375,155.74063110351562,-632.5299072265625,-43.30015563964844,22.213701248168945,-0.8244752883911133,56.07217788696289,16383.5,65535.0
15419.04937191611,199.28298950195312,273.24041748046875,150.34153747558594,-634.9751586914062,-44.65203857421875,19.879547119140625,-0.7118602991104126,53.75307846069336,16383.5,65535.0
15419.04977192474,198.51687622070312,269.9653015136719,135.4171600341797,-632.7725830078125,-41.095054626464844,21.07600975036621,1.3267676830291748,56.42036437988281,16383.5,65535.0
15419.05017193337,172.60585021972656,274.2492980957031,138.43121337890625,-632.9363403320312,-41.98939514160156,19.379783630371094,1.3685001134872437,56.4468879699707,16383.5,65535.0
15419.050571942,157.2313690185547,281.5902099609375,159.85107421875,-636.4698486328125,-40.9093017578125,26.09149742126465,5.551283836364746,61.529823303222656,16383.5,65535.0
15419.05097195063,160.92799377441406,275.8097229003906,148.10984802246094,-635.9319458007812,-40.62784194946289,22.556325912475586,0.8667413592338562,58.920318603515625,16383.5,65535.0
15419.051371959258,157.4360809326172,275.1740417480469,126.05525970458984,-640.5455932617188,-44.587547302246094,21.933324813842773,0.3631981909275055,54.124549865722656,16383.5,65535.0
15419.051771967888,140.71278381347656,267.9300537109375,133.7711944580078,-629.3623046875,-48.84520721435547,17.67148208618164,-3.7979462146759033,51.49980163574219,16383.5,65535.0
15419.052171976518,147.7751007080078,274.54339599609375,145.0618896484375,-622.2942504882812,-44.15765380859375,17.45591163635254,-2.854107618331909,54.46637725830078,16383.5,65535.0
15419.052571985147,133.137451171875,266.7301025390625,152.9751739501953,-622.1973266601562,-32.42665481567383,30.62080955505371,10.036118507385254,66.6347885131836,16383.5,65535.0
15419.052971993777,125.53248596191406,264.78009033203125,151.95603942871094,-623.4539794921875,-41.01935577392578,23.551984786987305,3.1450798511505127,59.48383331298828,16383.5,65535.0
15419.053372002407,136.5994110107422,267.3907165527344,168.53668212890625,-619.880859375,-39.63232421875,24.84103012084961,3.045621871948242,60.41041564941406,16383.5,65535.0
15419.053772011037,129.5254364013672,279.9759826660156,172.4803009033203,-620.0237426757812,-36.77256774902344,29.53131866455078,3.8752098083496094,62.020904541015625,16383.5,65535.0
15419.054172019667,139.3714599609375,279.2978210449219,167.89244079589844,-621.0882568359375,-31.031232833862305,36.301551818847656,9.41986083984375,67.12769317626953,16383.5,65535.0
15419.054572028295,155.04507446289062,273.4710693359375,177.56240844726562,-620.6873168945312,-42.05305862426758,27.68012237548828,1.3867475986480713,56.374664306640625,16383.5,65535.0
15419.054972036925,169.6152801513672,283.4268798828125,188.80145263671875,-616.4970703125,-27.625141143798828,42.99486541748047,14.283476829528809,71.73035430908203,16383.5,65535.0
15419.055372045555,179.11288452148438,287.3303527832031,174.59608459472656,-627.903076171875,-39.14283752441406,31.09896469116211,3.073845386505127,58.32924270629883,16383.5,65535.0
15419.055772054184,179.3831024169922,288.752197265625,162.67379760742188,-620.0493774414062,-44.500755310058594,25.347314834594727,0.37932124733924866,54.272518157958984,16383.5,65535.0
15419.056172062814,172.94235229492188,279.8661804199219,161.48419189453125,-612.4817504882812,-39.59451675415039,25.696744918823242,-0.045296113938093185,56.856658935546875,16383.5,65535.0
15419.056572071444,182.6249542236328,286.4810485839844,167.54273986816406,-616.2431030273438,-35.4271125793457,31.216211318969727,4.416459560394287,59.96550750732422,16383.5,65535.0
15419.056972080074,178.40419006347656,271.4042663574219,158.21815490722656,-609.5081176757812,-34.81870651245117,34.363250732421875,5.060044288635254,61.06117630004883,16383.5,65535.0
15419.057372088704,171.1127166748047,277.3600769042969,139.82923889160156,-610.9483642578125,-38.99932098388672,34.49502182006836,1.4491113424301147,57.99049758911133,16383.5,65535.0
15419.057772097332,181.09962463378906,268.0652160644531,130.42025756835938,-602.3070068359375,-40.616973876953125,34.60089874267578,1.466268539428711,58.916080474853516,16383.5,65535.0
15419.058172105963,191.77294921875,254.60452270507812,109.87371063232422,-584.3165283203125,-38.68449401855469,38.42399978637695,1.856452226638794,60.85002136230469,16383.5,65535.0
15419.058572114593,191.01406860351562,255.4947967529297,123.84808349609375,-582.988525390625,-34.044654846191406,44.1319580078125,6.575415134429932,64.57408905029297,16383.5,65535.0
15419.05897212322,189.00799560546875,242.701904296875,154.6157684326172,-608.9767456054688,-33.657379150390625,47.02325439453125,11.547967910766602,66.10181427001953,16383.5,65535.0
15419.059372131851,177.95980834960938,250.14703369140625,170.23069763183594,-612.3282470703125,-36.07453155517578,43.280914306640625,4.353147506713867,60.81035232543945,16383.5,65535.0
15419.059772140481,184.3187713623047,248.70042419433594,164.10472106933594,-597.4096069335938,-38.82740020751953,42.154884338378906,2.4311394691467285,60.054527282714844,16383.5,65535.0
15419.060172149111,186.5846405029297,247.88308715820312,128.6151580810547,-599.1367797851562,-28.581626892089844,52.13621139526367,14.14993667602539,70.21559143066406,16383.5,65535.0
15419.060572157741,185.65341186523438,247.52664184570312,87.1631088256836,-602.2965698242188,-20.16959571838379,65.92496490478516,23.8734130859375,77.93277740478516,16383.5,65535.0
15419.06097216637,178.19281005859375,250.3487091064453,89.1341781616211,-593.9480590820312,-25.3159236907959,57.3715934753418,13.718131065368652,72.28739929199219,16383.5,65535.0
15419.061372175,168.19491577148438,251.45314025878906,106.74022674560547,-594.1183471679688,-31.79355239868164,52.74885177612305,10.421126365661621,68.83901977539062,16383.5,65535.0
15419.06177218363,147.48426818847656,247.4793701171875,102.06655883789062,-588.9530639648438,-23.510000228881836,61.32624053955078,20.602190017700195,76.78114318847656,16383.5,65535.0
15419.062172192258,138.24415588378906,251.066650390625,77.72550201416016,-600.2138671875,-26.938152313232422,53.21072006225586,15.367409706115723,70.04608154296875,16383.5,65535.0
15419.062572200888,150.4077606201172,256.8318786621094,86.45356750488281,-598.1892700195312,-37.190677642822266,41.99348449707031,7.836683750152588,64.54093170166016,16383.5,65535.0
15419.062972209518,148.97088623046875,253.04995727539062,112.1472396850586,-606.3006591796875,-35.054908752441406,42.16257095336914,9.58727741241455,63.948814392089844,16383.5,65535.0
15419.063372218148,159.1536102294922,256.63226318359375,115.51453399658203,-614.7694702148438,-35.749053955078125,42.94159698486328,8.8629150390625,62.976802825927734,16383.5,65535.0
15419.063772226778,181.1296844482422,256.3620910644531,122.53246307373047,-614.0643310546875,-44.610191345214844,33.025638580322266,-0.5639362931251526,57.1140251159668,16383.5,65535.0
15419.064172235407,188.48980712890625,251.675537109375,126.3314208984375,-612.4454345703125,-34.024009704589844,42.56737518310547,7.556642532348633,64.80149841308594,16383.5,65535.0
15419.064572244037,194.2236328125,258.12554931640625,107.5079345703125,-611.0902709960938,-35.717594146728516,41.292545318603516,6.380718231201172,61.4830322265625,16383.5,65535.0
15419.064972252667,213.41146850585938,260.6941223144531,99.28609466552734,-607.015625,-39.764556884765625,34.69263458251953,2.9280741214752197,58.90242004394531,16383.5,65535.0
15419.065372261295,233.4656219482422,264.44451904296875,114.89405822753906,-606.6430053710938,-39.16377258300781,34.28957748413086,3.4032115936279297,59.52204895019531,16383.5,65535.0
15419.065772269925,242.89036560058594,273.10321044921875,132.0345458984375,-606.9979248046875,-40.65169906616211,31.88372802734375,4.422299861907959,58.05073928833008,16383.5,65535.0
15419.066172278555,237.11830139160156,272.83392333984375,121.22313690185547,-609.4491577148438,-41.52033996582031,29.413545608520508,-0.7520241737365723,56.7387809753418,16383.5,65535.0
15419.066572287185,217.07943725585938,258.35089111328125,125.67139434814453,-614.8963623046875,-44.81049728393555,23.422996520996094,-1.2761625051498413,54.36753463745117,16383.5,65535.0
15419.066972295816,205.06564331054688,265.65692138671875,129.73648071289062,-613.70361328125,-48.85153579711914,24.843095779418945,-4.800480842590332,51.17793273925781,16383.5,65535.0
15419.067372304444,210.40060424804688,258.91900634765625,113.75116729736328,-614.1759033203125,-57.06742858886719,9.140700340270996,-15.489574432373047,41.930870056152344,16383.5,65535.0
15419.067772313074,211.1078643798828,257.9267883300781,107.40338897705078,-616.4978637695312,-46.93962097167969,17.515560150146484,-5.4690022468566895,49.96089553833008,16383.5,65535.0
15419.068172321704,208.09088134765625,260.07330322265625,121.87434387207031,-612.5557250976562,-46.813865661621094,19.624120712280273,-4.271787643432617,50.462154388427734,16383.5,65535.0
15419.068572330332,205.07769775390625,253.70350646972656,134.63876342773438,-623.9530639648438,-50.140323638916016,14.221094131469727,-8.773825645446777,49.1556396484375,16383.5,65535.0
15419.068972338962,207.12940979003906,270.1777038574219,149.64906311035156,-623.1443481445312,-48.859031677246094,15.437334060668945,-8.095251083374023,48.39391326904297,16383.5,65535.0
15419.069372347592,194.30955505371094,262.3163757324219,156.14993286132812,-624.8145141601562,-41.978729248046875,20.277420043945312,0.7370595335960388,56.77312469482422,16383.5,65535.0
15419.069772356223,190.4779052734375,262.0914306640625,155.09170532226562,-626.0138549804688,-42.56724548339844,18.739952087402344,-0.7116562128067017,54.40509796142578,16383.5,65535.0
15419.07017236485,183.12559509277344,264.28564453125,151.23568725585938,-618.4713134765625,-48.32506561279297,12.863160133361816,-7.5116376876831055,49.0384521484375,16383.5,65535.0
15419.07057237348,166.46197509765625,250.22593688964844,149.92352294921875,-615.2926635742188,-53.0975227355957,8.698169708251953,-9.87009048461914,46.7497673034668,16383.5,65535.0
15419.070972382111,169.2187042236328,258.9230651855469,155.6864776611328,-614.9163208007812,-48.520687103271484,11.712800979614258,-6.226526737213135,50.744388580322266,16383.5,65535.0
