time,X_NOSE,Y_NOSE,Z_NOSE,visibility_NOSE,X_LEFT_EYE_INNER,Y_LEFT_EYE_INNER,Z_LEFT_EYE_INNER,visibility_LEFT_EYE_INNER,X_LEFT_EYE,Y_LEFT_EYE,Z_LEFT_EYE,visibility_LEFT_EYE,X_LEFT_EYE_OUTER,Y_LEFT_EYE_OUTER,Z_LEFT_EYE_OUTER,visibility_LEFT_EYE_OUTER,X_RIGHT_EYE_OUTER,Y_RIGHT_EYE_OUTER,Z_RIGHT_EYE_OUTER,visibility_RIGHT_EYE_OUTER,X_RIGHT_EYE,Y_RIGHT_EYE,Z_RIGHT_EYE,visibility_RIGHT_EYE,X_RIGHT_EYE_OUTER,Y_RIGHT_EYE_OUTER,Z_RIGHT_EYE_OUTER,visibility_RIGHT_EYE_OUTER,X_LEFT_EAR,Y_LEFT_EAR,Z_LEFT_EAR,visibility_LEFT_EAR,X_RIGHT_EAR,Y_RIGHT_EAR,Z_RIGHT_EAR,visibility_RIGHT_EAR,X_MOUTH_LEFT,Y_MOUTH_LEFT,Z_MOUTH_LEFT,visibility_MOUTH_LEFT,X_MOUTH_RIGHT,Y_MOUTH_RIGHT,Z_MOUTH_RIGHT,visibility_MOUTH_RIGHT,X_LEFT_SHOULDER,Y_LEFT_SHOULDER,Z_LEFT_SHOULDER,visibility_LEFT_SHOULDER,X_RIGHT_SHOULDER,Y_RIGHT_SHOULDER,Z_RIGHT_SHOULDER,visibility_RIGHT_SHOULDER,X_LEFT_ELBOW,Y_LEFT_ELBOW,Z_LEFT_ELBOW,visibility_LEFT_ELBOW,X_RIGHT_ELBOW,Y_RIGHT_ELBOW,Z_RIGHT_ELBOW,visibility_RIGHT_ELBOW,X_LEFT_WRIST,Y_LEFT_WRIST,Z_LEFT_WRIST,visibility_LEFT_WRIST,X_RIGHT_WRIST,Y_RIGHT_WRIST,Z_RIGHT_WRIST,visibility_RIGHT_WRIST,X_LEFT_PINKY,Y_LEFT_PINKY,Z_LEFT_PINKY,visibility_LEFT_PINKY,X_RIGHT_PINKY,Y_RIGHT_PINKY,Z_RIGHT_PINKY,visibility_RIGHT_PINKY,X_LEFT_INDEX,Y_LEFT_INDEX,Z_LEFT_INDEX,visibility_LEFT_INDEX,X_RIGHT_INDEX,Y_RIGHT_INDEX,Z_RIGHT_INDEX,visibility_RIGHT_INDEX,X_LEFT_THUMB,Y_LEFT_THUMB,Z_LEFT_THUMB,visibility_LEFT_THUMB,X_RIGHT_THUMB,Y_RIGHT_THUMB,Z_RIGHT_THUMB,visibility_RIGHT_THUMB,X_LEFT_HIP,Y_LEFT_HIP,Z_LEFT_HIP,visibility_LEFT_HIP,X_RIGHT_HIP,Y_RIGHT_HIP,Z_RIGHT_HIP,visibility_RIGHT_HIP,X_LEFT_KNEE,Y_LEFT_KNEE,Z_LEFT_KNEE,visibility_LEFT_KNEE,X_RIGHT_KNEE,Y_RIGHT_KNEE,Z_RIGHT_KNEE,visibility_RIGHT_KNEE,X_LEFT_ANKLE,Y_LEFT_ANKLE,Z_LEFT_ANKLE,visibility_LEFT_ANKLE,X_RIGHT_ANKLE,Y_RIGHT_ANKLE,Z_RIGHT_ANKLE,visibility_RIGHT_ANKLE,X_LEFT_HEEL,Y_LEFT_HEEL,Z_LEFT_HEEL,visibility_LEFT_HEEL,X_RIGHT_HEEL,Y_RIGHT_HEEL,Z_RIGHT_HEEL,visibility_RIGHT_HEEL,X_LEFT_FOOT_INDEX,Y_LEFT_FOOT_INDEX,Z_LEFT_FOOT_INDEX,visibility_LEFT_FOOT_INDEX,X_RIGHT_FOOT_INDEX,Y_RIGHT_FOOT_INDEX,Z_RIGHT_FOOT_INDEX,visibility_RIGHT_FOOT_INDEX
17980.63940241724,0.43973836302757263,0.23663011193275452,-0.8590690493583679,0.9999688863754272,0.44675150513648987,0.21187525987625122,-0.7987856864929199,0.9999439716339111,0.455183744430542,0.2104465663433075,-0.7989873886108398,0.9999351501464844,0.4630071818828583,0.20930662751197815,-0.7991185784339905,0.9999281167984009,0.4137398302555084,0.21445143222808838,-0.8331658840179443,0.99994957447052,0.3955778181552887,0.21458113193511963,-0.8332670331001282,0.9999444484710693,0.3763350248336792,0.2149898111820221,-0.8334646821022034,0.99993896484375,0.45464223623275757,0.21700602769851685,-0.4287588596343994,0.9999394416809082,0.3259401321411133,0.22519299387931824,-0.5943491458892822,0.9999626874923706,0.4493896961212158,0.25807517766952515,-0.7177008986473083,0.9999839067459106,0.4135923683643341,0.2604934275150299,-0.7648627161979675,0.9999892711639404,0.5304011106491089,0.3502395749092102,-0.1657549887895584,0.999904990196228,0.17537479102611542,0.3663787841796875,-0.4502147436141968,0.9997915625572205,0.5812151432037354,0.5086525678634644,0.07523027807474136,0.9722479581832886,0.13154499232769012,0.51104736328125,-0.6389374732971191,0.9636083841323853,0.6419289112091064,0.6367879509925842,-0.20196622610092163,0.9700579047203064,0.22427134215831757,0.5604720711708069,-1.1574342250823975,0.9168658256530762,0.6624495983123779,0.6764258742332458,-0.29053953289985657,0.9517465233802795,0.25666698813438416,0.5742180347442627,-1.2780749797821045,0.898834764957428,0.6509734392166138,0.6754587888717651,-0.38557085394859314,0.9571632146835327,0.26804837584495544,0.5471506118774414,-1.348469614982605,0.9056495428085327,0.6413059234619141,0.6670321226119995,-0.24524568021297455,0.9573703408241272,0.2613193392753601,0.5406675934791565,-1.193518042564392,0.8903558850288391,0.4860231876373291,0.6289862990379333,0.10456182062625885,0.9973123073577881,0.31518128514289856,0.6517693400382996,-0.10410246253013611,0.9977935552597046,0.4840719699859619,0.839341402053833,0.19467589259147644,0.9501773118972778,0.3415680229663849,0.8716748952865601,-0.0186373982578516,0.9594412446022034,0.4887359142303467,0.9738171696662903,0.9453092813491821,0.856537401676178,0.35572680830955505,0.9935886859893799,0.5811073780059814,0.8660882115364075,0.47144579887390137,0.9822199940681458,0.9994149208068848,0.7834640741348267,0.3526998460292816,0.991908073425293,0.6250692009925842,0.5871444344520569,0.5453486442565918,1.0315442085266113,0.6917572617530823,0.7741876244544983,0.38289833068847656,1.0949769020080566,0.21618281304836273,0.7102670073509216
17997.30606908391,0.43643850088119507,0.23647433519363403,-0.9084665179252625,0.9999858140945435,0.4439184367656708,0.21189314126968384,-0.8503556251525879,0.9999736547470093,0.45289742946624756,0.21073126792907715,-0.8505390286445618,0.999969482421875,0.4609162211418152,0.20979911088943481,-0.8506667613983154,0.9999659061431885,0.4103658199310303,0.2137737274169922,-0.8785831332206726,0.9999758005142212,0.39194852113723755,0.21365314722061157,-0.8786563873291016,0.9999725818634033,0.373988538980484,0.2139931321144104,-0.8787743449211121,0.9999692440032959,0.455801397562027,0.21728450059890747,-0.48868852853775024,0.9999715089797974,0.3255610466003418,0.22421148419380188,-0.6266890168190002,0.9999808073043823,0.4466921091079712,0.2581259310245514,-0.7706485390663147,0.9999924898147583,0.4101945757865906,0.2592199742794037,-0.8097462058067322,0.9999948740005493,0.5321447253227234,0.3478880822658539,-0.24011527001857758,0.999934196472168,0.17558176815509796,0.3660981059074402,-0.467251181602478,0.9998493194580078,0.5826311111450195,0.5061222910881042,-0.018304023891687393,0.9786347150802612,0.1310640573501587,0.5118914246559143,-0.6306344866752625,0.9670459032058716,0.6417263746261597,0.6334231495857239,-0.2982208728790283,0.9752022624015808,0.22776152193546295,0.5597821474075317,-1.1256822347640991,0.9236605763435364,0.6613340377807617,0.6744658350944519,-0.3925800025463104,0.958746075630188,0.25815629959106445,0.5724672675132751,-1.2451434135437012,0.905394434928894,0.6492528915405273,0.6741217970848083,-0.4869843125343323,0.9628934264183044,0.2671756148338318,0.5436425805091858,-1.3136214017868042,0.9104407429695129,0.6403205394744873,0.6653303503990173,-0.34108200669288635,0.9631991386413574,0.2614206373691559,0.5372796058654785,-1.1612025499343872,0.8971131443977356,0.48541489243507385,0.6252078413963318,0.09292394667863846,0.9977460503578186,0.3142612874507904,0.6444326639175415,-0.09249675273895264,0.998176097869873,0.47994986176490784,0.8375086188316345,0.24469998478889465,0.9571840763092041,0.3394424319267273,0.8580576777458191,0.04333588108420372,0.9757730960845947,0.48592543601989746,0.9718554615974426,0.9582597017288208,0.8875085115432739,0.35871458053588867,0.9910625219345093,0.6201675534248352,0.9091691374778748,0.46966925263404846,0.9826698303222656,1.0090110301971436,0.8265382647514343,0.3557073473930359,0.991666316986084,0.6625106334686279,0.6882987022399902,0.5532958507537842,1.0229766368865967,0.7148435115814209,0.8226823210716248,0.39115482568740845,1.0828016996383667,0.27545151114463806,0.7819339632987976
18013.972735750576,0.4396490156650543,0.23314234614372253,-0.8645290732383728,0.9999731779098511,0.4441068470478058,0.20987755060195923,-0.805216372013092,0.9999490976333618,0.45238661766052246,0.20852145552635193,-0.8054171800613403,0.9999425411224365,0.4599052667617798,0.20734873414039612,-0.8055293560028076,0.9999347925186157,0.4123121201992035,0.2112255096435547,-0.8354114890098572,0.9999572038650513,0.3946177661418915,0.2108789086341858,-0.8355221152305603,0.9999536275863647,0.37667930126190186,0.21106377243995667,-0.8356987237930298,0.9999493360519409,0.4518451690673828,0.21516668796539307,-0.4489152431488037,0.9999436140060425,0.3255962133407593,0.22267979383468628,-0.5938494205474854,0.9999696016311646,0.449379026889801,0.25496238470077515,-0.7298625111579895,0.9999856948852539,0.4146450459957123,0.2573342025279999,-0.7708658576011658,0.9999911785125732,0.5319504141807556,0.348682701587677,-0.19934535026550293,0.9998980760574341,0.17733509838581085,0.3687378764152527,-0.459323525428772,0.9998483657836914,0.583105742931366,0.5076953172683716,0.025903765112161636,0.9737771153450012,0.13188202679157257,0.5139837265014648,-0.6277110576629639,0.9755616784095764,0.6420236825942993,0.6366257071495056,-0.2545565366744995,0.9695256948471069,0.23660042881965637,0.5614585280418396,-1.1104878187179565,0.9404948353767395,0.6628193855285645,0.6772714257240295,-0.34676384925842285,0.9509156346321106,0.27513769268989563,0.5719805955886841,-1.228804111480713,0.9219545125961304,0.6516740322113037,0.6767855286598206,-0.44048479199409485,0.9561848640441895,0.28416839241981506,0.5460231900215149,-1.295660138130188,0.9263210892677307,0.6425354480743408,0.667747974395752,-0.2978719472885132,0.9572723507881165,0.27434366941452026,0.5399673581123352,-1.1445496082305908,0.9136756658554077,0.4858388304710388,0.6322668194770813,0.10564704984426498,0.9967085123062134,0.3160756230354309,0.6530951857566833,-0.10517570376396179,0.9976498484611511,0.48227933049201965,0.8417583703994751,0.2660597562789917,0.9435920715332031,0.3402758538722992,0.8686590194702148,0.022179732099175453,0.9716633558273315,0.48616066575050354,0.9749003052711487,0.9556905031204224,0.8563711643218994,0.3602641522884369,0.9958956241607666,0.578465461730957,0.8836045861244202,0.4672214686870575,0.9841456413269043,1.0037845373153687,0.7920064926147461,0.3564882278442383,1.0311256647109985,0.6186721324920654,0.639034628868103,0.5578029751777649,1.0291030406951904,0.708198606967926,0.7837865948677063,0.3988245725631714,1.093853235244751,0.22594954073429108,0.7379081845283508
18030.639402417244,0.4379798471927643,0.2383776605129242,-0.9318397045135498,0.999976634979248,0.4438636600971222,0.21451443433761597,-0.872967541217804,0.9999568462371826,0.45216187834739685,0.2129203975200653,-0.8731200695037842,0.9999499320983887,0.4597018361091614,0.21149104833602905,-0.8732181191444397,0.9999426603317261,0.41164350509643555,0.21689671277999878,-0.9058055877685547,0.9999617338180542,0.3934401869773865,0.21685534715652466,-0.9058997631072998,0.9999582767486572,0.374327689409256,0.21698525547981262,-0.9060544371604919,0.9999533891677856,0.45153939723968506,0.21844324469566345,-0.4993337392807007,0.9999525547027588,0.3241286277770996,0.22681525349617004,-0.6584668159484863,0.999971866607666,0.447126179933548,0.2602151930332184,-0.7887582778930664,0.9999872446060181,0.41230979561805725,0.263128399848938,-0.8340024948120117,0.9999914169311523,0.529288649559021,0.34940609335899353,-0.2227061241865158,0.9999178647994995,0.17427252233028412,0.3672522008419037,-0.5008926391601562,0.9998281002044678,0.5811143517494202,0.5070458054542542,0.03648632764816284,0.9749720692634583,0.12994202971458435,0.5126875638961792,-0.6866186857223511,0.9716018438339233,0.6443989872932434,0.6355881094932556,-0.22822129726409912,0.9726196527481079,0.21872465312480927,0.5589361190795898,-1.2062267065048218,0.9322707653045654,0.6634577512741089,0.6762359738349915,-0.3130955696105957,0.9544055461883545,0.25276368856430054,0.5727587342262268,-1.3283075094223022,0.913217306137085,0.6519299745559692,0.6749787926673889,-0.41125941276550293,0.9593409895896912,0.2628912031650543,0.5451087355613708,-1.3979036808013916,0.9186204671859741,0.6431401371955872,0.6662330031394958,-0.2724035680294037,0.9599376320838928,0.25675827264785767,0.5389683246612549,-1.2423654794692993,0.9046748876571655,0.48402440547943115,0.6275706887245178,0.10046668350696564,0.9978961944580078,0.31355389952659607,0.6498346328735352,-0.1000026986002922,0.9982761144638062,0.48278436064720154,0.8352903723716736,0.22297896444797516,0.9596201777458191,0.3432716131210327,0.8635318279266357,0.011758601292967796,0.9718204140663147,0.48772525787353516,0.9724244475364685,0.9777846932411194,0.8880853056907654,0.358428031206131,0.9916656613349915,0.6240424513816833,0.9023190140724182,0.4712357819080353,0.9825019240379333,1.031570315361023,0.8227332830429077,0.35408276319503784,0.9928327798843384,0.6692665815353394,0.6640022993087769,0.5434715747833252,1.0305514335632324,0.7208659052848816,0.817750096321106,0.375963419675827,1.0847463607788086,0.26347869634628296,0.7727264761924744
18047.306069083912,0.4372727870941162,0.23834288120269775,-0.8948418498039246,0.9999692440032959,0.44397905468940735,0.21402418613433838,-0.8340662717819214,0.9999428987503052,0.45251235365867615,0.2124267816543579,-0.8342621326446533,0.999934196472168,0.46033740043640137,0.21104168891906738,-0.8344010710716248,0.9999258518218994,0.411036878824234,0.2165265679359436,-0.8682786822319031,0.9999486207962036,0.3925352990627289,0.21652835607528687,-0.8683719635009766,0.9999442100524902,0.3734644055366516,0.21669462323188782,-0.8685440421104431,0.9999387264251709,0.452313631772995,0.21791765093803406,-0.4592660665512085,0.9999393224716187,0.3224104642868042,0.22635436058044434,-0.6237325668334961,0.999962568283081,0.4468802511692047,0.2602107524871826,-0.7515763640403748,0.9999842643737793,0.41121694445610046,0.2627371847629547,-0.7984369397163391,0.99998939037323,0.5293148756027222,0.349531352519989,-0.1946803331375122,0.9999096393585205,0.17210839688777924,0.3652108609676361,-0.46585485339164734,0.9997802376747131,0.584012508392334,0.5069531798362732,0.06099674478173256,0.9747059345245361,0.13539017736911774,0.513668954372406,-0.6361239552497864,0.9675760865211487,0.6445600390434265,0.6347917318344116,-0.20998713374137878,0.9716054201126099,0.2268936187028885,0.5628624558448792,-1.1457500457763672,0.9296778440475464,0.66452556848526,0.6761857271194458,-0.29840371012687683,0.9537659287452698,0.2598285377025604,0.5743093490600586,-1.2671581506729126,0.9117610454559326,0.6523993015289307,0.6754237413406372,-0.3956732153892517,0.9587998390197754,0.2696435749530792,0.5466004014015198,-1.3389889001846313,0.9177156090736389,0.6433688998222351,0.666704535484314,-0.2542112171649933,0.9595762491226196,0.26115089654922485,0.5408643484115601,-1.182382583618164,0.9032891392707825,0.4868086874485016,0.6277739405632019,0.09259592741727829,0.9974682331085205,0.3137379586696625,0.6497198343276978,-0.09210065752267838,0.9977256655693054,0.48451367020606995,0.8377463817596436,0.19613899290561676,0.9599083065986633,0.34086617827415466,0.8685417771339417,0.012500233948230743,0.9645317792892456,0.48713839054107666,0.9702193737030029,0.9898290038108826,0.8703844547271729,0.360506147146225,0.9914027452468872,0.6467801928520203,0.8783864378929138,0.47080808877944946,0.9781017303466797,1.0480303764343262,0.7878538966178894,0.357547789812088,0.9913613796234131,0.6946543455123901,0.6180171966552734,0.5363413095474243,1.0271503925323486,0.7395041584968567,0.7910071611404419,0.379071980714798,1.086419701576233,0.28833669424057007,0.7383573651313782
18063.97273575058,0.4382779896259308,0.23792393505573273,-0.8722385764122009,0.9999808073043823,0.44420698285102844,0.21476995944976807,-0.8127800226211548,0.9999642372131348,0.45277366042137146,0.21345147490501404,-0.8129634857177734,0.9999595880508423,0.46044811606407166,0.2122792899608612,-0.8130729794502258,0.9999542236328125,0.4115297794342041,0.21635347604751587,-0.8454623222351074,0.9999667406082153,0.3930981755256653,0.2159779965877533,-0.8455653786659241,0.9999634027481079,0.37413084506988525,0.21589773893356323,-0.8457059264183044,0.9999582767486572,0.45340192317962646,0.21926066279411316,-0.4496743679046631,0.9999613761901855,0.3240332007408142,0.22575795650482178,-0.6083540916442871,0.9999734163284302,0.44711950421333313,0.26006147265434265,-0.7341066598892212,0.9999891519546509,0.4119877517223358,0.26267075538635254,-0.779164731502533,0.9999921321868896,0.5278781652450562,0.3490343987941742,-0.20085032284259796,0.9999339580535889,0.1742931306362152,0.36882567405700684,-0.4596574604511261,0.9997979998588562,0.5829861164093018,0.5069693326950073,0.034346241503953934,0.9788171648979187,0.13201040029525757,0.5154954791069031,-0.646056592464447,0.9657383561134338,0.6447410583496094,0.634678840637207,-0.2312736213207245,0.9772826433181763,0.2264254242181778,0.560139536857605,-1.1511791944503784,0.9195873141288757,0.663700520992279,0.6752043962478638,-0.3164828419685364,0.9613153338432312,0.2610253691673279,0.5727983117103577,-1.2683157920837402,0.8997353911399841,0.6524251699447632,0.6742265820503235,-0.4108200967311859,0.9656366109848022,0.27188968658447266,0.545661449432373,-1.3341504335403442,0.9055960774421692,0.6435373425483704,0.6655644774436951,-0.2736647129058838,0.9660327434539795,0.2651604115962982,0.539539635181427,-1.1856046915054321,0.891579270362854,0.4863554835319519,0.6277617812156677,0.0961051806807518,0.9978087544441223,0.3169354200363159,0.6506446599960327,-0.09563657641410828,0.998040497303009,0.4844024181365967,0.836473286151886,0.20194821059703827,0.9548885226249695,0.344634473323822,0.8660299181938171,-0.00461916346102953,0.9678537249565125,0.48844680190086365,0.9704180955886841,0.9219031929969788,0.8810175061225891,0.3576623201370239,0.9905961751937866,0.5777148604393005,0.8924744129180908,0.47124341130256653,0.9798369407653809,0.9728217124938965,0.8126766085624695,0.3541660010814667,0.9906827807426453,0.6201158165931702,0.6354115605354309,0.5469769239425659,1.0245728492736816,0.6733711361885071,0.8093922734260559,0.37881630659103394,1.085758924484253,0.2244054079055786,0.7552306652069092
18080.639402417248,0.44167041778564453,0.23541158437728882,-0.8629162311553955,0.9999622106552124,0.44628921151161194,0.21237939596176147,-0.8015034794807434,0.9999295473098755,0.4541760981082916,0.2110217809677124,-0.8016809225082397,0.9999210834503174,0.4614201486110687,0.20985016226768494,-0.8018079996109009,0.999911904335022,0.41484132409095764,0.213839590549469,-0.8379471898078918,0.9999357461929321,0.39733999967575073,0.21353286504745483,-0.8380278944969177,0.999930739402771,0.3781239688396454,0.2135128676891327,-0.8381876349449158,0.9999223947525024,0.451504647731781,0.21731576323509216,-0.4335066080093384,0.9999262094497681,0.32494884729385376,0.2241325080394745,-0.6082194447517395,0.9999493360519409,0.4493969976902008,0.2575027346611023,-0.7231231331825256,0.9999799728393555,0.4158732295036316,0.26031818985939026,-0.7728827595710754,0.9999855756759644,0.5262405872344971,0.3482745587825775,-0.17956624925136566,0.9999029636383057,0.1765112578868866,0.36730167269706726,-0.46271684765815735,0.9997033476829529,0.5823860168457031,0.506703794002533,0.08269552886486053,0.9729633927345276,0.1320667415857315,0.5137435793876648,-0.6432012319564819,0.9614580273628235,0.6441319584846497,0.6343984007835388,-0.16396211087703705,0.9705666899681091,0.22565148770809174,0.5588287115097046,-1.1401835680007935,0.9126593470573425,0.6637144088745117,0.6751784086227417,-0.24545910954475403,0.9521176815032959,0.2570582628250122,0.5723884105682373,-1.259182095527649,0.8930379152297974,0.6520131826400757,0.6743841767311096,-0.34070292115211487,0.957415759563446,0.2664725184440613,0.5444868803024292,-1.3258094787597656,0.8994281888008118,0.6427123546600342,0.6658594012260437,-0.20651446282863617,0.9580928683280945,0.2603932023048401,0.5380734205245972,-1.1748127937316895,0.88250732421875,0.486011803150177,0.6286081671714783,0.09909991174936295,0.9978777170181274,0.31460925936698914,0.6507713794708252,-0.09864937514066696,0.9979236125946045,0.48397260904312134,0.8351621627807617,0.19431473314762115,0.9588124752044678,0.3428283929824829,0.8650064468383789,0.010820956900715828,0.9636786580085754,0.488178014755249,0.9685823917388916,0.9750915169715881,0.8779751062393188,0.35711950063705444,0.985156238079071,0.6536790728569031,0.8803012371063232,0.47214803099632263,0.9768819212913513,1.0323854684829712,0.7889537811279297,0.3512266278266907,0.9845583438873291,0.7026861310005188,0.6115911602973938,0.5419866442680359,1.0262842178344727,0.7244926691055298,0.8035121560096741,0.3794153034687042,1.0823763608932495,0.30226898193359375,0.7444055080413818
18097.306069083916,0.44231343269348145,0.23547610640525818,-0.8729570508003235,0.9999834299087524,0.446298211812973,0.21223494410514832,-0.812649667263031,0.9999686479568481,0.45405539870262146,0.21076592803001404,-0.8128204941749573,0.9999643564224243,0.4611492156982422,0.20948940515518188,-0.8129026889801025,0.9999592304229736,0.4147847890853882,0.21390920877456665,-0.8480193614959717,0.9999722242355347,0.39725902676582336,0.21360331773757935,-0.848116934299469,0.9999699592590332,0.3778996467590332,0.21351730823516846,-0.8482699990272522,0.9999663829803467,0.451279878616333,0.21649962663650513,-0.4488755166530609,0.9999662637710571,0.3256281018257141,0.22387513518333435,-0.6182371973991394,0.99997878074646,0.45050451159477234,0.2570588290691376,-0.7348189949989319,0.9999911785125732,0.41582807898521423,0.26039645075798035,-0.7829198837280273,0.9999940395355225,0.5298221111297607,0.3481906056404114,-0.19441324472427368,0.9999319314956665,0.17463143169879913,0.37000301480293274,-0.4800401031970978,0.9998362064361572,0.5813207626342773,0.5081045031547546,0.05305042490363121,0.9780203700065613,0.13432981073856354,0.517865777015686,-0.6649652719497681,0.9732793569564819,0.6447761058807373,0.6367276310920715,-0.21413211524486542,0.9775514006614685,0.2320704162120819,0.5626121759414673,-1.1685245037078857,0.9442490935325623,0.6646541357040405,0.6765387058258057,-0.3001273572444916,0.9627913236618042,0.2646334767341614,0.573638379573822,-1.2886730432510376,0.92927485704422,0.6535977125167847,0.6753798723220825,-0.395160049200058,0.9669165015220642,0.27184948325157166,0.5451360940933228,-1.3553142547607422,0.9336245059967041,0.6445860862731934,0.6672000885009766,-0.25715693831443787,0.9675653576850891,0.26475900411605835,0.5388731956481934,-1.2029306888580322,0.9212363958358765,0.48775872588157654,0.6290449500083923,0.10521560907363892,0.997621476650238,0.31821000576019287,0.6529783606529236,-0.10473883152008057,0.9980313181877136,0.48582497239112854,0.8346660137176514,0.21894490718841553,0.9612481594085693,0.3459463119506836,0.8712825775146484,-0.006600597407668829,0.9739885926246643,0.4911898672580719,0.9695655107498169,0.9661221504211426,0.8939666152000427,0.36167120933532715,0.9919471144676208,0.5843396782875061,0.9086323976516724,0.4752492308616638,0.9786293506622314,1.0200568437576294,0.8285966515541077,0.35800427198410034,0.9917178750038147,0.6280382871627808,0.6754427552223206,0.5501492619514465,1.0276962518692017,0.7251971364021301,0.8295376300811768,0.3941792845726013,1.0925583839416504,0.23140129446983337,0.7821186184883118
18113.972735750584,0.44040900468826294,0.23441141843795776,-0.907069742679596,0.9999827146530151,0.44527536630630493,0.21050214767456055,-0.8503898978233337,0.9999661445617676,0.45355290174484253,0.20903229713439941,-0.850543200969696,0.9999613761901855,0.4610432982444763,0.2078348994255066,-0.8506410717964172,0.9999552965164185,0.4125010073184967,0.21232610940933228,-0.8836861848831177,0.9999710321426392,0.3942470848560333,0.21209266781806946,-0.8837857246398926,0.9999688863754272,0.3751543462276459,0.2122614085674286,-0.8839361071586609,0.9999655485153198,0.4529435634613037,0.2156589925289154,-0.49333199858665466,0.9999642372131348,0.3235473334789276,0.22348478436470032,-0.6528546810150146,0.9999791383743286,0.45005327463150024,0.255807489156723,-0.7699973583221436,0.9999905824661255,0.4143217206001282,0.2589966952800751,-0.815349280834198,0.9999938011169434,0.5326986908912659,0.3482016623020172,-0.2345316857099533,0.9999246597290039,0.1727556735277176,0.3689641058444977,-0.5011810064315796,0.9998492002487183,0.5821267366409302,0.5094302892684937,0.029646823182702065,0.9761384725570679,0.1309683471918106,0.5163832902908325,-0.6663399934768677,0.9745368957519531,0.6448841094970703,0.6362322568893433,-0.21166934072971344,0.9722027778625488,0.23846550285816193,0.5630577206611633,-1.1489388942718506,0.9435083270072937,0.6655987501144409,0.6762457489967346,-0.29338449239730835,0.9545378088951111,0.27420327067375183,0.575417160987854,-1.2652206420898438,0.9265857934951782,0.6547061204910278,0.6753668785095215,-0.38892441987991333,0.9593347311019897,0.2826154828071594,0.5485546588897705,-1.3328723907470703,0.9308925867080688,0.6455003619194031,0.6667192578315735,-0.2543647289276123,0.9609365463256836,0.2735530734062195,0.5418581962585449,-1.1832208633422852,0.9186948537826538,0.48784658312797546,0.6266831755638123,0.08752115815877914,0.9978048205375671,0.31378868222236633,0.6498412489891052,-0.08705355226993561,0.9982271790504456,0.48331934213638306,0.8349624276161194,0.2007051259279251,0.9689151644706726,0.3425385355949402,0.8655301928520203,0.020701896399259567,0.9752781391143799,0.4895126521587372,0.9726898074150085,0.9495695233345032,0.9084619879722595,0.36128342151641846,0.9928388595581055,0.6185381412506104,0.9152135848999023,0.47360047698020935,0.9823437929153442,1.0032899379730225,0.8335807919502258,0.3617956340312958,0.9944337010383606,0.6629219651222229,0.6891672015190125,0.5628423690795898,1.0407624244689941,0.7014663815498352,0.8417003750801086,0.38328176736831665,1.0896580219268799,0.26800763607025146,0.7976064682006836
18130.63940241725,0.4392092823982239,0.23589244484901428,-0.8827828764915466,0.999975323677063,0.4441820979118347,0.21295559406280518,-0.820993959903717,0.9999542236328125,0.45238634943962097,0.2116774022579193,-0.8211859464645386,0.9999479055404663,0.4598657786846161,0.21062502264976501,-0.8213205933570862,0.9999420642852783,0.4115804135799408,0.21431809663772583,-0.8555881977081299,0.9999579191207886,0.3935861587524414,0.21389111876487732,-0.8556649088859558,0.9999536275863647,0.37448811531066895,0.21381956338882446,-0.8558182716369629,0.9999483823776245,0.45118778944015503,0.21796777844429016,-0.4481586217880249,0.9999517202377319,0.32398131489753723,0.22416850924491882,-0.6149200201034546,0.9999657869338989,0.44754770398139954,0.2577953636646271,-0.7409979104995728,0.9999865293502808,0.4130805432796478,0.2605375349521637,-0.7885755896568298,0.9999902248382568,0.5270788669586182,0.3489586114883423,-0.1955956071615219,0.9999191761016846,0.17386917769908905,0.36729198694229126,-0.45327863097190857,0.9997394680976868,0.5840901732444763,0.5074834823608398,0.05775195732712746,0.9777611494064331,0.1330074667930603,0.5134332180023193,-0.6344746947288513,0.9602198004722595,0.6450018882751465,0.6348733901977539,-0.2042005956172943,0.9753168821334839,0.22669564187526703,0.5603261590003967,-1.1568762063980103,0.9222123026847839,0.6646173000335693,0.6754308938980103,-0.2906820476055145,0.9585862159729004,0.25886234641075134,0.5735873579978943,-1.2786208391189575,0.9043535590171814,0.652100145816803,0.6744347214698792,-0.38730570673942566,0.9630587697029114,0.26843005418777466,0.5466347336769104,-1.3473906517028809,0.9101377725601196,0.6429517269134521,0.665847897529602,-0.2474290132522583,0.9635152220726013,0.2615828812122345,0.5402809977531433,-1.1925748586654663,0.8939633369445801,0.48650917410850525,0.6275640726089478,0.08503210544586182,0.9979249238967896,0.313663125038147,0.6509715914726257,-0.084603451192379,0.9979956150054932,0.48310813307762146,0.8358643054962158,0.18449757993221283,0.9649599194526672,0.3428608477115631,0.8654764294624329,0.01744784228503704,0.9655733704566956,0.4889615774154663,0.9701598882675171,0.9667813181877136,0.8915685415267944,0.36222943663597107,0.9899159669876099,0.646925151348114,0.892124354839325,0.47456780076026917,0.9786275029182434,1.0234876871109009,0.8045000433921814,0.3606191575527191,0.9894401431083679,0.694149911403656,0.632359504699707,0.5404801964759827,1.0252867937088013,0.7113720178604126,0.8193663358688354,0.37618488073349,1.0849498510360718,0.2908768653869629,0.7675027251243591
18147.30606908392,0.43734270334243774,0.23494645953178406,-0.8951071500778198,0.9999802112579346,0.4426004886627197,0.21156662702560425,-0.8355439901351929,0.9999616146087646,0.4507206976413727,0.2101726531982422,-0.8356884717941284,0.9999566078186035,0.45828333497047424,0.20890220999717712,-0.8357717394828796,0.9999504089355469,0.4104742407798767,0.2133283019065857,-0.8678759336471558,0.9999661445617676,0.39243441820144653,0.21303975582122803,-0.8679303526878357,0.999963641166687,0.3736155331134796,0.21302369236946106,-0.8680456876754761,0.9999592304229736,0.4504140019416809,0.2167741060256958,-0.47299107909202576,0.9999574422836304,0.3222510814666748,0.22383806109428406,-0.629411518573761,0.9999734163284302,0.4463859498500824,0.2571532428264618,-0.7576149702072144,0.999988317489624,0.4116060137748718,0.26015108823776245,-0.8019900918006897,0.9999921321868896,0.5279449224472046,0.3482220470905304,-0.22449225187301636,0.9999212026596069,0.1734314113855362,0.36780881881713867,-0.4749273955821991,0.999800980091095,0.5840069651603699,0.5057691335678101,0.03260355815291405,0.9762836694717407,0.12941184639930725,0.5139325261116028,-0.6447932124137878,0.968898594379425,0.6442207098007202,0.6330276131629944,-0.2110065221786499,0.972732424736023,0.23280999064445496,0.5606479048728943,-1.1299344301223755,0.9224650859832764,0.6654490232467651,0.6730591058731079,-0.29417359828948975,0.9543730616569519,0.26648563146591187,0.5735626816749573,-1.246840238571167,0.9008355140686035,0.6540725231170654,0.6728625297546387,-0.3888605833053589,0.9591659307479858,0.2766537368297577,0.5470497012138367,-1.313555121421814,0.9061649441719055,0.6446601748466492,0.6643338799476624,-0.25343772768974304,0.9601336717605591,0.26875361800193787,0.5407612323760986,-1.164326786994934,0.8918808698654175,0.48680827021598816,0.6269108653068542,0.085752934217453,0.9980227947235107,0.3140967786312103,0.6497488021850586,-0.0852707251906395,0.9982655644416809,0.48314833641052246,0.8320120573043823,0.2311946451663971,0.9665957689285278,0.33998745679855347,0.8600242137908936,0.04748786240816116,0.9748650789260864,0.4880792796611786,0.9664472937583923,0.9681227803230286,0.9077654480934143,0.35738301277160645,0.9863525629043579,0.6476736068725586,0.910336434841156,0.47210362553596497,0.9762009382247925,1.0206934213638306,0.8310473561286926,0.35426801443099976,0.9872171878814697,0.692335844039917,0.6817400455474854,0.5427271127700806,1.0225080251693726,0.7161880731582642,0.8435207605361938,0.37969645857810974,1.0785772800445557,0.3017733693122864,0.7923811674118042
18163.972735750587,0.4362310469150543,0.2357269823551178,-0.8767058849334717,0.9999746084213257,0.44182446599006653,0.21336928009986877,-0.8161032795906067,0.9999510049819946,0.4501057267189026,0.2123987376689911,-0.8162499070167542,0.999944806098938,0.4577675759792328,0.2114483118057251,-0.8163328170776367,0.9999364614486694,0.4095725417137146,0.21406978368759155,-0.8484737277030945,0.9999568462371826,0.39169296622276306,0.21339398622512817,-0.8485487699508667,0.999954104423523,0.3731362223625183,0.21302509307861328,-0.8486874103546143,0.9999483823776245,0.450549840927124,0.21876487135887146,-0.45380914211273193,0.9999462366104126,0.3235483467578888,0.22318997979164124,-0.6099423766136169,0.9999666213989258,0.4446397125720978,0.25858962535858154,-0.7398344874382019,0.9999858140945435,0.4105323255062103,0.2606741487979889,-0.784065306186676,0.9999903440475464,0.5276442766189575,0.34737879037857056,-0.20210959017276764,0.9999102354049683,0.1753968745470047,0.3692407011985779,-0.4669477939605713,0.9997703433036804,0.5835087299346924,0.5052506923675537,0.05781519412994385,0.9779819846153259,0.13168048858642578,0.5154752731323242,-0.6491251587867737,0.9692577719688416,0.6463890075683594,0.6353713870048523,-0.18161405622959137,0.9741112589836121,0.23295779526233673,0.5622805953025818,-1.1448893547058105,0.926497220993042,0.6664552688598633,0.6751928329467773,-0.26229193806648254,0.9563867449760437,0.2664901614189148,0.5743489265441895,-1.2624143362045288,0.9059404134750366,0.6551337242126465,0.6746957898139954,-0.35611361265182495,0.9611033201217651,0.2756463885307312,0.5466914176940918,-1.32743501663208,0.9114862084388733,0.6457617282867432,0.6662799119949341,-0.2234773337841034,0.9622194766998291,0.2680109143257141,0.5401519536972046,-1.1787770986557007,0.8978866934776306,0.48740145564079285,0.6285544633865356,0.09507535398006439,0.998121440410614,0.31305667757987976,0.6522497534751892,-0.09453687816858292,0.9983137845993042,0.4858686923980713,0.8341359496116638,0.1838705688714981,0.967307984828949,0.344760924577713,0.8674431443214417,0.015585500746965408,0.9735177755355835,0.4892140328884125,0.9685445427894592,0.9474664926528931,0.9010640382766724,0.3560408055782318,0.9854374527931213,0.6462768912315369,0.9052724838256836,0.4714934825897217,0.9773722290992737,1.0026144981384277,0.8255354762077332,0.3507198393344879,0.985104501247406,0.6938506364822388,0.6649753451347351,0.5446811318397522,1.026305913925171,0.6967723965644836,0.8277214765548706,0.37762442231178284,1.0796480178833008,0.2989506423473358,0.7755554914474487
18180.639402417255,0.4379972517490387,0.23440000414848328,-0.8889740109443665,0.999974250793457,0.44287753105163574,0.21197402477264404,-0.8296082615852356,0.9999489784240723,0.4510459899902344,0.21087968349456787,-0.8297479748725891,0.9999425411224365,0.45868346095085144,0.20979535579681396,-0.8298044204711914,0.9999339580535889,0.41063445806503296,0.2130889892578125,-0.8640856742858887,0.9999566078186035,0.39311498403549194,0.21277418732643127,-0.8641802072525024,0.9999542236328125,0.37488681077957153,0.2127378284931183,-0.8643279671669006,0.9999487400054932,0.4509488642215729,0.21717873215675354,-0.470982164144516,0.9999423027038574,0.32431086897850037,0.2230164110660553,-0.6369532942771912,0.9999656677246094,0.44645339250564575,0.2569509446620941,-0.7532235383987427,0.9999850988388062,0.41301771998405457,0.25943174958229065,-0.8003531098365784,0.9999902248382568,0.5293036699295044,0.34788429737091064,-0.2230147123336792,0.9998970031738281,0.17305327951908112,0.3687519133090973,-0.49485594034194946,0.9997826218605042,0.5841274261474609,0.5062692165374756,0.0414610430598259,0.9759648442268372,0.13060976564884186,0.5124047994613647,-0.6631436347961426,0.9720218777656555,0.6464332342147827,0.6360175013542175,-0.19089524447917938,0.9721598625183105,0.2340652346611023,0.5626987814903259,-1.1352884769439697,0.9299147129058838,0.6653119325637817,0.6763529181480408,-0.2711954712867737,0.9530686140060425,0.2656509578227997,0.5759791135787964,-1.251051664352417,0.909634530544281,0.654680609703064,0.6755414009094238,-0.36465734243392944,0.9580672383308411,0.278251975774765,0.5497714281082153,-1.317022442817688,0.9149460792541504,0.6460222005844116,0.6669290661811829,-0.23256199061870575,0.9593801498413086,0.27109280228614807,0.5429074168205261,-1.1690959930419922,0.9017506241798401,0.48767924308776855,0.6284912824630737,0.09481801092624664,0.9976412057876587,0.313963919878006,0.6531360745429993,-0.09431550651788712,0.9980738162994385,0.48588553071022034,0.829629123210907,0.23448701202869415,0.966375470161438,0.34578099846839905,0.8674660921096802,0.03545502945780754,0.9751429557800293,0.4911116063594818,0.9670933485031128,1.0010613203048706,0.9024282097816467,0.3598879277706146,0.9876289367675781,0.6567176580429077,0.9093031287193298,0.47476673126220703,0.9765499830245972,1.057412028312683,0.8305065035820007,0.36536818742752075,1.014349341392517,0.7038087844848633,0.6770793199539185,0.5432707071304321,1.027734637260437,0.7600250840187073,0.839097261428833,0.3925405442714691,1.0819777250289917,0.3111390173435211,0.7855201363563538
18197.306069083923,0.43639445304870605,0.23333203792572021,-0.9428731203079224,0.9999842643737793,0.44144225120544434,0.21054959297180176,-0.884080708026886,0.999969482421875,0.45000481605529785,0.20953094959259033,-0.8842105865478516,0.9999661445617676,0.45791059732437134,0.20846346020698547,-0.8842905759811401,0.9999611377716064,0.4089994728565216,0.2118573784828186,-0.9162797331809998,0.9999730587005615,0.3910937011241913,0.21203207969665527,-0.9163856506347656,0.9999713897705078,0.37278512120246887,0.21235600113868713,-0.9164914488792419,0.9999674558639526,0.45062777400016785,0.21607467532157898,-0.5247003436088562,0.9999661445617676,0.32276618480682373,0.22301194071769714,-0.6801237463951111,0.9999781847000122,0.44413119554519653,0.2562575042247772,-0.806786835193634,0.9999908208847046,0.41019123792648315,0.2589224874973297,-0.8508096933364868,0.9999935626983643,0.5276186466217041,0.34698715806007385,-0.27606722712516785,0.9999196529388428,0.17167237401008606,0.3683197498321533,-0.5336397290229797,0.999822199344635,0.585736870765686,0.5073726773262024,-0.026824072003364563,0.9761775732040405,0.1327190101146698,0.5142766237258911,-0.6932688355445862,0.9746979475021362,0.644487738609314,0.6351250410079956,-0.26928409934043884,0.9715443253517151,0.2397904098033905,0.5640299320220947,-1.1492094993591309,0.9303712844848633,0.6654050350189209,0.676030695438385,-0.35224640369415283,0.9518253207206726,0.27844783663749695,0.5731161832809448,-1.2653554677963257,0.9082950353622437,0.6547143459320068,0.6754648089408875,-0.44648030400276184,0.956873893737793,0.28703197836875916,0.5481960773468018,-1.3275127410888672,0.9129316806793213,0.6451648473739624,0.666427493095398,-0.3114558756351471,0.9581938982009888,0.2772180140018463,0.5424641966819763,-1.1816673278808594,0.8997184038162231,0.48569926619529724,0.6274389028549194,0.0946107879281044,0.9976485371589661,0.31198182702064514,0.6520546078681946,-0.09417540580034256,0.9980953335762024,0.4841398298740387,0.836522102355957,0.27083197236061096,0.9620711207389832,0.34466981887817383,0.8693839311599731,0.053527284413576126,0.9795503616333008,0.49095574021339417,0.9702685475349426,1.0194603204727173,0.9064819812774658,0.36030516028404236,0.9911920428276062,0.6595543026924133,0.9235290288925171,0.4732057750225067,0.9796128869056702,1.0740164518356323,0.8421923518180847,0.3546043336391449,0.9914019703865051,0.7052437663078308,0.7087271809577942,0.5443772077560425,1.0306663513183594,0.7823811769485474,0.8540895581245422,0.3986075222492218,1.0857114791870117,0.3190021514892578,0.8153597712516785
18213.97273575059,0.43878790736198425,0.23431181907653809,-0.9076030254364014,0.999975323677063,0.4434221088886261,0.21080255508422852,-0.845628559589386,0.9999545812606812,0.45152100920677185,0.20950618386268616,-0.845772922039032,0.9999475479125977,0.4589088261127472,0.20847296714782715,-0.8458316326141357,0.9999406337738037,0.41105231642723083,0.21219000220298767,-0.8798477053642273,0.9999605417251587,0.39360925555229187,0.2120310664176941,-0.8799124360084534,0.9999570846557617,0.37462884187698364,0.2123640477657318,-0.8800559639930725,0.999951958656311,0.44954416155815125,0.21643319725990295,-0.477527379989624,0.9999493360519409,0.3220705986022949,0.2232397496700287,-0.6426522135734558,0.9999690055847168,0.44713181257247925,0.2561936378479004,-0.769267737865448,0.9999864101409912,0.4126531481742859,0.2586584985256195,-0.8161138296127319,0.9999908208847046,0.5269582271575928,0.34890949726104736,-0.22581815719604492,0.9999078512191772,0.17695455253124237,0.36530667543411255,-0.4953347146511078,0.9997971653938293,0.5847167372703552,0.5082989931106567,0.026886647567152977,0.9766489863395691,0.13110432028770447,0.5136304497718811,-0.6814437508583069,0.9715808629989624,0.6453275084495544,0.6350619792938232,-0.23297078907489777,0.9754029512405396,0.2205541729927063,0.5611377954483032,-1.194739818572998,0.9354513883590698,0.6667562127113342,0.6764575242996216,-0.32027605175971985,0.9580204486846924,0.25552791357040405,0.5740914940834045,-1.317752480506897,0.9169502854347229,0.6549943685531616,0.6763120889663696,-0.415549635887146,0.9623449444770813,0.2670523524284363,0.5467191338539124,-1.3877207040786743,0.9218503832817078,0.6455420255661011,0.6677624583244324,-0.27608156204223633,0.9629437923431396,0.25927862524986267,0.5406118035316467,-1.2313523292541504,0.9093844890594482,0.48774829506874084,0.6274235844612122,0.0978945642709732,0.9979698061943054,0.31684738397598267,0.6512293815612793,-0.0973818451166153,0.9983591437339783,0.48648563027381897,0.8311415314674377,0.2521916627883911,0.9614212512969971,0.3439289331436157,0.8634653091430664,0.043622761964797974,0.9736637473106384,0.48955923318862915,0.9676477313041687,1.0197343826293945,0.8870305418968201,0.35976892709732056,0.9878243803977966,0.6685634255409241,0.9007891416549683,0.4713139235973358,0.9773759841918945,1.075122356414795,0.8195266127586365,0.3561873733997345,0.988718569278717,0.7155192494392395,0.676772952079773,0.5642685890197754,1.0321223735809326,0.7732277512550354,0.8164201974868774,0.38243016600608826,1.076369047164917,0.32148972153663635,0.7700892686843872
18230.63940241726,0.4350578784942627,0.2340342402458191,-0.9118247032165527,0.9999765157699585,0.43972155451774597,0.21082580089569092,-0.8540091514587402,0.9999563694000244,0.448356032371521,0.20950216054916382,-0.8541731834411621,0.9999514818191528,0.4563022553920746,0.20828047394752502,-0.8542917966842651,0.9999445676803589,0.40762537717819214,0.2123185098171234,-0.8845184445381165,0.9999605417251587,0.38968271017074585,0.2119293510913849,-0.8846098184585571,0.9999575614929199,0.37141719460487366,0.21192196011543274,-0.8847546577453613,0.9999518394470215,0.44983935356140137,0.21598339080810547,-0.49406394362449646,0.9999544620513916,0.3214177191257477,0.2226015329360962,-0.6415050029754639,0.9999703168869019,0.4448713958263397,0.2567974925041199,-0.7745404839515686,0.9999871253967285,0.4103884696960449,0.25958526134490967,-0.816341757774353,0.999990701675415,0.5293862223625183,0.3479706346988678,-0.23801076412200928,0.9999159574508667,0.1734876036643982,0.36938855051994324,-0.48638924956321716,0.9997854828834534,0.5832093954086304,0.5041512250900269,0.010244176723062992,0.9771308898925781,0.13238437473773956,0.5123318433761597,-0.6513212323188782,0.9683414101600647,0.6441720724105835,0.6339775323867798,-0.24169258773326874,0.9719011187553406,0.23925387859344482,0.5618904829025269,-1.135347843170166,0.918359637260437,0.6634013652801514,0.6751537322998047,-0.3263203799724579,0.9526104927062988,0.27272462844848633,0.5742079019546509,-1.250867247581482,0.8959688544273376,0.6524671912193298,0.6741767525672913,-0.420511931180954,0.9577525854110718,0.28277862071990967,0.5473211407661438,-1.3189507722854614,0.902165412902832,0.6434003114700317,0.6650285720825195,-0.28396230936050415,0.9588017463684082,0.27441462874412537,0.5404657125473022,-1.1702072620391846,0.8888082504272461,0.48791077733039856,0.6247096657752991,0.08615541458129883,0.9974695444107056,0.3147958815097809,0.6491197347640991,-0.08563932776451111,0.9978563189506531,0.48366767168045044,0.8355926871299744,0.19428202509880066,0.9582951068878174,0.3441673815250397,0.8673624992370605,0.01246864628046751,0.9674921631813049,0.49070262908935547,0.9742512106895447,0.912858784198761,0.8787453770637512,0.3587345480918884,0.9920576214790344,0.5928835868835449,0.8832882642745972,0.47464028000831604,0.9819701910018921,0.9628738760948181,0.7943996787071228,0.35434797406196594,0.9914125800132751,0.6349484324455261,0.6184074282646179,0.5631449222564697,1.0442208051681519,0.6523931622505188,0.7908545136451721,0.37636715173721313,1.0887606143951416,0.23560278117656708,0.7338967323303223
18247.306069083927,0.4352560043334961,0.23300817608833313,-0.9003444314002991,0.9999802112579346,0.43952250480651855,0.20967119932174683,-0.8415068984031677,0.9999622106552124,0.4481309652328491,0.20823884010314941,-0.8416587114334106,0.9999579191207886,0.45599862933158875,0.20694968104362488,-0.8417436480522156,0.9999513626098633,0.4071086645126343,0.21152913570404053,-0.8710475564002991,0.9999663829803467,0.3888873755931854,0.2112981379032135,-0.8711274862289429,0.9999643564224243,0.37078866362571716,0.21150356531143188,-0.8712520599365234,0.9999593496322632,0.4492642283439636,0.21501398086547852,-0.48321256041526794,0.9999593496322632,0.3209676444530487,0.222915917634964,-0.6262416839599609,0.9999747276306152,0.44556450843811035,0.2555145025253296,-0.764826238155365,0.9999889135360718,0.4108269214630127,0.25846800208091736,-0.8052489161491394,0.9999922513961792,0.5291712284088135,0.3478327989578247,-0.22957703471183777,0.9999212026596069,0.17566388845443726,0.3691280484199524,-0.4813171327114105,0.9998196959495544,0.5837811231613159,0.5042147636413574,0.0183088518679142,0.9782838821411133,0.13113875687122345,0.5134902596473694,-0.6548933386802673,0.9735502004623413,0.6443148255348206,0.6341426372528076,-0.2334875762462616,0.9747557044029236,0.23582319915294647,0.5610138773918152,-1.144842505455017,0.9304850101470947,0.6642337441444397,0.6752175092697144,-0.31808745861053467,0.957115888595581,0.27264150977134705,0.572721004486084,-1.2620981931686401,0.9094679951667786,0.6532618999481201,0.6742293238639832,-0.41132494807243347,0.9616756439208984,0.2809792160987854,0.5456271767616272,-1.3282681703567505,0.9144816398620605,0.6439050436019897,0.6652233600616455,-0.27544230222702026,0.9626041650772095,0.27184098958969116,0.539372444152832,-1.17926025390625,0.9021666646003723,0.48910069465637207,0.6257110834121704,0.09472489356994629,0.9977542757987976,0.3169745206832886,0.6493513584136963,-0.09420577436685562,0.9981613755226135,0.4850318729877472,0.8348687291145325,0.23419064283370972,0.9584342837333679,0.34491536021232605,0.863118052482605,0.025839993730187416,0.9742600321769714,0.49046507477760315,0.9721536040306091,0.9548251628875732,0.8849608898162842,0.3585263192653656,0.9900164604187012,0.6077003479003906,0.8969396352767944,0.4726957082748413,0.9807236194610596,1.0055545568466187,0.8118488192558289,0.3521772623062134,0.9892032146453857,0.6504795551300049,0.6544181704521179,0.5686254501342773,1.037635087966919,0.7046159505844116,0.806527853012085,0.38306769728660583,1.0833544731140137,0.2584846317768097,0.7544335126876831
18263.972735750594,0.43468913435935974,0.23040100932121277,-0.92062908411026,0.9999903440475464,0.4401545822620392,0.20773670077323914,-0.8621428608894348,0.9999812841415405,0.4487168788909912,0.2066868543624878,-0.8622545003890991,0.9999794960021973,0.4569682478904724,0.20570749044418335,-0.8622973561286926,0.999976396560669,0.40732502937316895,0.20890387892723083,-0.8948496580123901,0.9999837875366211,0.38941216468811035,0.2089729905128479,-0.8949530720710754,0.9999825954437256,0.3717951476573944,0.2093338668346405,-0.895065426826477,0.9999798536300659,0.44993796944618225,0.2136620581150055,-0.5103851556777954,0.9999806880950928,0.32221588492393494,0.22070518136024475,-0.6680218577384949,0.9999860525131226,0.44237810373306274,0.25387001037597656,-0.7881420850753784,0.9999940395355225,0.4074578285217285,0.2560967803001404,-0.832871675491333,0.9999957084655762,0.5302675366401672,0.348145991563797,-0.2770974636077881,0.9999336004257202,0.17113566398620605,0.3659916818141937,-0.5244745016098022,0.999850869178772,0.582874596118927,0.504993736743927,-0.04400651901960373,0.9825614094734192,0.13379177451133728,0.5120768547058105,-0.701631486415863,0.97499018907547,0.6431363821029663,0.6331889629364014,-0.2929132282733917,0.9797791242599487,0.23541691899299622,0.5603179335594177,-1.1837735176086426,0.9400915503501892,0.6631276607513428,0.67482990026474,-0.3772021532058716,0.9636712670326233,0.2661455273628235,0.5717875361442566,-1.3012515306472778,0.9210666418075562,0.6528155207633972,0.6736662983894348,-0.4718441069126129,0.9675540924072266,0.27644553780555725,0.5478538274765015,-1.366860270500183,0.925177276134491,0.6439032554626465,0.6642507910728455,-0.33522480726242065,0.9680144786834717,0.26964306831359863,0.5411966443061829,-1.218353271484375,0.9133815169334412,0.48706281185150146,0.623120903968811,0.08436886221170425,0.9974660873413086,0.309899240732193,0.6474602818489075,-0.08387293666601181,0.998210072517395,0.4836863577365875,0.833514928817749,0.2556920051574707,0.9731104373931885,0.3437225818634033,0.8605775833129883,0.04838470742106438,0.9831489324569702,0.4908953309059143,0.9714721441268921,0.9524582028388977,0.9280176758766174,0.3586766719818115,0.9925277233123779,0.6077322363853455,0.9369227886199951,0.4736407995223999,0.9810198545455933,1.0005096197128296,0.8637209534645081,0.35753393173217773,0.992996871471405,0.647242546081543,0.7326318025588989,0.5661479234695435,1.0335463285446167,0.7007659077644348,0.8792631030082703,0.38570964336395264,1.0873584747314453,0.25745680928230286,0.838283896446228
18280.639402417262,0.43533480167388916,0.23477894067764282,-0.875872790813446,0.9999856948852539,0.440596342086792,0.21187373995780945,-0.8159146904945374,0.9999738931655884,0.4489685297012329,0.21073073148727417,-0.8160887956619263,0.9999701976776123,0.4568021595478058,0.20962625741958618,-0.8161548972129822,0.9999657869338989,0.40830525755882263,0.21308448910713196,-0.8457557559013367,0.999976634979248,0.3904581367969513,0.21273329854011536,-0.8458477854728699,0.9999747276306152,0.37212735414505005,0.21263188123703003,-0.8459898233413696,0.9999719858169556,0.4499053955078125,0.21706023812294006,-0.4571186304092407,0.999971866607666,0.32187700271606445,0.22262588143348694,-0.6012576818466187,0.9999825954437256,0.44384312629699707,0.25765660405158997,-0.740742564201355,0.9999923706054688,0.40936994552612305,0.2603766918182373,-0.7814764380455017,0.9999947547912598,0.5299679040908813,0.3486127257347107,-0.21347372233867645,0.9999303817749023,0.170237198472023,0.36966022849082947,-0.4619597792625427,0.9998540878295898,0.5808205008506775,0.5060403943061829,0.01559488382190466,0.9760379791259766,0.13210391998291016,0.5135283470153809,-0.6541263461112976,0.9726210832595825,0.6430740356445312,0.634202778339386,-0.2555696964263916,0.9730982184410095,0.2251983880996704,0.5577400326728821,-1.1766722202301025,0.9372877478599548,0.6615307331085205,0.6751085519790649,-0.34308546781539917,0.9559563994407654,0.2538594901561737,0.5708242058753967,-1.2969177961349487,0.9204825758934021,0.6503400206565857,0.6740413904190063,-0.43579161167144775,0.9605641961097717,0.2630707919597626,0.5417528748512268,-1.3655986785888672,0.925504207611084,0.6417220830917358,0.6648064255714417,-0.29798001050949097,0.961793839931488,0.2595193386077881,0.5351518988609314,-1.2130800485610962,0.9149115681648254,0.4857994019985199,0.6254163384437561,0.09295230358839035,0.9978358149528503,0.31345459818840027,0.6503703594207764,-0.09241189062595367,0.9983067512512207,0.48249030113220215,0.8332216143608093,0.21818093955516815,0.9616075158119202,0.3435019552707672,0.8672950267791748,0.015890179201960564,0.9752888679504395,0.48987141251564026,0.9724291563034058,0.9262993335723877,0.8973518013954163,0.35686808824539185,0.9910956621170044,0.5824443101882935,0.9054433107376099,0.47268450260162354,0.981442928314209,0.9757110476493835,0.8290079832077026,0.35209208726882935,0.9906626343727112,0.6234353184700012,0.6744018197059631,0.5656833052635193,1.037356972694397,0.6761457324028015,0.8265498280525208,0.38414591550827026,1.0870903730392456,0.23231978714466095,0.7722691297531128
18297.30606908393,0.43479010462760925,0.23152950406074524,-0.9238162636756897,0.9999843835830688,0.43904978036880493,0.20721477270126343,-0.8643527030944824,0.9999696016311646,0.4474046230316162,0.20574086904525757,-0.8645192980766296,0.9999653100967407,0.4551871418952942,0.20453283190727234,-0.8646420836448669,0.9999610185623169,0.4071684181690216,0.20941773056983948,-0.8953331112861633,0.999972939491272,0.38900822401046753,0.20943590998649597,-0.8954136371612549,0.999969482421875,0.37089675664901733,0.2099536657333374,-0.8955477476119995,0.9999657869338989,0.44817206263542175,0.2139250934123993,-0.5006900429725647,0.9999676942825317,0.31927913427352905,0.22276735305786133,-0.6494855880737305,0.9999772310256958,0.44489631056785583,0.25404348969459534,-0.7857704162597656,0.9999911785125732,0.40951302647590637,0.2573021650314331,-0.8279778957366943,0.9999936819076538,0.5300053358078003,0.3485012352466583,-0.24483750760555267,0.9999282360076904,0.1713731437921524,0.3691371977329254,-0.4989982545375824,0.9998365640640259,0.5827430486679077,0.5049953460693359,-0.016687629744410515,0.9798509478569031,0.13098230957984924,0.5158543586730957,-0.6803305149078369,0.9718557596206665,0.643467366695404,0.6331444978713989,-0.2964911162853241,0.9786859750747681,0.23305578529834747,0.5587560534477234,-1.1905642747879028,0.94471275806427,0.6623180508613586,0.674320638179779,-0.3889855444431305,0.9632588624954224,0.2674781084060669,0.5701074004173279,-1.3141579627990723,0.9280089735984802,0.6503458619117737,0.6741669178009033,-0.48667725920677185,0.9670472741127014,0.2748051881790161,0.5433942079544067,-1.3799352645874023,0.9312525987625122,0.6417648792266846,0.6647453308105469,-0.34073933959007263,0.9671071171760559,0.26756057143211365,0.5371387004852295,-1.2251853942871094,0.9175072312355042,0.4856913089752197,0.6287314295768738,0.0965934619307518,0.9978461265563965,0.3136245012283325,0.6513249278068542,-0.09619031101465225,0.9983799457550049,0.48294830322265625,0.839694619178772,0.23477007448673248,0.9663519859313965,0.3405263423919678,0.8680018186569214,0.027683738619089127,0.9793952107429504,0.48721593618392944,0.9746909737586975,0.9776356220245361,0.9102668762207031,0.36035582423210144,0.9943373203277588,0.6319305300712585,0.927707850933075,0.4677761495113373,0.9847525358200073,1.0303038358688354,0.8500790596008301,0.3647967576980591,1.0249295234680176,0.6759099364280701,0.7101969718933105,0.5532671809196472,1.030632495880127,0.7245705723762512,0.8565800786018372,0.38686323165893555,1.0883396863937378,0.2761298716068268,0.8238816261291504
18313.972735750598,0.4339556396007538,0.2333528697490692,-0.8441563844680786,0.9999815225601196,0.43958449363708496,0.21068274974822998,-0.7826360464096069,0.999964714050293,0.4480098485946655,0.2095184028148651,-0.7828481793403625,0.9999607801437378,0.4561162292957306,0.20839831233024597,-0.783004879951477,0.9999576807022095,0.40724560618400574,0.21201318502426147,-0.8147115707397461,0.9999665021896362,0.38948798179626465,0.21186083555221558,-0.814773440361023,0.999961256980896,0.37175464630126953,0.2118796408176422,-0.8149064183235168,0.9999562501907349,0.45005854964256287,0.21641772985458374,-0.4199088513851166,0.9999649524688721,0.3229205906391144,0.22223111987113953,-0.5731514096260071,0.9999691247940063,0.4426553547382355,0.2564685046672821,-0.7070358395576477,0.9999901056289673,0.4081779718399048,0.25874724984169006,-0.7506272196769714,0.9999920129776001,0.5289962291717529,0.34857669472694397,-0.18410469591617584,0.9999330043792725,0.1741970032453537,0.3688490092754364,-0.43420565128326416,0.9997844099998474,0.5824376940727234,0.5060557723045349,0.021393319591879845,0.9793049693107605,0.13238655030727386,0.5137434005737305,-0.6248335838317871,0.9583161473274231,0.6438174247741699,0.6341192722320557,-0.2682337462902069,0.9779168367385864,0.2289145439863205,0.5572406053543091,-1.1408765316009521,0.9179852604866028,0.6624735593795776,0.6759926676750183,-0.36277034878730774,0.962455689907074,0.2610643804073334,0.5694410800933838,-1.2639647722244263,0.9008340239524841,0.64997398853302,0.6757527589797974,-0.4582471251487732,0.9664667844772339,0.2716721296310425,0.5436180233955383,-1.330910563468933,0.9058027267456055,0.641639232635498,0.6657387018203735,-0.3119097650051117,0.9660292863845825,0.26493728160858154,0.5372607707977295,-1.1768237352371216,0.8896164298057556,0.48743224143981934,0.6311501860618591,0.09911558777093887,0.9974879026412964,0.31152766942977905,0.6522619724273682,-0.09867846220731735,0.9980050921440125,0.4821091294288635,0.8431228399276733,0.22146794199943542,0.9653880596160889,0.34012508392333984,0.8719862103462219,0.006361129228025675,0.9766695499420166,0.48762109875679016,0.9762763977050781,0.9531591534614563,0.9050151705741882,0.36250409483909607,0.9996866583824158,0.5976325273513794,0.918407142162323,0.4683156907558441,0.9859258532524109,1.0048866271972656,0.8323416709899902,0.3641032576560974,1.0318962335586548,0.6398809552192688,0.6707329154014587,0.5519996881484985,1.0340503454208374,0.6989708542823792,0.8506375551223755,0.3940909206867218,1.0956668853759766,0.23854005336761475,0.8090676069259644
18330.639402417266,0.43411630392074585,0.2322455644607544,-0.8920936584472656,0.9999874830245972,0.4384238123893738,0.2094200849533081,-0.8294039368629456,0.9999762773513794,0.44684067368507385,0.20812851190567017,-0.829586923122406,0.9999731779098511,0.4546480178833008,0.20700493454933167,-0.8296861052513123,0.9999700784683228,0.4063117802143097,0.21085834503173828,-0.860125720500946,0.9999781847000122,0.38853883743286133,0.21049067378044128,-0.8601973652839661,0.9999752044677734,0.37052565813064575,0.2105000615119934,-0.86031574010849,0.9999715089797974,0.44858574867248535,0.21538516879081726,-0.4609168767929077,0.9999754428863525,0.32215046882629395,0.22137710452079773,-0.6086652278900146,0.999981164932251,0.4441646635532379,0.2548193335533142,-0.7538460493087769,0.9999934434890747,0.40882471203804016,0.25776413083076477,-0.7957749366760254,0.9999949932098389,0.5306376218795776,0.34960657358169556,-0.2158508002758026,0.9999402761459351,0.17376945912837982,0.36966583132743835,-0.46518728137016296,0.9998507499694824,0.5840628743171692,0.5061419010162354,0.0010736066615208983,0.9800179600715637,0.1351855993270874,0.5098053812980652,-0.6555982828140259,0.9688939452171326,0.6434957981109619,0.6339274644851685,-0.2899191379547119,0.9792648553848267,0.2116672396659851,0.5570869445800781,-1.187479019165039,0.9341346621513367,0.6618051528930664,0.6743513941764832,-0.38443052768707275,0.9642361998558044,0.2462267428636551,0.5695966482162476,-1.3141238689422607,0.9169301390647888,0.6492643356323242,0.6741872429847717,-0.4820001423358917,0.9680386781692505,0.2575356662273407,0.5427655577659607,-1.3838430643081665,0.9213973879814148,0.640342652797699,0.6645345091819763,-0.334625780582428,0.9677826166152954,0.2507479190826416,0.5364339351654053,-1.2253150939941406,0.9077972769737244,0.48959484696388245,0.6281058192253113,0.10154633224010468,0.9981946349143982,0.31603652238845825,0.6492342352867126,-0.10112728923559189,0.9986336827278137,0.4829784333705902,0.8351074457168579,0.2670898139476776,0.970517635345459,0.33999893069267273,0.8630964756011963,0.044384878128767014,0.9829856753349304,0.48723676800727844,0.972920835018158,1.0109951496124268,0.9243699312210083,0.36181679368019104,0.9974707961082458,0.6560091376304626,0.9374487400054932,0.4659242033958435,0.9854896664619446,1.063897728919983,0.8669083118438721,0.3636798560619354,0.9998276233673096,0.700286865234375,0.7278610467910767,0.5576954483985901,1.0287381410598755,0.7567803859710693,0.882024884223938,0.3991771936416626,1.0857319831848145,0.3001101315021515,0.8463333249092102
18347.306069083934,0.43217864632606506,0.23252791166305542,-0.8662737011909485,0.9999821186065674,0.4381268620491028,0.2102179229259491,-0.8027384877204895,0.9999667406082153,0.4467891752719879,0.2091445028781891,-0.8029503226280212,0.9999628067016602,0.4552721083164215,0.20807605981826782,-0.8030779361724854,0.9999585151672363,0.4057023823261261,0.21137604117393494,-0.8345311284065247,0.9999685287475586,0.3877341151237488,0.211349755525589,-0.8345975279808044,0.9999643564224243,0.37058988213539124,0.21150550246238708,-0.8347393274307251,0.9999594688415527,0.45090413093566895,0.21613749861717224,-0.4327205717563629,0.9999668598175049,0.32209885120391846,0.22206485271453857,-0.5840964913368225,0.9999738931655884,0.4415401220321655,0.25573042035102844,-0.727164626121521,0.9999908208847046,0.4064466953277588,0.2580842673778534,-0.7701132297515869,0.9999927282333374,0.5286230444908142,0.349150151014328,-0.18669962882995605,0.9999337196350098,0.17528878152370453,0.3690582811832428,-0.4411180913448334,0.9998084902763367,0.5815640687942505,0.5071552991867065,0.024541033431887627,0.978910505771637,0.13611778616905212,0.5137722492218018,-0.6357122659683228,0.9639943838119507,0.6441671848297119,0.6351991295814514,-0.28658929467201233,0.9774637818336487,0.2177230417728424,0.5566722750663757,-1.1828449964523315,0.93313068151474,0.6633590459823608,0.6757211685180664,-0.3840796649456024,0.9620379209518433,0.25319552421569824,0.5691754221916199,-1.3107870817184448,0.9175797700881958,0.6513465642929077,0.6754953265190125,-0.48206374049186707,0.9661756753921509,0.2622734606266022,0.5420812368392944,-1.3825256824493408,0.9225341081619263,0.6424655914306641,0.6658307909965515,-0.33224064111709595,0.9663299918174744,0.25567513704299927,0.5358343720436096,-1.2214775085449219,0.9091759324073792,0.48847445845603943,0.6286562085151672,0.09597024321556091,0.9979233145713806,0.3124857544898987,0.6501036882400513,-0.09548824280500412,0.9983476400375366,0.4801720976829529,0.8399511575698853,0.2149772197008133,0.9669522643089294,0.338616281747818,0.8652850389480591,0.017557403072714806,0.9752687215805054,0.4860133230686188,0.9748190641403198,0.9713199734687805,0.9051070213317871,0.35925254225730896,0.9946584105491638,0.6323477625846863,0.9138316512107849,0.4675883650779724,0.9844241738319397,1.0245366096496582,0.8340710401535034,0.36817848682403564,1.0261750221252441,0.6765581369400024,0.6789168119430542,0.5678122639656067,1.0383822917938232,0.7093230485916138,0.8439663648605347,0.38521862030029297,1.0900858640670776,0.27056965231895447,0.8007006049156189
18363.9727357506,0.4325214624404907,0.23337537050247192,-0.9115553498268127,0.9999897480010986,0.43780383467674255,0.2105688750743866,-0.8491873741149902,0.9999809265136719,0.4466180205345154,0.2093448042869568,-0.8493441343307495,0.9999780654907227,0.4547736644744873,0.20822754502296448,-0.8493771553039551,0.9999743700027466,0.4045989513397217,0.2118563950061798,-0.8779666423797607,0.999982476234436,0.3861177861690521,0.21156704425811768,-0.8780643343925476,0.9999809265136719,0.3683849573135376,0.21161341667175293,-0.878187894821167,0.9999784231185913,0.44871100783348083,0.2159678339958191,-0.47988882660865784,0.9999788999557495,0.3204818367958069,0.22194144129753113,-0.6198120713233948,0.9999862909317017,0.4422493875026703,0.2563670575618744,-0.7733377814292908,0.9999942779541016,0.40638840198516846,0.2588253319263458,-0.8128449320793152,0.9999959468841553,0.5295790433883667,0.34898629784584045,-0.23071062564849854,0.9999403953552246,0.17034003138542175,0.369480162858963,-0.4720262587070465,0.9998679161071777,0.5824941396713257,0.5055240392684937,-0.0060811578296124935,0.9799715280532837,0.13267819583415985,0.5140665769577026,-0.6703858971595764,0.9746272563934326,0.6449296474456787,0.635743260383606,-0.30141758918762207,0.9782301187515259,0.22638122737407684,0.5567589402198792,-1.2170740365982056,0.9415515661239624,0.6623241901397705,0.6758471727371216,-0.3943091928958893,0.9626010656356812,0.2585389018058777,0.5693774819374084,-1.3440033197402954,0.9238399267196655,0.650277316570282,0.6744681000709534,-0.4911712408065796,0.9664791822433472,0.26310765743255615,0.5399454236030579,-1.4119691848754883,0.9284306764602661,0.6417956948280334,0.6651344895362854,-0.34593403339385986,0.9670524001121521,0.25922834873199463,0.5334448218345642,-1.2540537118911743,0.9175232648849487,0.48844006657600403,0.6234578490257263,0.0921231359243393,0.99832683801651,0.3142106533050537,0.6475920081138611,-0.09161406755447388,0.9987303614616394,0.48382148146629333,0.8324846625328064,0.23701025545597076,0.9717907905578613,0.3443819284439087,0.8625680208206177,0.04216623306274414,0.9816375374794006,0.4896802306175232,0.9704034924507141,1.0090534687042236,0.921773374080658,0.35947123169898987,0.9913680553436279,0.6604617238044739,0.9321573376655579,0.4726126790046692,0.9811528921127319,1.0646692514419556,0.8635535836219788,0.35715797543525696,0.9927476644515991,0.7060396671295166,0.7279430627822876,0.5441979169845581,1.0272595882415771,0.757305383682251,0.8674618005752563,0.3810535669326782,1.0825831890106201,0.3050727844238281,0.8262609839439392
18380.63940241727,0.43400391936302185,0.2334991991519928,-0.9008906483650208,0.9999860525131226,0.4394250810146332,0.21012523770332336,-0.8355926871299744,0.9999741315841675,0.4477806091308594,0.2087240219116211,-0.8357901573181152,0.9999698400497437,0.4555582106113434,0.2075897455215454,-0.835893988609314,0.9999669790267944,0.40635257959365845,0.21169325709342957,-0.8670468330383301,0.9999759197235107,0.3885972499847412,0.21142470836639404,-0.8671146035194397,0.9999717473983765,0.37036073207855225,0.2116030752658844,-0.867234468460083,0.9999682903289795,0.448810338973999,0.21534472703933716,-0.4583784341812134,0.9999704360961914,0.3202805817127228,0.22283554077148438,-0.6101533770561218,0.9999775886535645,0.44375675916671753,0.2556808590888977,-0.7598838210105896,0.9999921321868896,0.40803176164627075,0.25791189074516296,-0.8030081391334534,0.999994158744812,0.5271716117858887,0.35137563943862915,-0.2128629982471466,0.9999295473098755,0.17392374575138092,0.3692445456981659,-0.45991334319114685,0.9998036026954651,0.5816348195075989,0.5076672434806824,-0.0047311848029494286,0.979784369468689,0.13310417532920837,0.5153756141662598,-0.6481643915176392,0.9632746577262878,0.643425464630127,0.6356554627418518,-0.3122982084751129,0.9797230362892151,0.23484258353710175,0.5599750876426697,-1.178896188735962,0.92838454246521,0.6612547039985657,0.6753752827644348,-0.4107094407081604,0.964871346950531,0.2678444981575012,0.5709872841835022,-1.3066939115524292,0.9098696708679199,0.6491416096687317,0.6748015284538269,-0.5090541839599609,0.9684343934059143,0.2730240523815155,0.5435537099838257,-1.372814655303955,0.9141450524330139,0.6408348083496094,0.6653240919113159,-0.35743996500968933,0.9678288102149963,0.2667635977268219,0.5371153354644775,-1.2144123315811157,0.8980517387390137,0.48572883009910583,0.6296145915985107,0.09948843717575073,0.9981334805488586,0.3129095435142517,0.6517798900604248,-0.09911394119262695,0.9985144734382629,0.4810045659542084,0.8365193605422974,0.2475251853466034,0.968020498752594,0.3405340015888214,0.8660471439361572,0.03396470099687576,0.9804376363754272,0.4863317310810089,0.9735759496688843,1.0036050081253052,0.9205343127250671,0.3597990870475769,0.9969801306724548,0.6525068879127502,0.9371057748794556,0.4643722474575043,0.9857790470123291,1.0572789907455444,0.8640689849853516,0.36074933409690857,0.9997944235801697,0.6972786784172058,0.7276207804679871,0.5524961352348328,1.0289336442947388,0.7467707395553589,0.8767015337944031,0.386730819940567,1.0854281187057495,0.2932639718055725,0.8477271199226379
18397.306069083937,0.4339888095855713,0.23334699869155884,-0.841890811920166,0.999982476234436,0.4392748475074768,0.2104628086090088,-0.7799696326255798,0.9999655485153198,0.44762325286865234,0.2090725600719452,-0.7801660895347595,0.9999595880508423,0.4553941786289215,0.20788440108299255,-0.7802847623825073,0.9999551773071289,0.4062921702861786,0.21179085969924927,-0.8111125826835632,0.9999697208404541,0.3884147107601166,0.21129503846168518,-0.811177670955658,0.9999655485153198,0.37034791707992554,0.2111903429031372,-0.811319887638092,0.9999624490737915,0.4486214518547058,0.21520835161209106,-0.418348103761673,0.99996018409729,0.32129257917404175,0.22194525599479675,-0.5678552985191345,0.9999747276306152,0.4435509741306305,0.2558307349681854,-0.7056782245635986,0.9999904632568359,0.40811672806739807,0.25780680775642395,-0.7481603026390076,0.9999935626983643,0.5276633501052856,0.3504510819911957,-0.17648538947105408,0.9999208450317383,0.1736418753862381,0.3678516149520874,-0.431074857711792,0.9998422861099243,0.5825845003128052,0.508491575717926,0.038624364882707596,0.9781085252761841,0.1306409239768982,0.5123359560966492,-0.6105399131774902,0.9694948196411133,0.6420688629150391,0.6350953578948975,-0.25757887959480286,0.9775490164756775,0.2369217425584793,0.5620501637458801,-1.121686339378357,0.9442853331565857,0.6612116694450378,0.6751572489738464,-0.353354811668396,0.9624732732772827,0.26759594678878784,0.572504997253418,-1.24528968334198,0.9292077422142029,0.6483724117279053,0.6746671199798584,-0.4485637843608856,0.966300904750824,0.2775062918663025,0.547671377658844,-1.312143325805664,0.9328091144561768,0.6392338871955872,0.6655345559120178,-0.30145570635795593,0.9661480784416199,0.2708401381969452,0.5412455201148987,-1.1564583778381348,0.9194294810295105,0.4857153594493866,0.6328738927841187,0.10102643817663193,0.997925877571106,0.31083184480667114,0.6540154218673706,-0.10067245364189148,0.9983845949172974,0.4812915623188019,0.8435355424880981,0.22651827335357666,0.965535044670105,0.3385637700557709,0.8704293370246887,0.01663419045507908,0.9784889221191406,0.4870113432407379,0.9753677845001221,0.9739261269569397,0.9058970808982849,0.35825616121292114,0.9948642253875732,0.6196449995040894,0.9255862832069397,0.4671834707260132,0.9848588705062866,1.0275359153747559,0.8410279750823975,0.36200767755508423,1.0284181833267212,0.6637193560600281,0.7077295184135437,0.5540278553962708,1.0323030948638916,0.728460431098938,0.8533449769020081,0.3907112777233124,1.090517520904541,0.2687854468822479,0.8246666193008423
18413.972735750605,0.4332234859466553,0.23374095559120178,-0.8494290709495544,0.9999874830245972,0.4388691782951355,0.2108106017112732,-0.7873402237892151,0.9999754428863525,0.4472573399543762,0.2094430923461914,-0.7875149250030518,0.9999713897705078,0.4551125466823578,0.20826300978660583,-0.7876033186912537,0.9999675750732422,0.40605661273002625,0.21211013197898865,-0.8189677596092224,0.9999783039093018,0.38831204175949097,0.21160483360290527,-0.8190250992774963,0.9999755620956421,0.3702313303947449,0.21145910024642944,-0.819147527217865,0.9999727010726929,0.4486790597438812,0.21542873978614807,-0.42517802119255066,0.9999721050262451,0.3210633099079132,0.22204706072807312,-0.5774784088134766,0.9999821186065674,0.4428212642669678,0.25632426142692566,-0.7132312655448914,0.9999929666519165,0.40752100944519043,0.2581532895565033,-0.7564499974250793,0.9999951124191284,0.527908205986023,0.35094308853149414,-0.18531252443790436,0.9999364614486694,0.17247091233730316,0.36840158700942993,-0.43707966804504395,0.9998620748519897,0.582714319229126,0.5084975957870483,0.03351307660341263,0.9813995957374573,0.13085785508155823,0.5128345489501953,-0.6222086548805237,0.9721009135246277,0.6425473690032959,0.6350164413452148,-0.26224738359451294,0.9812519550323486,0.2358899861574173,0.561689555644989,-1.1421509981155396,0.9487946033477783,0.6613993644714355,0.6755188703536987,-0.3564746081829071,0.9678675532341003,0.26660609245300293,0.5718305110931396,-1.2654435634613037,0.9342331290245056,0.6484829187393188,0.674933671951294,-0.45261311531066895,0.9712169766426086,0.2756305932998657,0.5465296506881714,-1.3334587812423706,0.9377536773681641,0.639410138130188,0.6653979420661926,-0.3064488470554352,0.9712348580360413,0.26879826188087463,0.5402712821960449,-1.1775763034820557,0.9256089925765991,0.4853546619415283,0.6310348510742188,0.09369198977947235,0.9982178807258606,0.3097541332244873,0.6529591083526611,-0.09328465163707733,0.9985998272895813,0.48099005222320557,0.8409348726272583,0.21583373844623566,0.9692829847335815,0.3378155529499054,0.8656321167945862,0.022602342069149017,0.9793801307678223,0.48697465658187866,0.9751229882240295,0.9486699104309082,0.9160579442977905,0.3569003939628601,0.9943042993545532,0.6147167682647705,0.9306754469871521,0.4669358730316162,0.9849558472633362,1.0002957582473755,0.8570150136947632,0.36296871304512024,1.024254560470581,0.6574519276618958,0.7304787635803223,0.5675976872444153,1.0370397567749023,0.6995907425880432,0.8630942702293396,0.3800743818283081,1.0862764120101929,0.265733927488327,0.8324496150016785
18430.639402417273,0.43303239345550537,0.23237359523773193,-0.9008238911628723,0.999983549118042,0.4386443495750427,0.20971530675888062,-0.8391165733337402,0.9999685287475586,0.4473835825920105,0.20849177241325378,-0.8393129110336304,0.9999649524688721,0.4557647109031677,0.2072741687297821,-0.8394263386726379,0.9999608993530273,0.4059257209300995,0.21124184131622314,-0.8707424998283386,0.9999710321426392,0.3877786695957184,0.21129444241523743,-0.8708308339118958,0.9999675750732422,0.3700295090675354,0.2115190327167511,-0.8709691762924194,0.9999632835388184,0.4509771168231964,0.21522966027259827,-0.4706546366214752,0.9999685287475586,0.32094377279281616,0.22218555212020874,-0.621371328830719,0.9999754428863525,0.44272366166114807,0.255555123090744,-0.7616017460823059,0.9999909400939941,0.4069116711616516,0.25847968459129333,-0.8043588995933533,0.9999932050704956,0.5282130837440491,0.348513662815094,-0.22076508402824402,0.9999352693557739,0.17272356152534485,0.3688334822654724,-0.47290536761283875,0.9998179078102112,0.5833730101585388,0.5057551860809326,-0.0011267942609265447,0.9803658127784729,0.13247278332710266,0.51540207862854,-0.6617345809936523,0.9686912894248962,0.643821120262146,0.634891927242279,-0.29704999923706055,0.9788116812705994,0.22864381968975067,0.5579327344894409,-1.1920384168624878,0.9356585144996643,0.6634234189987183,0.6765568852424622,-0.3922531008720398,0.9634567499160767,0.26308637857437134,0.5693256855010986,-1.3173696994781494,0.9184460043907166,0.6516063213348389,0.6763166785240173,-0.48895350098609924,0.9673919677734375,0.2732263505458832,0.544140100479126,-1.386229157447815,0.9228910207748413,0.6431528329849243,0.6661245226860046,-0.3413892984390259,0.9674371480941772,0.26491180062294006,0.5377169847488403,-1.2286553382873535,0.9091215133666992,0.4861856698989868,0.630332350730896,0.09547442197799683,0.9976779818534851,0.3114641308784485,0.6521216034889221,-0.09499269723892212,0.998230516910553,0.48225316405296326,0.8399296998977661,0.23330894112586975,0.964603841304779,0.3397495448589325,0.8691997528076172,0.02876770868897438,0.9763393402099609,0.48768946528434753,0.9733573794364929,0.988429844379425,0.9012197256088257,0.3562912940979004,0.9939507246017456,0.6384048461914062,0.9134394526481628,0.46988794207572937,0.9828959107398987,1.0423929691314697,0.8303681015968323,0.36026108264923096,1.0291941165924072,0.6828736066818237,0.6738248467445374,0.5737684965133667,1.0380017757415771,0.7343940138816833,0.8426529765129089,0.3880000412464142,1.093633770942688,0.2801189124584198,0.7958517670631409
18447.30606908394,0.43331217765808105,0.23280948400497437,-0.8858981132507324,0.9999871253967285,0.4387967586517334,0.20959258079528809,-0.823823869228363,0.9999750852584839,0.4474058151245117,0.20825982093811035,-0.8240000605583191,0.9999712705612183,0.4552619755268097,0.20716515183448792,-0.8240638971328735,0.9999672174453735,0.405426949262619,0.21095207333564758,-0.8532173037528992,0.9999778270721436,0.38704654574394226,0.2105015516281128,-0.8533008098602295,0.9999754428863525,0.36915332078933716,0.21057096123695374,-0.8534367084503174,0.9999728202819824,0.4483484923839569,0.21450796723365784,-0.45817962288856506,0.9999716281890869,0.3189389407634735,0.22191879153251648,-0.6000869870185852,0.9999822378158569,0.443324476480484,0.25521376729011536,-0.748793363571167,0.9999927282333374,0.4070078432559967,0.2568642199039459,-0.7889513373374939,0.9999949932098389,0.5294142365455627,0.349676251411438,-0.2120228260755539,0.999931812286377,0.17378324270248413,0.36846625804901123,-0.45567235350608826,0.9998639822006226,0.5833427906036377,0.5060847401618958,0.007504903245717287,0.9796208739280701,0.13147111237049103,0.5136765837669373,-0.6372829079627991,0.9753977656364441,0.6442620754241943,0.6356943249702454,-0.2903353273868561,0.9777411222457886,0.2371305674314499,0.559293270111084,-1.1594563722610474,0.9476128220558167,0.6626191139221191,0.676439642906189,-0.3848194479942322,0.9620983004570007,0.27049535512924194,0.5709325671195984,-1.283004879951477,0.9308262467384338,0.6506000757217407,0.6758057475090027,-0.4814464747905731,0.9660601019859314,0.27817368507385254,0.54239821434021,-1.3515249490737915,0.9347553849220276,0.6419525742530823,0.6662477850914001,-0.3348892331123352,0.9664368629455566,0.27008968591690063,0.5362045168876648,-1.1953482627868652,0.923273503780365,0.48748713731765747,0.6266921162605286,0.09279348701238632,0.9978870749473572,0.31475403904914856,0.6502734422683716,-0.09231932461261749,0.9984208345413208,0.48270151019096375,0.8337244391441345,0.22797255218029022,0.964832067489624,0.342961847782135,0.8636454343795776,0.02491522766649723,0.977857232093811,0.48642832040786743,0.9730948209762573,0.9567638039588928,0.9069890975952148,0.3628663122653961,0.9951976537704468,0.614756166934967,0.9182242751121521,0.46850916743278503,0.9856638312339783,1.0075645446777344,0.8439515233039856,0.3635653853416443,0.9985728859901428,0.6572290062904358,0.69582599401474,0.5663690567016602,1.0349745750427246,0.69987952709198,0.8502568006515503,0.3882734477519989,1.0854623317718506,0.2592633068561554,0.8069410920143127
18463.97273575061,0.4326021373271942,0.23286625742912292,-0.8759837746620178,0.9999881982803345,0.43832704424858093,0.20955458283424377,-0.8137367963790894,0.9999771118164062,0.4471524953842163,0.20825079083442688,-0.8139268755912781,0.9999737739562988,0.45524150133132935,0.20723047852516174,-0.8140380382537842,0.9999709129333496,0.404640793800354,0.21090468764305115,-0.842827558517456,0.9999785423278809,0.386186420917511,0.21048739552497864,-0.8429061770439148,0.9999755620956421,0.36874499917030334,0.21065819263458252,-0.8430194854736328,0.9999727010726929,0.4491749703884125,0.21532228589057922,-0.4510565400123596,0.9999747276306152,0.31930744647979736,0.22235047817230225,-0.5915864109992981,0.9999805688858032,0.44295376539230347,0.2551628053188324,-0.7400486469268799,0.9999935626983643,0.40642037987709045,0.25700634717941284,-0.7799143195152283,0.999995231628418,0.5267307758331299,0.3514726758003235,-0.21613545715808868,0.9999381303787231,0.1731165200471878,0.36880582571029663,-0.4491174519062042,0.9998407363891602,0.5813730955123901,0.5093349814414978,-0.011442345567047596,0.9800318479537964,0.13056419789791107,0.512407660484314,-0.630407452583313,0.967877984046936,0.6448792219161987,0.6387827396392822,-0.30531519651412964,0.9783955812454224,0.23985792696475983,0.5594387054443359,-1.138993501663208,0.936069905757904,0.6630547046661377,0.6779683232307434,-0.40026649832725525,0.9630782604217529,0.27185946702957153,0.5706045627593994,-1.261874794960022,0.9181554317474365,0.6511452198028564,0.6776108145713806,-0.49502527713775635,0.9668471813201904,0.2805261015892029,0.5448062419891357,-1.3227043151855469,0.9217933416366577,0.6427030563354492,0.6682150959968567,-0.34860971570014954,0.966775119304657,0.27398809790611267,0.5386821031570435,-1.1717727184295654,0.9070312976837158,0.484424889087677,0.6326411366462708,0.09636536985635757,0.9979515671730042,0.31142929196357727,0.6530322432518005,-0.09601612389087677,0.9983421564102173,0.48120394349098206,0.8400499224662781,0.22529327869415283,0.96312016248703,0.3384000360965729,0.8723242282867432,0.020163867622613907,0.9793908596038818,0.48761704564094543,0.9725339412689209,0.9778940081596375,0.9084377884864807,0.36106207966804504,0.994225263595581,0.6269669532775879,0.9279100298881531,0.4681851863861084,0.9826478362083435,1.0321710109710693,0.8424215316772461,0.36120423674583435,0.9916260838508606,0.6717149019241333,0.7020395398139954,0.5518640279769897,1.0315383672714233,0.7326646447181702,0.8620774745941162,0.399323046207428,1.0899094343185425,0.2786230742931366,0.8311834335327148
18480.639402417277,0.4328426420688629,0.23427662253379822,-0.802715539932251,0.9999752044677734,0.43853679299354553,0.2125280499458313,-0.7386806607246399,0.9999538660049438,0.44702839851379395,0.21159929037094116,-0.7389097809791565,0.999947190284729,0.45475834608078003,0.21062558889389038,-0.7390432953834534,0.9999420642852783,0.4057433307170868,0.21295753121376038,-0.7736353874206543,0.9999575614929199,0.388060986995697,0.21226409077644348,-0.7737096548080444,0.999951958656311,0.36986327171325684,0.21184521913528442,-0.7738822102546692,0.9999465942382812,0.44796523451805115,0.21745967864990234,-0.36850664019584656,0.9999502897262573,0.3213348388671875,0.22120901942253113,-0.534507691860199,0.9999650716781616,0.44203847646713257,0.2568032741546631,-0.6631357669830322,0.9999871253967285,0.4070580303668976,0.25835976004600525,-0.710392415523529,0.9999904632568359,0.5255934596061707,0.3504381775856018,-0.11917807906866074,0.9999173879623413,0.17261816561222076,0.3677341043949127,-0.40616926550865173,0.9997829794883728,0.5805875658988953,0.5075699687004089,0.09526323527097702,0.9764823317527771,0.1335185170173645,0.5135346055030823,-0.6105207204818726,0.961764931678772,0.643051266670227,0.6348973512649536,-0.2167850285768509,0.9757716059684753,0.2286374419927597,0.5581604838371277,-1.1532682180404663,0.9293093681335449,0.6631196737289429,0.6759893894195557,-0.31288856267929077,0.959775447845459,0.2622297406196594,0.5702916383743286,-1.2800722122192383,0.9137372970581055,0.6506196856498718,0.6759019494056702,-0.4097031056880951,0.9643324017524719,0.27312982082366943,0.5456843972206116,-1.3489741086959839,0.9189755320549011,0.6415507793426514,0.6660393476486206,-0.2620815634727478,0.9643081426620483,0.2666773200035095,0.5387468934059143,-1.1897460222244263,0.9041202664375305,0.48425132036209106,0.6342762112617493,0.11063220351934433,0.9976345300674438,0.31251612305641174,0.6549223065376282,-0.11019185930490494,0.9980675578117371,0.48204097151756287,0.845453143119812,0.18423840403556824,0.960608959197998,0.34026119112968445,0.8735930323600769,-0.0338146910071373,0.9699142575263977,0.4887738525867462,0.9764010906219482,0.9464309811592102,0.8878604769706726,0.36156582832336426,0.996968686580658,0.5746855735778809,0.9031108021736145,0.4725991189479828,0.9853379726409912,1.000577688217163,0.8171161413192749,0.3612271249294281,1.035081148147583,0.6182031631469727,0.6489452123641968,0.553421139717102,1.0335986614227295,0.6885553002357483,0.8216573596000671,0.3896905779838562,1.0985466241836548,0.20700320601463318,0.7809610366821289
18497.306069083945,0.432787150144577,0.23238259553909302,-0.8551176190376282,0.9999868869781494,0.4378398656845093,0.20976591110229492,-0.7930207252502441,0.9999743700027466,0.44638127088546753,0.20859882235527039,-0.7932120561599731,0.9999713897705078,0.4543203115463257,0.20758545398712158,-0.7933118939399719,0.9999678134918213,0.40496253967285156,0.21068179607391357,-0.823157548904419,0.9999769926071167,0.38692471385002136,0.20999962091445923,-0.8232226371765137,0.9999746084213257,0.36877962946891785,0.20968741178512573,-0.8233456015586853,0.999971866607666,0.44841790199279785,0.21555167436599731,-0.4317859411239624,0.999972939491272,0.31966331601142883,0.2202931046485901,-0.5756707191467285,0.9999808073043823,0.44285398721694946,0.2551593482494354,-0.7192820310592651,0.999992847442627,0.4070191979408264,0.25701001286506653,-0.7601847648620605,0.9999949932098389,0.5262823104858398,0.34998592734336853,-0.19833754003047943,0.9999344348907471,0.17117026448249817,0.36823058128356934,-0.4317149221897125,0.9998524188995361,0.582829475402832,0.5067271590232849,0.014049905352294445,0.9795743227005005,0.13446958363056183,0.5148419737815857,-0.6055507063865662,0.9711505174636841,0.6407468318939209,0.6370305418968201,-0.2812310457229614,0.9751250743865967,0.2211414873600006,0.559356153011322,-1.1156681776046753,0.9390624165534973,0.6599409580230713,0.6778709292411804,-0.37774235010147095,0.9580093622207642,0.2606254816055298,0.5703200101852417,-1.2385435104370117,0.9212806820869446,0.648837685585022,0.6773991584777832,-0.4716576933860779,0.9624383449554443,0.2698785662651062,0.5443738102912903,-1.304404854774475,0.9254939556121826,0.6405255794525146,0.6680892705917358,-0.32473382353782654,0.9626281261444092,0.260837197303772,0.5378725528717041,-1.1506367921829224,0.9119080901145935,0.48684772849082947,0.6290037631988525,0.09060586243867874,0.9977096319198608,0.3098217844963074,0.6489455103874207,-0.09014324098825455,0.9982923865318298,0.4815632104873657,0.8392128944396973,0.23334674537181854,0.9721106290817261,0.3404279351234436,0.8670893907546997,0.04141692444682121,0.9815898537635803,0.48600834608078003,0.9731483459472656,1.0025581121444702,0.9177908897399902,0.3625304102897644,0.9937819838523865,0.6547955274581909,0.9295480847358704,0.47200554609298706,0.9825046062469482,1.0583806037902832,0.8420488238334656,0.3612228035926819,0.9936676025390625,0.7003791332244873,0.7126559019088745,0.545082688331604,1.0284502506256104,0.7555012106895447,0.8634395599365234,0.39568206667900085,1.0892655849456787,0.3055626451969147,0.826843798160553
18513.972735750613,0.4358467161655426,0.23227661848068237,-0.8029249906539917,0.9999798536300659,0.43998080492019653,0.209492027759552,-0.7408281564712524,0.9999610185623169,0.4482091963291168,0.20826131105422974,-0.7410542964935303,0.9999556541442871,0.4559929370880127,0.20710226893424988,-0.7411673665046692,0.9999513626098633,0.4078636169433594,0.21089333295822144,-0.7743927240371704,0.9999659061431885,0.3901839256286621,0.21066144108772278,-0.7744842171669006,0.9999618530273438,0.37185806035995483,0.2106970250606537,-0.7746388912200928,0.9999581575393677,0.4477351903915405,0.21526935696601868,-0.38298720121383667,0.9999568462371826,0.32210081815719604,0.22130006551742554,-0.5423249006271362,0.9999719858169556,0.44501855969429016,0.2552398443222046,-0.6683391332626343,0.9999889135360718,0.4105672240257263,0.25793033838272095,-0.7135522365570068,0.9999923706054688,0.5264809131622314,0.3485807776451111,-0.14583820104599,0.9999222755432129,0.17206768691539764,0.3680947422981262,-0.41823047399520874,0.9998281002044678,0.5815679430961609,0.5068103075027466,0.07011818885803223,0.9783357977867126,0.13213981688022614,0.5164691805839539,-0.601273238658905,0.9715206623077393,0.6422271728515625,0.6347362995147705,-0.21989333629608154,0.9779022932052612,0.23148521780967712,0.5601832866668701,-1.1036280393600464,0.9440382719039917,0.6609055995941162,0.6759463548660278,-0.3131636083126068,0.9630166888237,0.2651502788066864,0.5720906853675842,-1.224798560142517,0.9284957647323608,0.648898720741272,0.6756186485290527,-0.40653520822525024,0.9670431613922119,0.27498477697372437,0.5465313792228699,-1.2904975414276123,0.9325069785118103,0.6405524015426636,0.6660662889480591,-0.26303282380104065,0.9672438502311707,0.26746267080307007,0.5393733382225037,-1.137833833694458,0.9194715023040771,0.4864676594734192,0.6352224349975586,0.10925521701574326,0.9974238872528076,0.3143250346183777,0.6570325493812561,-0.10879836231470108,0.9980447292327881,0.4825701415538788,0.8417836427688599,0.2378576397895813,0.959380030632019,0.3398832082748413,0.874539315700531,0.0008160549914464355,0.9766594171524048,0.48748186230659485,0.9728472828865051,0.9726593494415283,0.8932482004165649,0.35913386940956116,0.9955940246582031,0.5838926434516907,0.9137707352638245,0.46779417991638184,0.983009934425354,1.0257562398910522,0.8306319117546082,0.3549658954143524,1.0311965942382812,0.6265777349472046,0.6751137971878052,0.5598172545433044,1.0258986949920654,0.7374922633171082,0.8376173377037048,0.39808422327041626,1.0960018634796143,0.23543284833431244,0.7963078618049622
18530.63940241728,0.4359905421733856,0.23250195384025574,-0.8963265419006348,0.999968409538269,0.44035017490386963,0.21000617742538452,-0.8322314023971558,0.999942421913147,0.44881871342658997,0.2089143693447113,-0.832423746585846,0.9999344348907471,0.4564252197742462,0.20780104398727417,-0.832503616809845,0.9999254941940308,0.4072389602661133,0.21110090613365173,-0.8662540316581726,0.9999493360519409,0.3896215856075287,0.21082186698913574,-0.8663696646690369,0.9999464750289917,0.37089550495147705,0.21081683039665222,-0.8665639162063599,0.9999414682388306,0.4487987756729126,0.21530941128730774,-0.45797574520111084,0.9999362230300903,0.3213549256324768,0.22117948532104492,-0.6211643218994141,0.9999626874923706,0.4454687535762787,0.25503766536712646,-0.7559859752655029,0.9999841451644897,0.4100792407989502,0.2575218677520752,-0.8022175431251526,0.9999897480010986,0.5285395383834839,0.3479651212692261,-0.20334342122077942,0.9998862743377686,0.1693924069404602,0.37001562118530273,-0.4787966012954712,0.9997647404670715,0.581744909286499,0.5079455375671387,0.044376440346241,0.9721746444702148,0.12800289690494537,0.5172007083892822,-0.6641588807106018,0.9720708727836609,0.6419999599456787,0.6353415846824646,-0.236805722117424,0.9688429832458496,0.23083485662937164,0.5610853433609009,-1.1831804513931274,0.9300351142883301,0.6620163917541504,0.6765393614768982,-0.32847774028778076,0.9494547247886658,0.2668076455593109,0.5718691349029541,-1.308162808418274,0.910161018371582,0.648410439491272,0.6759222745895386,-0.4227437376976013,0.9547771215438843,0.2763768434524536,0.5441821813583374,-1.375315546989441,0.9156961441040039,0.6381621360778809,0.6667752265930176,-0.27994269132614136,0.9558287262916565,0.267452597618103,0.5383806824684143,-1.2181711196899414,0.9013391137123108,0.4881330728530884,0.6306611895561218,0.10265810787677765,0.9975603818893433,0.31337207555770874,0.6553748846054077,-0.10217469185590744,0.9979676604270935,0.4839765727519989,0.8383143544197083,0.2384732961654663,0.9563518762588501,0.33962804079055786,0.8747022151947021,0.03089652955532074,0.967034101486206,0.48708128929138184,0.9661844968795776,1.0659027099609375,0.8752509951591492,0.35696884989738464,0.9927278757095337,0.689191997051239,0.8827031850814819,0.4683492183685303,0.9751121401786804,1.128683090209961,0.8064364790916443,0.3545035123825073,0.9908787608146667,0.7398390173912048,0.6278865337371826,0.5356103777885437,1.0236175060272217,0.8261255025863647,0.8085149526596069,0.392871618270874,1.0929186344146729,0.3330654799938202,0.7417834997177124
18547.30606908395,0.4340198040008545,0.2336231768131256,-0.8391852378845215,0.9999896287918091,0.4392496943473816,0.21182355284690857,-0.7792387008666992,0.999980092048645,0.4479595124721527,0.21096819639205933,-0.7793940305709839,0.9999780654907227,0.4557324945926666,0.21008417010307312,-0.7794688940048218,0.9999746084213257,0.406840443611145,0.21234092116355896,-0.8110471367835999,0.9999819993972778,0.38947176933288574,0.21190354228019714,-0.8111079931259155,0.9999804496765137,0.37145403027534485,0.21171367168426514,-0.8112051486968994,0.9999772310256958,0.4489859640598297,0.2173270285129547,-0.4259878396987915,0.9999796152114868,0.3224247992038727,0.22172793745994568,-0.5796011090278625,0.9999849796295166,0.4429934620857239,0.2563827633857727,-0.7060317993164062,0.9999940395355225,0.4086131751537323,0.2582453787326813,-0.749636709690094,0.9999954700469971,0.5262405276298523,0.3489426076412201,-0.19837895035743713,0.9999440908432007,0.1716405302286148,0.3681336045265198,-0.43922895193099976,0.9998512268066406,0.5825391411781311,0.5056042075157166,0.030002575367689133,0.9818615913391113,0.1333034485578537,0.5106669664382935,-0.6258622407913208,0.9687806963920593,0.6409999132156372,0.6347126364707947,-0.2276853322982788,0.9793466925621033,0.22938184440135956,0.5595256686210632,-1.1301642656326294,0.935549795627594,0.6596523523330688,0.6760404109954834,-0.31144094467163086,0.9644849896430969,0.261513888835907,0.5708491802215576,-1.2472314834594727,0.9191150665283203,0.6485077142715454,0.675032913684845,-0.40452879667282104,0.9683545827865601,0.27296754717826843,0.5455124974250793,-1.3118782043457031,0.9235909581184387,0.6398903131484985,0.6657597422599792,-0.2694784700870514,0.9689457416534424,0.265741765499115,0.539379358291626,-1.164609432220459,0.9110603332519531,0.4837961792945862,0.6251389980316162,0.08468329161405563,0.9979733824729919,0.3090510964393616,0.648995041847229,-0.08421030640602112,0.9983593821525574,0.4806876480579376,0.833823561668396,0.21612001955509186,0.9713959097862244,0.3414440155029297,0.8616567254066467,0.025945696979761124,0.9800336956977844,0.4915478825569153,0.9720272421836853,0.9208700060844421,0.9223657846450806,0.36168450117111206,0.9930002689361572,0.5902696251869202,0.9291619658470154,0.47665998339653015,0.9814903140068054,0.9699293375015259,0.8548986315727234,0.3644813895225525,0.9942424893379211,0.6308608055114746,0.7164205312728882,0.5678101778030396,1.0355548858642578,0.673134982585907,0.8662585020065308,0.38614487648010254,1.0870145559310913,0.24594053626060486,0.8252546787261963
18563.972735750616,0.4326002597808838,0.23220452666282654,-0.9356394410133362,0.9999856948852539,0.4380006194114685,0.20988646149635315,-0.8740826845169067,0.9999731779098511,0.44664883613586426,0.20882576704025269,-0.8742850422859192,0.9999704360961914,0.4548744261264801,0.20774444937705994,-0.8744072318077087,0.9999672174453735,0.40485402941703796,0.2111237347126007,-0.9046764373779297,0.9999756813049316,0.386141300201416,0.21119600534439087,-0.9047787189483643,0.9999723434448242,0.36780795454978943,0.2114826738834381,-0.9048972129821777,0.9999687671661377,0.4499175548553467,0.21488440036773682,-0.5058128833770752,0.999972939491272,0.31938275694847107,0.22194984555244446,-0.651969313621521,0.9999785423278809,0.44212111830711365,0.25528931617736816,-0.796923816204071,0.999991774559021,0.40577471256256104,0.25786152482032776,-0.8383566737174988,0.9999938011169434,0.5286167860031128,0.34914839267730713,-0.26342877745628357,0.9999192953109741,0.1733221709728241,0.36750975251197815,-0.49480247497558594,0.9998112320899963,0.5832709074020386,0.5062386393547058,-0.05379633605480194,0.9779771566390991,0.13395951688289642,0.5183700919151306,-0.6551167368888855,0.9677555561065674,0.6435279846191406,0.636635959148407,-0.3466359078884125,0.9706324934959412,0.23540690541267395,0.5587896108627319,-1.1489949226379395,0.9233149290084839,0.6616103649139404,0.6773646473884583,-0.44306203722953796,0.9499142169952393,0.2711978852748871,0.5701326131820679,-1.2706774473190308,0.9014444947242737,0.6497659683227539,0.6768514513969421,-0.5404517650604248,0.9551522135734558,0.281269371509552,0.5458661913871765,-1.338428258895874,0.9063839316368103,0.6410949230194092,0.6669533848762512,-0.39157772064208984,0.9561040997505188,0.2719123363494873,0.5393828749656677,-1.1848700046539307,0.891554057598114,0.48617005348205566,0.6298121213912964,0.08984716981649399,0.996677041053772,0.3109508752822876,0.6517233848571777,-0.08932603150606155,0.997624933719635,0.4826178252696991,0.8399314880371094,0.2532910406589508,0.9617043733596802,0.34026336669921875,0.8688381910324097,0.04097267985343933,0.978518009185791,0.48983725905418396,0.9759112596511841,0.9631444215774536,0.9007513523101807,0.3615639805793762,0.9983416795730591,0.6152627468109131,0.9179622530937195,0.4731530249118805,0.9853529334068298,1.012012243270874,0.836585283279419,0.36661332845687866,1.0335652828216553,0.6554058790206909,0.685038685798645,0.5572656393051147,1.0275416374206543,0.7008206248283386,0.8455848097801208,0.3954472243785858,1.0967705249786377,0.25036877393722534,0.8028592467308044
18580.639402417284,0.4341517984867096,0.23162731528282166,-0.857565701007843,0.9999533891677856,0.4394991993904114,0.20897749066352844,-0.7898612022399902,0.9999191761016846,0.44823798537254333,0.20812401175498962,-0.7901226282119751,0.9999099969863892,0.45641160011291504,0.2072565257549286,-0.7902733683586121,0.9999035596847534,0.40687471628189087,0.20975619554519653,-0.8244742155075073,0.9999223947525024,0.3889670968055725,0.20983752608299255,-0.8245716094970703,0.9999146461486816,0.3710765242576599,0.21019279956817627,-0.8247591853141785,0.9999052286148071,0.450293630361557,0.21476823091506958,-0.40649092197418213,0.9999204874038696,0.32159340381622314,0.22136104106903076,-0.5703290104866028,0.9999366998672485,0.4425440728664398,0.25540924072265625,-0.7143499851226807,0.99997878074646,0.40825554728507996,0.2571609616279602,-0.7609297633171082,0.9999828338623047,0.5271766781806946,0.34741219878196716,-0.15678365528583527,0.9998940229415894,0.17568771541118622,0.3687345087528229,-0.42599809169769287,0.9996046423912048,0.5822427272796631,0.5038731098175049,0.06971187889575958,0.9725760817527771,0.13429822027683258,0.5157610177993774,-0.6261947154998779,0.9536745548248291,0.6392280459403992,0.634355366230011,-0.2336539775133133,0.9679698944091797,0.212566077709198,0.5580650568008423,-1.1863163709640503,0.8950056433677673,0.6582076549530029,0.6753742098808289,-0.33116552233695984,0.947462797164917,0.24638941884040833,0.5694953203201294,-1.3179559707641602,0.8741589188575745,0.6422521471977234,0.674772322177887,-0.425898939371109,0.9530083537101746,0.25393229722976685,0.5427926778793335,-1.3881335258483887,0.8817561268806458,0.6316721439361572,0.664828896522522,-0.27748143672943115,0.9531661868095398,0.24816064536571503,0.5365588665008545,-1.2244813442230225,0.8642497062683105,0.4878326654434204,0.6327977776527405,0.10261446237564087,0.9976708292961121,0.3166958689689636,0.6557598114013672,-0.10213766992092133,0.9977895021438599,0.4817225933074951,0.843604326248169,0.21539542078971863,0.954891562461853,0.34011784195899963,0.8765931129455566,0.015441524796187878,0.9568271636962891,0.49011877179145813,0.9705810546875,1.0397619009017944,0.8630319237709045,0.35680168867111206,0.9921780228614807,0.680752158164978,0.8552060127258301,0.47449883818626404,0.9783115983009338,1.1010005474090576,0.76505446434021,0.3524397313594818,0.990229070186615,0.7305867671966553,0.557106614112854,0.5386333465576172,1.029670000076294,0.7780801057815552,0.7875818014144897,0.39173829555511475,1.0966317653656006,0.30854302644729614,0.7077005505561829
18597.306069083952,0.4337652027606964,0.2317063808441162,-0.8654093742370605,0.9999387264251709,0.4393737316131592,0.2089017629623413,-0.7974564433097839,0.9998946189880371,0.4480506479740143,0.20798584818840027,-0.797727108001709,0.9998821020126343,0.4562932550907135,0.20707717537879944,-0.7978854179382324,0.9998735189437866,0.4063621759414673,0.20978552103042603,-0.8309022784233093,0.9998993873596191,0.38817065954208374,0.20982158184051514,-0.8310091495513916,0.999889612197876,0.37026143074035645,0.21011918783187866,-0.8312081694602966,0.999879002571106,0.4506162703037262,0.2147291898727417,-0.41286683082580566,0.999893069267273,0.32145872712135315,0.2211063802242279,-0.5713440179824829,0.9999212026596069,0.44211652874946594,0.2556469142436981,-0.7217962741851807,0.9999724626541138,0.4075597822666168,0.2573677599430084,-0.766829252243042,0.9999786615371704,0.5277724862098694,0.34798863530158997,-0.1570977419614792,0.9998714923858643,0.1769353300333023,0.36824581027030945,-0.42896410822868347,0.9995989203453064,0.5815594792366028,0.5050617456436157,0.06645368784666061,0.9677374958992004,0.13359446823596954,0.5153259038925171,-0.6234038472175598,0.9555476903915405,0.6393944025039673,0.6349467635154724,-0.23890580236911774,0.9623619318008423,0.22191788256168365,0.5576583743095398,-1.1715279817581177,0.8965004086494446,0.6583875417709351,0.6759662628173828,-0.336089551448822,0.9398523569107056,0.25607550144195557,0.5696918368339539,-1.302341341972351,0.8737017512321472,0.6424663066864014,0.6751734614372253,-0.43063971400260925,0.9459699392318726,0.26211607456207275,0.5423101782798767,-1.3693130016326904,0.8809260725975037,0.6319369673728943,0.6651952266693115,-0.28264370560646057,0.9461349248886108,0.2567201852798462,0.5360411405563354,-1.2079048156738281,0.8625834584236145,0.48756518959999084,0.6340780258178711,0.10783476382493973,0.9974512457847595,0.31757161021232605,0.6570051312446594,-0.1073933020234108,0.9976255297660828,0.48154520988464355,0.8477857112884521,0.22213652729988098,0.9464566707611084,0.340575248003006,0.8795161247253418,0.008612826466560364,0.9539757966995239,0.48980090022087097,0.9730074405670166,1.0426931381225586,0.8458244800567627,0.3571765422821045,0.9951053261756897,0.6718606948852539,0.8436272144317627,0.4739067554473877,0.9802426695823669,1.1034890413284302,0.7474391460418701,0.3515506386756897,0.9911541938781738,0.7216514945030212,0.538646936416626,0.5388661026954651,1.0321056842803955,0.7804526686668396,0.7671869993209839,0.39530274271965027,1.0996451377868652,0.2984691262245178,0.6919108629226685
18613.97273575062,0.43350687623023987,0.23303437232971191,-0.9848129749298096,0.9999831914901733,0.4392162561416626,0.2102324664592743,-0.9183624386787415,0.9999691247940063,0.4479873478412628,0.20920529961585999,-0.9185121655464172,0.9999643564224243,0.45598316192626953,0.20811203122138977,-0.9185224771499634,0.9999593496322632,0.4057447016239166,0.21167442202568054,-0.9519829750061035,0.9999728202819824,0.3873375654220581,0.2119399905204773,-0.952090322971344,0.9999704360961914,0.3689243197441101,0.2123335599899292,-0.952215313911438,0.9999666213989258,0.44945284724235535,0.215705007314682,-0.5322281718254089,0.9999637603759766,0.3199193477630615,0.22297272086143494,-0.6950058937072754,0.9999771118164062,0.441732794046402,0.25649717450141907,-0.8412527441978455,0.9999905824661255,0.4065811038017273,0.2590489089488983,-0.8873390555381775,0.9999935626983643,0.5289509296417236,0.3485450744628906,-0.27343884110450745,0.9999105930328369,0.17179854214191437,0.3692120909690857,-0.5370739698410034,0.9997926354408264,0.580597996711731,0.5056527853012085,-0.0319577157497406,0.9755064249038696,0.13354995846748352,0.5153311491012573,-0.7148250937461853,0.9706847667694092,0.6399964690208435,0.6330880522727966,-0.32284581661224365,0.9717833995819092,0.22367165982723236,0.5583692789077759,-1.235524296760559,0.9189226627349854,0.6593835353851318,0.6746251583099365,-0.4179738163948059,0.9519836902618408,0.26134738326072693,0.5704739093780518,-1.3660914897918701,0.8955096006393433,0.6439276933670044,0.673957109451294,-0.5159172415733337,0.9566571712493896,0.2696390748023987,0.5435513257980347,-1.4332003593444824,0.9005933403968811,0.63316810131073,0.6637739539146423,-0.3675309121608734,0.9571263194084167,0.2617374062538147,0.5369371175765991,-1.2718685865402222,0.8849124312400818,0.48745104670524597,0.6287749409675598,0.09994421154260635,0.998108983039856,0.3145197033882141,0.65035080909729,-0.09948348253965378,0.9985299110412598,0.48297858238220215,0.8271508812904358,0.34789538383483887,0.9670794010162354,0.3363568186759949,0.8611019253730774,0.11240524053573608,0.9813625812530518,0.4846915602684021,0.9590479135513306,1.1516320705413818,0.923302948474884,0.3552706837654114,0.9888085126876831,0.7757193446159363,0.9368239045143127,0.46378377079963684,0.9689105153083801,1.2113710641860962,0.8740234375,0.3504108190536499,0.9896217584609985,0.8259720802307129,0.7477274537086487,0.5359539985656738,1.0191712379455566,0.9067067503929138,0.8877549767494202,0.38789474964141846,1.0783804655075073,0.42246320843696594,0.8461283445358276
18630.639402417288,0.43503454327583313,0.23109951615333557,-0.9135863780975342,0.9999880790710449,0.44021886587142944,0.2083125114440918,-0.8497642874717712,0.9999785423278809,0.4485887289047241,0.20724868774414062,-0.8499295115470886,0.9999760389328003,0.45657944679260254,0.2062562108039856,-0.8499871492385864,0.9999723434448242,0.40734240412712097,0.20948651432991028,-0.880950927734375,0.999980092048645,0.389137864112854,0.20939025282859802,-0.881027340888977,0.9999780654907227,0.37137600779533386,0.20962709188461304,-0.8811387419700623,0.9999747276306152,0.4498137831687927,0.2144683301448822,-0.4792393743991852,0.9999783039093018,0.32194259762763977,0.22076654434204102,-0.6296096444129944,0.9999836683273315,0.4434947073459625,0.254508376121521,-0.7751989960670471,0.9999934434890747,0.4089187979698181,0.25691917538642883,-0.8178300261497498,0.9999949932098389,0.5296550393104553,0.34829652309417725,-0.24602948129177094,0.9999383687973022,0.17157582938671112,0.3688358962535858,-0.4682503342628479,0.9998152852058411,0.5822575092315674,0.5063726902008057,-0.02334420755505562,0.9794110059738159,0.13229051232337952,0.5137040019035339,-0.660540759563446,0.9658272862434387,0.6435547471046448,0.6356424689292908,-0.3102450370788574,0.9745834469795227,0.21370074152946472,0.5570191740989685,-1.2030776739120483,0.9211582541465759,0.6622492074966431,0.6758062839508057,-0.4023602306842804,0.956199586391449,0.24565143883228302,0.5703169107437134,-1.3280941247940063,0.8996273875236511,0.6492063999176025,0.675139844417572,-0.49924638867378235,0.9608348608016968,0.2552090287208557,0.5428386330604553,-1.396942138671875,0.9055694937705994,0.6398816704750061,0.6658092141151428,-0.35461732745170593,0.96173095703125,0.2505125105381012,0.5360574722290039,-1.2407808303833008,0.8926541209220886,0.48684626817703247,0.6234778761863708,0.07384643703699112,0.9983242154121399,0.31122249364852905,0.648102343082428,-0.07329017668962479,0.998659610748291,0.48088544607162476,0.8301628828048706,0.21261674165725708,0.978679895401001,0.3415582478046417,0.8602840304374695,0.06199951469898224,0.9812756776809692,0.4891676604747772,0.9675575494766235,0.9943286776542664,0.937079906463623,0.35959792137145996,0.9872152805328369,0.6966700553894043,0.9369946718215942,0.475663423538208,0.9774273633956909,1.049729824066162,0.8680292963981628,0.3593531548976898,0.9882206916809082,0.7430685758590698,0.7312732338905334,0.5399946570396423,1.0241823196411133,0.7302473187446594,0.8838289380073547,0.36608195304870605,1.0789735317230225,0.34133386611938477,0.842860996723175
18647.306069083956,0.43540501594543457,0.23071405291557312,-0.9142530560493469,0.9999873638153076,0.44055110216140747,0.20709741115570068,-0.8510765433311462,0.999976634979248,0.4490090310573578,0.20589503645896912,-0.8512324094772339,0.9999731779098511,0.4568871855735779,0.20486679673194885,-0.8512747883796692,0.9999688863754272,0.40761280059814453,0.2085224986076355,-0.8821889162063599,0.9999792575836182,0.38922831416130066,0.20839503407478333,-0.8822824358940125,0.9999772310256958,0.37095314264297485,0.20879188179969788,-0.8824185729026794,0.9999743700027466,0.4492911398410797,0.21350136399269104,-0.4816072881221771,0.9999750852584839,0.31984835863113403,0.22070899605751038,-0.6320978999137878,0.9999834299087524,0.4437437951564789,0.25375571846961975,-0.7759480476379395,0.9999929666519165,0.4091479182243347,0.25647392868995667,-0.8186426162719727,0.9999949932098389,0.5280510187149048,0.3475106954574585,-0.24334578216075897,0.9999324083328247,0.16988128423690796,0.36886802315711975,-0.4723981022834778,0.9998412132263184,0.5819175243377686,0.5057784914970398,-0.011991385370492935,0.9783356785774231,0.13098104298114777,0.5142890810966492,-0.6675119400024414,0.9697539210319519,0.6427887082099915,0.6357274651527405,-0.2947617471218109,0.9758090376853943,0.22077374160289764,0.555905818939209,-1.2127052545547485,0.9349331259727478,0.6624819040298462,0.6757521629333496,-0.38588747382164,0.9590350985527039,0.25267162919044495,0.5687331557273865,-1.338039517402649,0.9160970449447632,0.6506261825561523,0.6749266982078552,-0.4822804927825928,0.9631826281547546,0.26005280017852783,0.5402527451515198,-1.405838966369629,0.9208337664604187,0.6413286924362183,0.665823221206665,-0.33848491311073303,0.963782548904419,0.25677216053009033,0.5339809060096741,-1.2493348121643066,0.9083375334739685,0.4864868223667145,0.6243097186088562,0.07582365721464157,0.9982600808143616,0.3103635907173157,0.6486143469810486,-0.07533908635377884,0.9986966252326965,0.48138442635536194,0.8292752504348755,0.22097466886043549,0.9764869809150696,0.3410954177379608,0.8627871870994568,0.06529808044433594,0.979873538017273,0.4894638657569885,0.9673095941543579,1.0052436590194702,0.9319068789482117,0.36002442240715027,0.9879236221313477,0.6990124583244324,0.9353115558624268,0.47570228576660156,0.977053701877594,1.0615060329437256,0.8626011610031128,0.36162233352661133,0.9876971244812012,0.7457769513130188,0.7358325719833374,0.541705846786499,1.023216962814331,0.7498902082443237,0.8792764544487,0.36775848269462585,1.0812448263168335,0.34691253304481506,0.841336190700531
18663.972735750624,0.43311381340026855,0.22978103160858154,-0.9019151926040649,0.9999891519546509,0.4376199543476105,0.20532453060150146,-0.8391450047492981,0.9999798536300659,0.44656556844711304,0.20387345552444458,-0.8393116593360901,0.9999768733978271,0.4547656774520874,0.20274212956428528,-0.8393635153770447,0.9999734163284302,0.4039073884487152,0.2076365351676941,-0.8669244647026062,0.9999821186065674,0.3851773142814636,0.20787811279296875,-0.8670104146003723,0.9999799728393555,0.36787694692611694,0.20874342322349548,-0.8671170473098755,0.9999775886535645,0.448737233877182,0.21205231547355652,-0.4737231731414795,0.9999778270721436,0.3187848627567291,0.22142532467842102,-0.6090974807739258,0.9999854564666748,0.44438257813453674,0.25211021304130554,-0.7658478021621704,0.9999936819076538,0.4079379737377167,0.2549273669719696,-0.8040401935577393,0.9999954700469971,0.5292513370513916,0.3493846356868744,-0.23872621357440948,0.9999333620071411,0.17314909398555756,0.3682953417301178,-0.45690038800239563,0.999849796295166,0.5800265669822693,0.5051592588424683,-0.021303078159689903,0.9788420796394348,0.12955091893672943,0.5121747255325317,-0.6468905210494995,0.9708299040794373,0.6416961550712585,0.6325113773345947,-0.30443283915519714,0.9753550887107849,0.22670455276966095,0.5584360957145691,-1.1782184839248657,0.9281603097915649,0.659611701965332,0.6739714741706848,-0.3950537145137787,0.9581711292266846,0.2548351585865021,0.5719817876815796,-1.3014644384384155,0.9068321585655212,0.6466629505157471,0.672636866569519,-0.4911808669567108,0.962175190448761,0.2677017152309418,0.5446407198905945,-1.3678874969482422,0.9117324948310852,0.6379432678222656,0.6631029844284058,-0.34800732135772705,0.9629124402999878,0.2644846737384796,0.5381679534912109,-1.2143118381500244,0.8999711871147156,0.4836839437484741,0.6247243881225586,0.08050649613142014,0.9981213212013245,0.3092493414878845,0.6490795016288757,-0.08000704646110535,0.998606264591217,0.4785163402557373,0.8312428593635559,0.2275654375553131,0.9727801084518433,0.3389909565448761,0.8615657091140747,0.048134904354810715,0.9816405177116394,0.4885570704936981,0.9717062711715698,0.9451279044151306,0.9281300902366638,0.3570961356163025,0.9923797845840454,0.6307429075241089,0.9361565709114075,0.4725879728794098,0.9823430776596069,0.9943720102310181,0.8648372888565063,0.3580070436000824,0.9933274984359741,0.671739935874939,0.7352120876312256,0.5427640676498413,1.024850606918335,0.6840612292289734,0.8741442561149597,0.36769574880599976,1.0832431316375732,0.27422475814819336,0.8376932144165039
18680.63940241729,0.4339342713356018,0.23178830742835999,-0.8766655921936035,0.999985933303833,0.4394060969352722,0.20840033888816833,-0.8154003620147705,0.9999732971191406,0.4482533931732178,0.20718136429786682,-0.815558135509491,0.999970555305481,0.45636698603630066,0.20609968900680542,-0.8156474828720093,0.999966025352478,0.40594005584716797,0.2099662721157074,-0.8461620211601257,0.9999755620956421,0.38753029704093933,0.20992106199264526,-0.8462310433387756,0.9999735355377197,0.3696972727775574,0.21029916405677795,-0.8463438153266907,0.9999696016311646,0.4497726261615753,0.2146279215812683,-0.4527641534805298,0.9999723434448242,0.32061582803726196,0.22167012095451355,-0.6015660762786865,0.9999798536300659,0.4433802664279938,0.25498199462890625,-0.7401406168937683,0.9999918937683105,0.408019095659256,0.25737735629081726,-0.7823650240898132,0.9999939203262329,0.5264019966125488,0.3478046655654907,-0.21370160579681396,0.9999313354492188,0.17203053832054138,0.36766231060028076,-0.45189234614372253,0.9997996687889099,0.5785897374153137,0.5050908327102661,0.025983111932873726,0.9784263968467712,0.12771037220954895,0.5097659230232239,-0.6398224830627441,0.9657557010650635,0.6404304504394531,0.6327266097068787,-0.22514039278030396,0.9740918278694153,0.23404595255851746,0.5591289401054382,-1.1521806716918945,0.9186129570007324,0.6595860719680786,0.6743445992469788,-0.3075628876686096,0.956381618976593,0.26546135544776917,0.5720618963241577,-1.270033359527588,0.898077130317688,0.6468702554702759,0.673489511013031,-0.3995651602745056,0.9609383940696716,0.2748408019542694,0.5446455478668213,-1.3347959518432617,0.9038796424865723,0.6380230784416199,0.663948118686676,-0.2661375105381012,0.9615408182144165,0.2675069272518158,0.5378832221031189,-1.1867109537124634,0.8903215527534485,0.482500821352005,0.6261689066886902,0.08116982132196426,0.997944176197052,0.30756986141204834,0.6497008204460144,-0.08067478984594345,0.9981933236122131,0.4794169068336487,0.832010805606842,0.18218988180160522,0.9687966704368591,0.3412094712257385,0.8625842332839966,0.021449299529194832,0.9725223183631897,0.48862969875335693,0.9699545502662659,0.9054754972457886,0.911650538444519,0.35826998949050903,0.9901179671287537,0.6167341470718384,0.9063022136688232,0.47361308336257935,0.9785688519477844,0.9560398459434509,0.8263142108917236,0.35525310039520264,0.9885234832763672,0.6600452661514282,0.6615235209465027,0.5578140616416931,1.0370832681655884,0.6451983451843262,0.8419309258460999,0.3782018721103668,1.0846408605575562,0.2640807628631592,0.7803395390510559
18697.30606908396,0.4337056875228882,0.23273292183876038,-0.8801798820495605,0.9999827146530151,0.4390786290168762,0.20963293313980103,-0.8190294504165649,0.9999698400497437,0.4476420283317566,0.20845305919647217,-0.8192194104194641,0.9999669790267944,0.45579615235328674,0.20733916759490967,-0.8193426132202148,0.9999629259109497,0.4063676595687866,0.21108874678611755,-0.8493825793266296,0.9999711513519287,0.3885461688041687,0.2110747992992401,-0.849459171295166,0.9999679327011108,0.37049630284309387,0.21129325032234192,-0.8495872020721436,0.9999629259109497,0.44928300380706787,0.21557694673538208,-0.4576243460178375,0.9999715089797974,0.321333110332489,0.2221183180809021,-0.6044814586639404,0.9999769926071167,0.44272488355636597,0.25609055161476135,-0.7441260814666748,0.9999909400939941,0.4081903398036957,0.25853556394577026,-0.7857317924499512,0.999992847442627,0.5286608338356018,0.34838804602622986,-0.22584903240203857,0.9999299049377441,0.17279034852981567,0.3682096600532532,-0.4512822926044464,0.9997691512107849,0.5784655809402466,0.5068128108978271,-0.006062645465135574,0.9791146516799927,0.1282275915145874,0.5101770162582397,-0.6393046975135803,0.9599865078926086,0.6421419978141785,0.6349902153015137,-0.2784484922885895,0.9745527505874634,0.22498364746570587,0.5581124424934387,-1.1569318771362305,0.8965690732002258,0.6608572006225586,0.6760219931602478,-0.36849069595336914,0.9567505717277527,0.2586984634399414,0.5708596110343933,-1.2759819030761719,0.8736960887908936,0.6478577852249146,0.6748154759407043,-0.46215811371803284,0.9613232016563416,0.26791200041770935,0.5440812110900879,-1.3441929817199707,0.8806933760643005,0.6387097835540771,0.6651805639266968,-0.320927232503891,0.9618238210678101,0.2618640661239624,0.5375919342041016,-1.193435549736023,0.8669410943984985,0.48286813497543335,0.6247457265853882,0.07853694260120392,0.9977090358734131,0.30723169445991516,0.6471443772315979,-0.07797510921955109,0.9981346130371094,0.4785146117210388,0.8363392949104309,0.1911889910697937,0.967289924621582,0.3412390351295471,0.8678423166275024,0.02598431706428528,0.972598671913147,0.49008408188819885,0.9737781882286072,0.9100151062011719,0.9057162404060364,0.3581051826477051,0.9922971129417419,0.6050397753715515,0.903965175151825,0.47548508644104004,0.9826257824897766,0.9597545266151428,0.8280968070030212,0.3565143346786499,0.9911123514175415,0.6460785269737244,0.6541416645050049,0.5636392831802368,1.0394119024276733,0.6469205617904663,0.8307287693023682,0.37320011854171753,1.0883042812347412,0.2459387332201004,0.7697166800498962
18713.972735750627,0.4326428771018982,0.23129358887672424,-0.9107989072799683,0.999990701675415,0.4383334219455719,0.20884087681770325,-0.8478910326957703,0.9999830722808838,0.4471120834350586,0.20801135897636414,-0.8480678200721741,0.9999817609786987,0.4556625187397003,0.20724138617515564,-0.8481593132019043,0.9999794960021973,0.4056341350078583,0.20991110801696777,-0.8782493472099304,0.9999837875366211,0.3874310553073883,0.21012651920318604,-0.8783037066459656,0.9999817609786987,0.36959776282310486,0.21058234572410583,-0.8783652782440186,0.9999780654907227,0.45059725642204285,0.21543246507644653,-0.4850502014160156,0.9999834299087524,0.3212609887123108,0.22199100255966187,-0.6315705180168152,0.9999847412109375,0.44103121757507324,0.2554827332496643,-0.7756194472312927,0.9999947547912598,0.40639403462409973,0.25709620118141174,-0.8170861601829529,0.9999955892562866,0.5282271504402161,0.34918901324272156,-0.2594279646873474,0.999943733215332,0.1748894602060318,0.3673711121082306,-0.48284947872161865,0.999797523021698,0.5792049169540405,0.505549430847168,-0.045979708433151245,0.9827994704246521,0.13749119639396667,0.5136736035346985,-0.6593855619430542,0.961747407913208,0.6407570838928223,0.632843554019928,-0.31885960698127747,0.9790897369384766,0.22540995478630066,0.560541570186615,-1.1613624095916748,0.9089598059654236,0.6591118574142456,0.6755439639091492,-0.41060811281204224,0.9627931714057922,0.26169610023498535,0.5716610550880432,-1.2843903303146362,0.8871861100196838,0.6472797393798828,0.6742703914642334,-0.5067611336708069,0.9667621850967407,0.27245017886161804,0.5483096241950989,-1.3496625423431396,0.8928419351577759,0.6385455131530762,0.6642761826515198,-0.36249199509620667,0.9672442078590393,0.2641129791736603,0.5415207743644714,-1.1974351406097412,0.8786276578903198,0.4825897216796875,0.6251980662345886,0.0871562659740448,0.9979928731918335,0.30798259377479553,0.6475837826728821,-0.08664938062429428,0.9983354210853577,0.4800008535385132,0.8344630002975464,0.2816174626350403,0.9738500714302063,0.3422556519508362,0.8606359958648682,0.07579508423805237,0.9852543473243713,0.4885769784450531,0.9689069986343384,1.0102880001068115,0.9324437379837036,0.35975512862205505,0.9919308423995972,0.6665711998939514,0.9446107149124146,0.4721572697162628,0.9787620306015015,1.0616861581802368,0.8756918907165527,0.35993099212646484,0.9913616180419922,0.7093183398246765,0.7570158243179321,0.571182370185852,1.03022038936615,0.7601553797721863,0.886333167552948,0.39052700996398926,1.0836442708969116,0.31901025772094727,0.8541845083236694
