0,1,2,3,4,5,6,7,8,9,10
19513.24528824963,-758.2201538085938,339.74407958984375,63.75118637084961,-375.58270263671875,-10.0443754196167,71.09297943115234,33.36002731323242,87.5575942993164,164.4028778076172,65535.0
19513.24568825818,-769.3873291015625,333.2458190917969,59.05592727661133,-381.1760559082031,-6.6770219802856445,72.735107421875,36.20291519165039,90.20061492919922,153.50985717773438,65535.0
19513.246088266733,-788.0059814453125,335.3741149902344,54.28301239013672,-392.0344543457031,-15.017189025878906,63.4923210144043,28.50423812866211,85.0284652709961,132.50320434570312,65535.0
19513.246488275287,-808.2533569335938,332.7153015136719,56.239479064941406,-398.42669677734375,-16.997318267822266,58.52109146118164,25.525636672973633,80.58651733398438,144.98081970214844,65535.0
19513.246888283837,-834.6985473632812,347.3175964355469,56.53945541381836,-390.4818115234375,-21.888309478759766,53.46492004394531,24.453866958618164,80.03776550292969,151.9390106201172,65535.0
19513.24728829239,-852.6070556640625,350.6350402832031,56.92040252685547,-396.6090393066406,-18.696985244750977,56.84620666503906,29.990148544311523,82.40270233154297,152.01321411132812,65535.0
19513.247688300944,-822.5238647460938,334.6124267578125,54.118316650390625,-418.84881591796875,-18.655794143676758,54.67621612548828,24.80266571044922,77.52252197265625,150.6242218017578,65535.0
19513.248088309498,-803.4979858398438,335.82489013671875,60.37858581542969,-449.4875793457031,-23.59908103942871,48.89146041870117,18.452133178710938,75.82685089111328,148.13987731933594,65535.0
19513.248488318048,-794.62158203125,331.4616394042969,61.31940841674805,-496.27032470703125,-21.280344009399414,51.82722473144531,19.297861099243164,76.40303039550781,145.62380981445312,65535.0
19513.2488883266,-802.062255859375,325.63238525390625,66.25740814208984,-524.3164672851562,-17.98443603515625,53.64546203613281,28.54700469970703,77.96368408203125,158.12342834472656,65535.0
19513.249288335155,-791.5482788085938,330.2210998535156,71.61323547363281,-523.1329345703125,-22.49616813659668,43.7476692199707,21.515687942504883,75.6097640991211,147.9696807861328,65535.0
19513.249688343705,-785.40234375,336.9405517578125,61.18054962158203,-510.53338623046875,-22.940465927124023,42.17626190185547,17.27651596069336,75.6788101196289,154.0294952392578,65535.0
19513.25008835226,-798.4774780273438,332.7046813964844,57.628639221191406,-513.1931762695312,-26.54784393310547,37.623756408691406,18.753679275512695,72.12300872802734,149.36245727539062,65535.0
19513.250488360813,-842.4959106445312,332.0335998535156,57.52866744995117,-511.5829772949219,-28.520523071289062,36.982295989990234,17.159717559814453,71.31978607177734,142.9905242919922,65535.0
19513.250888369366,-875.7965698242188,326.19805908203125,55.237518310546875,-516.1497192382812,-28.963245391845703,37.22785186767578,13.831710815429688,67.98834228515625,146.13583374023438,65535.0
19513.251288377916,-901.4823608398438,320.22607421875,52.125450134277344,-520.740478515625,-38.92118453979492,23.696613311767578,1.2638404369354248,56.79546356201172,159.42843627929688,65535.0
19513.25168838647,-898.3682250976562,334.8328552246094,47.658077239990234,-530.0563354492188,-33.190093994140625,30.471628189086914,5.939072608947754,64.73214721679688,146.66793823242188,65535.0
19513.252088395024,-889.4724731445312,328.2874450683594,42.107303619384766,-550.0680541992188,-27.171987533569336,36.44682693481445,18.881031036376953,70.76823425292969,140.95965576171875,65535.0
19513.252488403574,-893.625244140625,321.0164489746094,43.05178451538086,-580.3316650390625,-21.69585418701172,43.044898986816406,22.571319580078125,75.04991149902344,150.873046875,65535.0
19513.252888412128,-879.2793579101562,325.9093322753906,58.47821807861328,-591.898193359375,-23.26900863647461,43.10837173461914,18.394275665283203,73.51737213134766,145.82861328125,65535.0
19513.25328842068,-870.02294921875,321.1835632324219,56.86421203613281,-585.8952026367188,-22.212251663208008,47.60218811035156,21.846302032470703,78.42277526855469,164.00437927246094,65535.0
19513.253688429235,-863.4248046875,323.81256103515625,57.34667205810547,-561.0916748046875,-15.724494934082031,56.078086853027344,28.83692169189453,84.49972534179688,162.99163818359375,65535.0
19513.254088437785,-860.6179809570312,319.4814147949219,54.01319122314453,-522.0136108398438,-23.9041748046875,47.2730712890625,19.546232223510742,75.19031524658203,138.59402465820312,65535.0
19513.25448844634,-858.6109619140625,311.27459716796875,45.13418960571289,-479.7340393066406,-31.536579132080078,37.50270462036133,12.980975151062012,65.61605072021484,158.01893615722656,65535.0
19513.254888454892,-845.5126342773438,310.3272399902344,47.24458312988281,-466.5138854980469,-29.90622329711914,38.720298767089844,13.596256256103516,68.36404418945312,153.55764770507812,65535.0
19513.255288463442,-828.3289794921875,311.3666076660156,47.540611267089844,-455.9463195800781,-26.471778869628906,40.4902229309082,16.021181106567383,70.81864929199219,133.29562377929688,65535.0
19513.255688471996,-821.13720703125,310.8135070800781,44.39188003540039,-462.1654968261719,-24.40243148803711,48.89683151245117,19.453948974609375,71.57670593261719,140.02630615234375,65535.0
19513.25608848055,-816.91357421875,302.5560607910156,54.138370513916016,-473.36083984375,-22.34810447692871,52.20675277709961,23.518226623535156,76.06446075439453,158.2823944091797,65535.0
19513.256488489104,-801.894287109375,303.8456726074219,51.46590805053711,-475.7161560058594,-16.728422164916992,57.720706939697266,28.161359786987305,81.68289184570312,161.4176788330078,65535.0
19513.256888497654,-803.4865112304688,309.8566589355469,51.86185836791992,-459.3221435546875,-6.1663713455200195,69.57054901123047,35.96884536743164,90.01325988769531,149.92428588867188,65535.0
19513.257288506207,-805.0130615234375,302.4064025878906,43.17800521850586,-435.8143310546875,-21.016801834106445,57.12763214111328,24.635738372802734,77.04547119140625,150.269287109375,65535.0
19513.25768851476,-812.2689208984375,294.9629211425781,44.748531341552734,-412.1377868652344,-14.304011344909668,64.81805419921875,30.426517486572266,83.220703125,154.31375122070312,65535.0
19513.25808852331,-817.147705078125,297.5860900878906,59.451622009277344,-392.0149230957031,-9.218174934387207,69.8977279663086,34.124996185302734,88.86331939697266,143.4525146484375,65535.0
19513.258488531865,-811.4310302734375,290.51922607421875,52.737327575683594,-387.36248779296875,-9.051647186279297,73.67501831054688,34.178524017333984,89.12712860107422,142.33465576171875,65535.0
19513.25888854042,-820.6973876953125,293.3460388183594,46.72574996948242,-398.3334655761719,-8.785911560058594,72.93132019042969,35.4300537109375,87.32367706298828,150.4810028076172,65535.0
19513.259288548972,-823.5194702148438,297.6563720703125,44.615962982177734,-409.9287414550781,-9.315778732299805,76.99789428710938,35.433372497558594,89.34591674804688,151.92433166503906,65535.0
19513.259688557522,-822.893798828125,307.9277648925781,41.06840133666992,-432.9718933105469,-5.183302402496338,80.59571838378906,38.88496398925781,92.3634033203125,157.06930541992188,65535.0
19513.260088566076,-829.131591796875,304.41876220703125,50.3157958984375,-461.1830749511719,3.540062427520752,87.75372314453125,44.55268859863281,98.58174896240234,154.27108764648438,65535.0
19513.26048857463,-817.9849853515625,309.5545654296875,51.20722961425781,-470.8865661621094,1.0972102880477905,86.98046875,45.7377815246582,99.39185333251953,168.86976623535156,65535.0
19513.26088858318,-829.8605346679688,313.9521484375,51.38072967529297,-474.7428283691406,0.3663506507873535,86.93534851074219,43.624481201171875,94.93821716308594,163.01754760742188,65535.0
19513.261288591733,-834.0280151367188,310.28375244140625,53.25623321533203,-467.7112731933594,-4.814645767211914,80.74066925048828,37.70547103881836,93.66056060791016,151.3926544189453,65535.0
19513.261688600287,-833.6427001953125,315.6129455566406,51.212398529052734,-460.47210693359375,-5.340140342712402,83.56453704833984,41.70330047607422,92.85218048095703,160.0747833251953,65535.0
19513.26208860884,-836.3572998046875,319.4686279296875,51.91768264770508,-437.91937255859375,-1.889432668685913,85.11504364013672,42.77790832519531,97.10770416259766,154.23782348632812,65535.0
19513.26248861739,-837.7782592773438,317.9570007324219,62.583465576171875,-421.57073974609375,-11.118585586547852,78.78939056396484,37.502418518066406,92.02692413330078,150.90382385253906,65535.0
19513.262888625944,-826.521728515625,318.60064697265625,57.035308837890625,-418.2375793457031,-12.761672019958496,72.7989273071289,34.83530807495117,88.8206558227539,137.16961669921875,65535.0
19513.263288634498,-832.1663208007812,317.2231140136719,65.44470977783203,-424.63409423828125,-8.978962898254395,72.96331787109375,35.06644821166992,90.05377960205078,154.89645385742188,65535.0
19513.26368864305,-826.4376831054688,316.1951599121094,64.39334869384766,-425.9399719238281,-10.033700942993164,70.76261138916016,31.843116760253906,87.04938507080078,146.4174041748047,65535.0
19513.264088651602,-817.1232299804688,320.6853942871094,61.321346282958984,-429.02606201171875,-9.990656852722168,73.29678344726562,34.81190872192383,91.07171630859375,143.473388671875,65535.0
19513.264488660156,-830.7625732421875,322.0195617675781,52.44310760498047,-421.75750732421875,-12.34402084350586,66.8426742553711,31.039474487304688,83.1246109008789,146.1551055908203,65535.0
19513.26488866871,-817.2683715820312,327.44610595703125,56.67610549926758,-420.5576171875,-16.03272819519043,62.68614959716797,25.922061920166016,81.087646484375,153.2981719970703,65535.0
19513.26528867726,-811.9261474609375,324.7015686035156,63.09434127807617,-419.794677734375,-4.470252990722656,71.5445327758789,35.72084045410156,90.83572387695312,157.6255340576172,65535.0
19513.265688685813,-801.9352416992188,320.7256774902344,59.28940200805664,-412.847412109375,-5.007752418518066,75.02360534667969,36.997127532958984,89.12583923339844,159.87525939941406,65535.0
19513.266088694367,-791.5005493164062,322.8436584472656,71.10554504394531,-412.83087158203125,-13.78908634185791,61.53934860229492,27.944217681884766,81.44003295898438,155.44113159179688,65535.0
19513.266488702917,-793.714111328125,319.88397216796875,69.49845123291016,-408.9783630371094,-14.928262710571289,60.92556381225586,28.706056594848633,81.54322052001953,158.72767639160156,65535.0
19513.26688871147,-796.4658813476562,326.72052001953125,66.80400848388672,-390.631591796875,-13.348692893981934,61.65100860595703,33.52730941772461,83.080078125,164.91046142578125,65535.0
19513.267288720024,-796.0238647460938,334.2349548339844,60.73139572143555,-376.9538269042969,-15.228568077087402,57.72951126098633,29.246240615844727,83.07183837890625,143.65911865234375,65535.0
19513.267688728578,-796.94287109375,325.23028564453125,62.03876495361328,-372.6556091308594,-20.737863540649414,55.782501220703125,25.13921356201172,79.1590347290039,147.22836303710938,65535.0
19513.268088737128,-790.3927612304688,321.7444152832031,66.22077178955078,-363.7086486816406,-18.438722610473633,51.42253875732422,25.408987045288086,77.81236267089844,157.9237823486328,65535.0
19513.26848874568,-783.7325439453125,316.1788635253906,61.79779815673828,-355.06842041015625,-24.45061683654785,49.228538513183594,23.8887882232666,77.47167205810547,141.1816864013672,65535.0
19513.268888754235,-782.4005737304688,320.5841064453125,68.89411163330078,-348.22015380859375,-24.477994918823242,40.84149932861328,19.711875915527344,73.57845306396484,155.352783203125,65535.0
19513.269288762785,-770.15625,312.83416748046875,70.157958984375,-345.56256103515625,-24.44643783569336,38.37976837158203,15.206239700317383,69.42375946044922,142.21987915039062,65535.0
19513.26968877134,-748.7348022460938,309.2393798828125,68.51786804199219,-348.51751708984375,-18.857473373413086,45.28782272338867,22.31733512878418,75.87814331054688,154.0337371826172,65535.0
19513.270088779893,-733.243408203125,310.0184631347656,62.5399169921875,-362.4236755371094,-19.171415328979492,47.557159423828125,23.971981048583984,79.75565338134766,151.4861297607422,65535.0
19513.270488788447,-735.84814453125,300.5788879394531,57.55641555786133,-404.9303283691406,-21.046133041381836,43.855716705322266,21.453405380249023,78.63370513916016,143.03150939941406,65535.0
19513.270888796997,-754.99853515625,303.38311767578125,57.30795669555664,-445.14752197265625,-29.293136596679688,37.071895599365234,16.113155364990234,72.33451080322266,137.88597106933594,65535.0
19513.27128880555,-773.9446411132812,295.0509948730469,60.57917404174805,-476.57366943359375,-28.10947608947754,33.91423797607422,17.312501907348633,69.11959075927734,152.98631286621094,65535.0
19513.271688814104,-768.957275390625,296.95196533203125,58.334190368652344,-496.49578857421875,-26.38686180114746,33.935794830322266,17.51556396484375,67.39321899414062,151.65687561035156,65535.0
19513.272088822654,-760.93408203125,288.1559143066406,60.44266128540039,-476.83734130859375,-26.85986328125,37.10478591918945,15.691404342651367,72.09092712402344,143.75048828125,65535.0
19513.272488831208,-751.8547973632812,272.0306701660156,55.88449478149414,-469.79876708984375,-27.79863739013672,34.6405143737793,14.667220115661621,67.70663452148438,135.5010528564453,65535.0
19513.27288883976,-761.1343383789062,274.32061767578125,44.000823974609375,-478.6869812011719,-18.95336151123047,48.319156646728516,24.142017364501953,78.91484832763672,145.5498046875,65535.0
19513.27328884831,-765.8800048828125,274.9790954589844,50.034175872802734,-455.7052001953125,-18.18984031677246,46.891845703125,23.732526779174805,78.78295135498047,144.54476928710938,65535.0
19513.273688856865,-775.1612548828125,286.5382995605469,56.504905700683594,-438.630859375,-23.562604904174805,43.760009765625,20.906368255615234,72.58048248291016,148.97793579101562,65535.0
19513.27408886542,-775.0073852539062,295.0002136230469,47.089454650878906,-435.17156982421875,-15.136641502380371,52.7725944519043,26.18907356262207,79.36396026611328,151.34706115722656,65535.0
19513.274488873973,-770.273681640625,298.5852966308594,48.8847770690918,-434.52777099609375,-23.388015747070312,47.999916076660156,22.334747314453125,75.30884552001953,167.0952606201172,65535.0
19513.274888882523,-761.6920166015625,303.056640625,61.742095947265625,-429.0069274902344,-23.117355346679688,45.93655776977539,21.208486557006836,74.8797836303711,153.4483642578125,65535.0
19513.275288891076,-774.164306640625,289.3246154785156,54.77841567993164,-420.0752868652344,-30.9884090423584,39.90028762817383,14.91556167602539,67.76576232910156,146.27943420410156,65535.0
19513.27568889963,-770.0323486328125,291.8215026855469,39.39896774291992,-396.20306396484375,-22.429224014282227,48.65299606323242,22.589801788330078,78.15203094482422,138.83145141601562,65535.0
19513.27608890818,-768.0173950195312,292.0837097167969,56.04557800292969,-411.3797607421875,-12.981168746948242,58.39186477661133,29.973609924316406,82.53009033203125,145.84812927246094,65535.0
19513.276488916734,-763.86865234375,294.6568298339844,56.16916275024414,-411.2760009765625,-12.658342361450195,62.19156265258789,30.072847366333008,85.60234069824219,154.2030792236328,65535.0
19513.276888925287,-753.6690673828125,288.5909118652344,48.562496185302734,-423.5457763671875,-10.758668899536133,68.27305603027344,35.02189254760742,90.08163452148438,146.19871520996094,65535.0
19513.27728893384,-756.9786376953125,284.9833679199219,40.597015380859375,-437.0044250488281,-2.9632511138916016,77.98050689697266,41.87567901611328,96.00318908691406,145.137939453125,65535.0
19513.27768894239,-750.1910400390625,284.1380310058594,42.26187515258789,-432.99896240234375,-12.31624984741211,66.19252014160156,34.02295684814453,86.66703796386719,155.48910522460938,65535.0
19513.278088950945,-758.815185546875,291.64923095703125,46.62531280517578,-433.99481201171875,-18.194229125976562,63.8457145690918,28.353961944580078,84.49082946777344,161.84461975097656,65535.0
19513.2784889595,-778.565185546875,291.5160217285156,38.48200988769531,-433.8992919921875,-8.278813362121582,72.30294799804688,34.212127685546875,89.77373504638672,153.47421264648438,65535.0
19513.27888896805,-780.0355834960938,288.6781311035156,43.31453323364258,-423.28759765625,-5.830343723297119,77.32102966308594,36.51563262939453,92.59239196777344,149.0819091796875,65535.0
19513.279288976602,-788.1671752929688,297.34527587890625,55.47162628173828,-424.8150329589844,-11.458971977233887,75.98442840576172,31.09151840209961,88.0572280883789,143.62518310546875,65535.0
19513.279688985156,-819.7909545898438,292.35980224609375,58.549720764160156,-416.9134521484375,-12.379533767700195,72.71037292480469,32.086952209472656,87.13619232177734,144.05738830566406,65535.0
19513.28008899371,-825.7299194335938,287.46563720703125,57.789432525634766,-409.45391845703125,-13.721382141113281,69.52787017822266,29.92748260498047,83.66798400878906,146.5728759765625,65535.0
19513.28048900226,-826.1766357421875,301.8058166503906,52.29787826538086,-399.94287109375,-4.391327857971191,80.64513397216797,39.0767822265625,91.93097686767578,146.01419067382812,65535.0
19513.280889010814,-833.2695922851562,303.9480285644531,61.713165283203125,-398.4645690917969,-14.078145027160645,70.65318298339844,31.01648712158203,83.79312896728516,140.3528289794922,65535.0
19513.281289019367,-827.1887817382812,297.3544616699219,62.025638580322266,-431.2137145996094,-10.076957702636719,74.36431884765625,30.857086181640625,87.091552734375,143.29457092285156,65535.0
19513.281689027917,-815.1963500976562,292.7633056640625,63.18331527709961,-459.13079833984375,-6.534247875213623,77.8293228149414,37.32264709472656,91.49861145019531,145.17083740234375,65535.0
19513.28208903647,-810.9307250976562,290.92901611328125,75.8797836303711,-488.47540283203125,-9.352869033813477,76.40377807617188,32.998931884765625,86.28523254394531,132.8238525390625,65535.0
19513.282489045025,-824.3474731445312,302.3463134765625,75.0545654296875,-524.1405639648438,-12.4468412399292,70.446533203125,30.315439224243164,82.90572357177734,144.72463989257812,65535.0
19513.28288905358,-830.5067749023438,305.67462158203125,66.07096862792969,-522.6455078125,-15.901609420776367,67.85102844238281,31.73188018798828,83.4465560913086,148.8650665283203,65535.0
19513.28328906213,-825.8135986328125,307.6243896484375,57.70902633666992,-509.9556884765625,-12.177642822265625,70.17436218261719,31.25482749938965,85.43761444091797,142.81869506835938,65535.0
19513.283689070682,-831.2833862304688,302.7698669433594,62.99723434448242,-493.0948791503906,-12.117960929870605,69.27741241455078,28.65267562866211,84.39213562011719,136.28968811035156,65535.0
19513.284089079236,-830.9462280273438,298.77569580078125,74.60903930664062,-475.04913330078125,-17.331050872802734,65.09361267089844,25.950780868530273,81.53846740722656,154.70779418945312,65535.0
19513.284489087786,-829.26318359375,307.7696533203125,69.82086181640625,-462.6612243652344,-17.52955436706543,62.63494873046875,27.13300323486328,78.44984436035156,149.42286682128906,65535.0
19513.28488909634,-831.0098876953125,308.04559326171875,70.55441284179688,-448.37896728515625,-13.923429489135742,64.68927001953125,25.12851905822754,80.9808120727539,147.23985290527344,65535.0
19513.285289104893,-822.509521484375,297.5335693359375,61.744407653808594,-435.6483459472656,-11.49566650390625,66.56597900390625,29.850162506103516,85.58049011230469,151.29330444335938,65535.0
19513.285689113447,-819.1547241210938,299.73486328125,60.89311981201172,-431.3054504394531,-10.2144136428833,67.38325500488281,33.78349685668945,84.31718444824219,135.75430297851562,65535.0
19513.286089121997,-805.1917724609375,297.3342590332031,84.07939147949219,-434.5675354003906,-3.4241623878479004,71.92276763916016,37.81139373779297,91.23464965820312,145.79884338378906,65535.0
19513.28648913055,-804.7637329101562,305.2594909667969,73.85147857666016,-429.9482421875,-1.7767608165740967,73.3053970336914,39.22434997558594,92.27397155761719,146.6874542236328,65535.0
19513.286889139104,-805.9738159179688,312.2821960449219,72.15599822998047,-430.8717956542969,0.1268380582332611,73.74491882324219,41.43824768066406,94.09427642822266,147.3175048828125,65535.0
19513.287289147655,-799.5554809570312,308.21142578125,70.02062225341797,-432.26806640625,-15.215899467468262,58.54529571533203,31.205101013183594,79.75883483886719,142.14752197265625,65535.0
19513.28768915621,-789.2208862304688,303.3652038574219,70.0826416015625,-427.20013427734375,-23.01948356628418,46.16951370239258,21.059804916381836,73.49911499023438,144.7822265625,65535.0
19513.288089164762,-792.7733154296875,304.5955505371094,80.37657928466797,-407.7077331542969,-11.304585456848145,56.84931945800781,33.311405181884766,85.2950668334961,143.93162536621094,65535.0
19513.288489173316,-799.4992065429688,308.5595703125,71.77262878417969,-402.5107421875,-13.753396987915039,53.206703186035156,30.311006546020508,82.210205078125,138.22149658203125,65535.0
19513.288889181866,-798.0521240234375,317.2116394042969,65.97733306884766,-433.00457763671875,-11.803359985351562,56.23320007324219,31.176837921142578,86.77912139892578,154.20509338378906,65535.0
19513.28928919042,-789.4081420898438,320.901611328125,73.58631134033203,-439.5247497558594,-22.261648178100586,41.48185348510742,18.81464958190918,72.9402084350586,156.3262939453125,65535.0
19513.289689198973,-778.05859375,323.3829345703125,66.01376342773438,-446.5362854003906,-17.194276809692383,46.71352767944336,24.624738693237305,79.79911804199219,150.70602416992188,65535.0
19513.290089207523,-777.6754150390625,305.7451477050781,52.946632385253906,-468.3493957519531,-18.53922462463379,49.147254943847656,28.99662208557129,80.68511199951172,144.91102600097656,65535.0
19513.290489216077,-769.21875,313.49591064453125,61.3849983215332,-478.69671630859375,-17.78162956237793,49.86235427856445,27.757530212402344,81.85205841064453,138.82191467285156,65535.0
19513.29088922463,-759.5438842773438,305.2962341308594,63.93585968017578,-479.23748779296875,-24.083147048950195,41.693477630615234,19.99721336364746,74.68136596679688,140.73263549804688,65535.0
19513.291289233184,-751.313232421875,311.50201416015625,66.55970001220703,-491.1060485839844,-23.387582778930664,39.633155822753906,18.687192916870117,71.1695785522461,147.16380310058594,65535.0
19513.291689241734,-738.91943359375,306.8271789550781,73.43985748291016,-490.3695373535156,-10.194914817810059,55.5530891418457,33.69644546508789,87.08356475830078,147.05331420898438,65535.0
19513.292089250288,-734.1504516601562,301.90521240234375,74.8996353149414,-481.7012634277344,-18.708860397338867,49.065311431884766,27.060041427612305,79.75614166259766,145.74957275390625,65535.0
19513.29248925884,-737.9334106445312,310.4148254394531,73.4093246459961,-469.49853515625,-26.959575653076172,37.16130447387695,15.689050674438477,69.88923645019531,142.8449249267578,65535.0
19513.29288926739,-735.968505859375,305.7594299316406,62.96581268310547,-483.6054382324219,-28.114070892333984,36.618141174316406,15.121739387512207,71.90948486328125,149.0067901611328,65535.0
19513.293289275945,-730.56591796875,305.21539306640625,61.89150619506836,-475.03289794921875,-23.4273624420166,39.29123306274414,19.21803092956543,72.06697845458984,148.380859375,65535.0
19513.2936892845,-723.3512573242188,302.7547912597656,56.33937072753906,-451.01141357421875,-19.406736373901367,49.27500915527344,25.649789810180664,80.82611083984375,154.5088653564453,65535.0
19513.294089293053,-730.0038452148438,295.08245849609375,40.231903076171875,-450.89849853515625,-26.087764739990234,43.207908630371094,17.571800231933594,71.90581512451172,158.39674377441406,65535.0
19513.294489301603,-735.3396606445312,301.0816650390625,56.6005859375,-459.505126953125,-28.588897705078125,40.683780670166016,15.862382888793945,69.33016204833984,131.89083862304688,65535.0
19513.294889310157,-735.8885498046875,294.7161865234375,57.99721908569336,-458.8294372558594,-21.20893669128418,47.58893966674805,21.78383445739746,75.35758972167969,140.73373413085938,65535.0
19513.29528931871,-740.4710083007812,287.4635009765625,53.02623748779297,-454.6185607910156,-11.117724418640137,61.267940521240234,32.48618698120117,84.1513900756836,138.31942749023438,65535.0
19513.29568932726,-752.0548706054688,290.46099853515625,54.02758026123047,-463.553955078125,-16.4448299407959,58.97232437133789,29.285442352294922,79.2357406616211,137.91981506347656,65535.0
19513.296089335814,-748.6079711914062,292.6239318847656,47.67692947387695,-448.404296875,-12.163830757141113,62.45414352416992,29.528217315673828,83.02291870117188,145.19796752929688,65535.0
19513.296489344368,-759.8613891601562,286.7059020996094,51.68888854980469,-421.46868896484375,-13.580239295959473,58.50300598144531,28.60248565673828,82.10424041748047,151.3352813720703,65535.0
19513.29688935292,-758.0284423828125,292.4013366699219,56.30100631713867,-396.5796203613281,-16.462570190429688,60.894683837890625,28.202138900756836,79.7165756225586,157.49855041503906,65535.0
19513.29728936147,-756.1873779296875,290.82647705078125,41.68511199951172,-365.434814453125,-16.62038230895996,61.09520721435547,26.704540252685547,80.05156707763672,142.15322875976562,65535.0
19513.297689370025,-750.9905395507812,283.5464782714844,42.70417022705078,-405.1398010253906,-9.616302490234375,71.80855560302734,35.37874984741211,89.00109100341797,141.80899047851562,65535.0
19513.29808937858,-751.3140258789062,296.31903076171875,47.44527053833008,-451.1344299316406,-10.636114120483398,69.51215362548828,34.04180145263672,82.96187591552734,156.33306884765625,65535.0
19513.29848938713,-754.8980712890625,293.9200439453125,49.289756774902344,-476.829345703125,-17.83100128173828,61.05280685424805,25.1788330078125,77.48332977294922,159.5961456298828,65535.0
19513.298889395683,-762.5302734375,289.8514709472656,47.6653938293457,-474.2391052246094,-13.418174743652344,69.84798431396484,31.105697631835938,85.14784240722656,139.392333984375,65535.0
19513.299289404236,-759.5518798828125,285.4131164550781,41.8806266784668,-485.1604309082031,-10.906598091125488,74.01940155029297,32.06134033203125,84.72981262207031,130.4258270263672,65535.0
19513.29968941279,-773.0145263671875,284.7005920410156,54.940025329589844,-480.64642333984375,-16.368425369262695,68.19947814941406,25.595754623413086,81.92700958251953,144.87832641601562,65535.0
19513.30008942134,-790.4481201171875,291.1565246582031,58.56052017211914,-465.0653381347656,-14.434666633605957,69.83068084716797,29.518205642700195,82.42131042480469,147.97030639648438,65535.0
19513.300489429894,-784.7288208007812,290.96820068359375,63.581886291503906,-454.4838562011719,-1.625610113143921,85.33793640136719,42.408424377441406,96.14410400390625,156.86033630371094,65535.0
19513.300889438447,-787.5713500976562,285.46905517578125,67.1318130493164,-459.3188171386719,-7.796277046203613,81.48609161376953,37.22106170654297,87.53288269042969,151.2311248779297,65535.0
19513.301289446998,-808.4884643554688,288.0583801269531,62.1016845703125,-466.4158935546875,-10.68678092956543,72.266357421875,32.57184982299805,84.3957290649414,160.1264190673828,65535.0
19513.30168945555,-815.42236328125,279.6778869628906,64.71078491210938,-459.7104187011719,-14.8505220413208,68.9258041381836,28.111116409301758,84.71339416503906,153.48947143554688,65535.0
19513.302089464105,-813.1556396484375,282.4239807128906,62.45887756347656,-456.3702697753906,-20.096357345581055,63.6931037902832,24.39742088317871,75.82156372070312,145.45724487304688,65535.0
19513.30248947266,-797.1450805664062,295.4096984863281,74.31583404541016,-478.2865905761719,-15.33658218383789,64.39454650878906,26.538347244262695,78.3400650024414,158.75015258789062,65535.0
19513.30288948121,-774.3397827148438,287.90472412109375,68.474365234375,-516.8078002929688,-15.40286636352539,66.01300048828125,26.49034309387207,82.14202880859375,139.9854278564453,65535.0
19513.303289489762,-783.21923828125,294.64892578125,66.96786499023438,-540.7848510742188,-18.428224563598633,65.21570587158203,27.09142303466797,82.42672729492188,121.65873718261719,65535.0
19513.303689498316,-791.7736206054688,290.1361389160156,67.45232391357422,-542.9242553710938,-11.042445182800293,68.11377716064453,28.49606704711914,86.77276611328125,135.85475158691406,65535.0
19513.304089506866,-800.4824829101562,279.6990966796875,65.56820678710938,-520.4217529296875,-22.355377197265625,54.14304733276367,17.096776962280273,72.05569458007812,151.02882385253906,65535.0
19513.30448951542,-807.2127075195312,274.1509704589844,65.6535873413086,-480.5704040527344,-19.243925094604492,56.456993103027344,21.21418571472168,76.48688507080078,144.515380859375,65535.0
19513.304889523974,-800.3993530273438,266.69805908203125,59.74203872680664,-464.0816345214844,-21.313560485839844,57.66243362426758,24.0529842376709,81.53262329101562,135.6084442138672,65535.0
19513.305289532527,-792.4131469726562,263.9731140136719,59.46357727050781,-471.2410888671875,-16.840293884277344,58.15006637573242,26.263273239135742,80.31305694580078,156.5305938720703,65535.0
19513.305689541077,-793.0494384765625,259.29449462890625,67.52369689941406,-493.8888854980469,-16.365009307861328,59.621063232421875,28.095149993896484,79.8313217163086,148.3104248046875,65535.0
19513.30608954963,-789.271728515625,267.8448181152344,71.5029525756836,-483.7445068359375,-12.098760604858398,60.27981948852539,32.907493591308594,85.24241638183594,138.57823181152344,65535.0
19513.306489558185,-802.1039428710938,264.29888916015625,73.11500549316406,-449.27166748046875,-21.925907135009766,51.01457977294922,22.164794921875,73.54903411865234,152.94314575195312,65535.0
19513.306889566735,-807.107177734375,251.51609802246094,71.93144226074219,-408.4961853027344,-24.82575798034668,44.520748138427734,17.71404266357422,72.66309356689453,146.830078125,65535.0
19513.30728957529,-793.0670166015625,253.431396484375,79.82695770263672,-391.84637451171875,-18.465087890625,51.53561019897461,24.147863388061523,80.19789123535156,156.006103515625,65535.0
19513.307689583842,-802.2437133789062,257.3522033691406,81.17320251464844,-372.5588073730469,-28.053634643554688,42.4932746887207,20.055755615234375,70.34642028808594,139.94772338867188,65535.0
19513.308089592396,-817.2354736328125,238.78224182128906,73.6268081665039,-356.8129577636719,-24.967700958251953,45.871803283691406,19.964038848876953,74.9105224609375,146.04440307617188,65535.0
19513.308489600946,-827.4078369140625,241.9184112548828,73.89622497558594,-349.077880859375,-33.39498519897461,36.64482879638672,14.450508117675781,64.60137939453125,155.37049865722656,65535.0
19513.3088896095,-824.9755859375,252.64309692382812,86.5649642944336,-376.9711608886719,-27.001998901367188,35.98393630981445,16.668832778930664,69.01185607910156,153.53041076660156,65535.0
19513.309289618053,-826.141845703125,238.1441650390625,80.35370635986328,-402.5616760253906,-23.350597381591797,41.314735412597656,21.79485321044922,76.4103012084961,145.71742248535156,65535.0
19513.309689626603,-807.0592651367188,233.52745056152344,74.89604187011719,-399.01470947265625,-27.59644889831543,36.38609313964844,14.40981388092041,69.8458251953125,144.43991088867188,65535.0
19513.310089635157,-777.914794921875,231.91787719726562,80.9640121459961,-397.01318359375,-33.06083297729492,31.071674346923828,7.549238681793213,67.06678771972656,139.33599853515625,65535.0
19513.31048964371,-779.0289306640625,235.55108642578125,82.82125854492188,-389.7381286621094,-32.08430099487305,29.760557174682617,10.840834617614746,64.75755310058594,145.97540283203125,65535.0
19513.310889652264,-798.9576416015625,217.7011260986328,78.90204620361328,-376.36749267578125,-29.295272827148438,32.97438049316406,11.421035766601562,66.43544006347656,162.4892578125,65535.0
19513.311289660815,-824.25634765625,215.90048217773438,83.80850982666016,-366.339111328125,-34.314640045166016,28.718502044677734,11.367757797241211,64.39257049560547,151.10142517089844,65535.0
19513.31168966937,-840.198486328125,207.12591552734375,88.65284729003906,-374.751953125,-26.95085906982422,33.189781188964844,17.433700561523438,71.37398529052734,146.81495666503906,65535.0
19513.312089677922,-862.6846313476562,200.06320190429688,84.67530822753906,-386.981689453125,-18.959196090698242,45.69619369506836,24.928682327270508,78.50711822509766,157.95993041992188,65535.0
19513.312489686472,-893.8267211914062,197.61492919921875,72.15504455566406,-410.14892578125,-25.646791458129883,41.0623664855957,17.66220474243164,70.6915512084961,138.4419403076172,65535.0
19513.312889695026,-885.0060424804688,201.58865356445312,74.74421691894531,-453.6570129394531,-21.553184509277344,44.50046920776367,23.96546745300293,77.36778259277344,144.60487365722656,65535.0
19513.31328970358,-868.7396850585938,197.75437927246094,71.09085845947266,-483.0033874511719,-18.92978858947754,47.40770721435547,23.830463409423828,79.86396789550781,150.8888702392578,65535.0
19513.313689712133,-844.0413818359375,198.62535095214844,79.79217529296875,-474.57965087890625,-22.30659294128418,46.72283172607422,22.050613403320312,75.62968444824219,158.3367156982422,65535.0
19513.314089720683,-821.8760375976562,195.8539581298828,87.3624496459961,-430.5506286621094,-16.90397071838379,56.19846725463867,29.114730834960938,82.06106567382812,154.78453063964844,65535.0
19513.314489729237,-800.1970825195312,188.43467712402344,79.99002838134766,-392.9604797363281,-18.21966552734375,54.884857177734375,25.983610153198242,81.22760009765625,149.34706115722656,65535.0
19513.31488973779,-790.8017578125,174.8582000732422,98.66405487060547,-359.0438537597656,-15.371973991394043,55.66844177246094,26.573184967041016,82.6473617553711,166.38870239257812,65535.0
19513.31528974634,-800.19091796875,178.4424591064453,92.4664306640625,-353.60260009765625,-12.878673553466797,59.10527801513672,31.07875633239746,82.70246887207031,144.5989532470703,65535.0
19513.315689754894,-802.1165771484375,174.77664184570312,88.73700714111328,-383.5174865722656,-12.00191879272461,65.16980743408203,31.971843719482422,88.93424987792969,145.67547607421875,65535.0
19513.316089763448,-789.1065063476562,162.59857177734375,97.90135955810547,-417.1745300292969,-10.32068920135498,65.03482055664062,33.12731170654297,90.3388442993164,158.54556274414062,65535.0
19513.316489772,-770.4063720703125,159.04457092285156,102.7288818359375,-439.7998962402344,-6.41358757019043,67.84674835205078,38.962730407714844,90.1575698852539,156.62033081054688,65535.0
19513.31688978055,-758.2628784179688,156.5790557861328,104.9261703491211,-456.4429931640625,0.48575493693351746,80.50631713867188,44.51926803588867,98.66390991210938,147.54714965820312,65535.0
19513.317289789105,-757.9122314453125,149.96205139160156,106.22946166992188,-470.2194519042969,-4.634622097015381,77.4048080444336,40.53050231933594,92.97279357910156,157.54934692382812,65535.0
19513.31768979766,-761.2698364257812,150.12828063964844,106.89939880371094,-462.9609375,-13.163702011108398,67.51988220214844,30.69800567626953,83.34380340576172,158.7034912109375,65535.0
19513.31808980621,-759.9889526367188,128.67510986328125,112.2282943725586,-480.2760314941406,-5.924654006958008,76.41204833984375,37.3565559387207,91.1680679321289,171.2537384033203,65535.0
19513.318489814763,-752.28271484375,106.1546859741211,108.2046127319336,-485.9892272949219,-6.860494136810303,76.219482421875,37.47240447998047,89.39016723632812,158.8398895263672,65535.0
19513.318889823317,-751.1272583007812,104.67510223388672,108.9189682006836,-494.5730285644531,-8.642342567443848,74.19227600097656,36.49111557006836,87.4994125366211,151.4117889404297,65535.0
19513.31928983187,-745.7198486328125,87.4945297241211,110.24990844726562,-498.3714599609375,-16.095617294311523,71.46454620361328,33.89008712768555,85.64353942871094,157.25083923339844,65535.0
19513.31968984042,-738.7648315429688,91.1996841430664,103.81784057617188,-510.4989013671875,-6.8280930519104,80.10991668701172,39.19572448730469,92.22937774658203,160.48306274414062,65535.0
19513.320089848974,-737.3455200195312,102.6101303100586,114.72335052490234,-510.8617858886719,-11.190598487854004,77.30017852783203,35.224090576171875,86.63570404052734,155.92965698242188,65535.0
19513.320489857528,-759.5231323242188,95.8535385131836,117.21941375732422,-510.4186706542969,-11.897815704345703,73.15487670898438,32.63701248168945,87.2159423828125,156.50953674316406,65535.0
19513.320889866078,-751.4437866210938,84.82572937011719,126.69453430175781,-511.6669921875,-11.26171875,73.62583923339844,31.289968490600586,85.31587982177734,159.83045959472656,65535.0
19513.32128987463,-732.5697021484375,84.51551818847656,127.07769012451172,-503.9579162597656,-17.228132247924805,69.9208755493164,27.939035415649414,82.49756622314453,160.41726684570312,65535.0
19513.321689883185,-722.1402587890625,93.46560668945312,128.81948852539062,-512.6841430664062,-14.115396499633789,68.40680694580078,30.113929748535156,83.66357421875,155.10765075683594,65535.0
19513.32208989174,-709.7610473632812,91.46492004394531,136.20611572265625,-509.0773620605469,-10.348921775817871,73.78849792480469,32.764015197753906,86.92178344726562,154.48431396484375,65535.0
19513.32248990029,-714.3372802734375,86.02291870117188,147.59783935546875,-507.74591064453125,-8.04405689239502,77.1463394165039,37.03860855102539,89.6286849975586,152.735595703125,65535.0
19513.322889908843,-703.2877807617188,74.1414794921875,153.35777282714844,-512.7761840820312,-5.982072830200195,77.79778289794922,36.71192932128906,91.35289001464844,164.2897186279297,65535.0
19513.323289917396,-710.9475708007812,61.78700256347656,150.242431640625,-521.62548828125,-10.458283424377441,75.71319580078125,35.18308639526367,87.34020233154297,148.87098693847656,65535.0
19513.323689925946,-733.2650146484375,55.43681335449219,159.8061065673828,-517.125244140625,-9.936970710754395,73.7405776977539,34.75325393676758,86.33399200439453,166.516845703125,65535.0
19513.3240899345,-766.1968994140625,48.3441276550293,154.9537811279297,-521.7718505859375,-9.97243595123291,71.42366790771484,32.5169563293457,87.14180755615234,155.2442626953125,65535.0
19513.324489943054,-798.76318359375,33.181983947753906,166.36338806152344,-526.2113037109375,-17.466236114501953,67.46307373046875,27.462854385375977,79.14521789550781,161.29910278320312,65535.0
19513.324889951607,-826.417724609375,23.273632049560547,167.30235290527344,-514.6842041015625,-10.883267402648926,69.6880111694336,32.13703918457031,85.7661361694336,156.74606323242188,65535.0
19513.325289960158,-847.2339477539062,8.286874771118164,161.04598999023438,-514.6578979492188,-6.864354133605957,74.60350799560547,38.056522369384766,91.18943786621094,150.76870727539062,65535.0
19513.32568996871,-832.61962890625,-1.720946192741394,170.1488037109375,-515.0885620117188,-20.2780704498291,58.821075439453125,25.727848052978516,77.743896484375,153.5786895751953,65535.0
19513.326089977265,-814.3994750976562,-9.198663711547852,171.32681274414062,-525.6219482421875,-21.620784759521484,54.76348876953125,23.6784725189209,75.839111328125,153.6941375732422,65535.0
19513.326489985815,-819.5716552734375,-12.780330657958984,174.5314178466797,-546.845458984375,-17.653459548950195,58.12944412231445,25.230228424072266,79.17790222167969,154.8539581298828,65535.0
19513.32688999437,-795.3944091796875,-9.08387565612793,198.39344787597656,-550.0957641601562,-26.377439498901367,44.54704666137695,14.243392944335938,67.189697265625,146.25360107421875,65535.0
19513.327290002922,-784.310302734375,-6.384653091430664,188.8565216064453,-557.7960815429688,-22.033832550048828,49.28871154785156,18.865568161010742,71.89213562011719,165.01046752929688,65535.0
19513.327690011476,-783.3513793945312,-21.030738830566406,190.9207000732422,-565.8721313476562,-21.164485931396484,50.73777389526367,23.282915115356445,74.76178741455078,152.54066467285156,65535.0
19513.328090020026,-786.5877075195312,-42.871673583984375,191.04197692871094,-573.0210571289062,-30.649646759033203,41.28110885620117,14.429553031921387,68.65084075927734,161.00003051757812,65535.0
19513.32849002858,-796.5515747070312,-61.32451248168945,179.44285583496094,-566.0643920898438,-27.515361785888672,41.531898498535156,14.56334114074707,67.62044525146484,166.5040740966797,65535.0
19513.328890037134,-793.8192138671875,-59.9076042175293,179.64759826660156,-559.9479370117188,-31.64113998413086,36.198974609375,14.328048706054688,69.3680419921875,157.2570037841797,65535.0
19513.329290045684,-788.3534545898438,-62.59649658203125,175.02902221679688,-565.16845703125,-34.57079315185547,29.0683650970459,8.118577003479004,63.52629852294922,140.73435974121094,65535.0
19513.329690054237,-787.2457885742188,-71.72535705566406,163.5528106689453,-559.7673950195312,-30.341970443725586,34.970645904541016,11.154136657714844,64.20866394042969,152.6415557861328,65535.0
19513.33009006279,-795.9570922851562,-68.37047576904297,161.77662658691406,-553.5669555664062,-30.707059860229492,31.637874603271484,12.941178321838379,62.00274658203125,164.0294952392578,65535.0
19513.33049007134,-804.2915649414062,-69.74138641357422,150.5906219482422,-543.4483642578125,-27.692276000976562,35.362892150878906,17.00168228149414,67.50753784179688,175.7669219970703,65535.0
19513.330890079895,-809.3358154296875,-87.56194305419922,144.58456420898438,-545.6971435546875,-29.950929641723633,32.071044921875,10.634215354919434,65.66168212890625,167.32945251464844,65535.0
19513.33129008845,-809.3892211914062,-92.0343017578125,140.11758422851562,-558.2294311523438,-33.86408996582031,31.105709075927734,8.689355850219727,63.33252716064453,166.1680450439453,65535.0
19513.331690097002,-805.529296875,-95.02344512939453,125.6336898803711,-579.989013671875,-35.34280776977539,30.583066940307617,10.017082214355469,64.63059997558594,172.53062438964844,65535.0
19513.332090105552,-808.8306274414062,-88.83216094970703,106.80215454101562,-602.724853515625,-36.9089469909668,27.902359008789062,8.38553237915039,63.59196472167969,168.75791931152344,65535.0
19513.332490114106,-808.5032348632812,-73.59102630615234,101.67910766601562,-601.8575439453125,-31.411285400390625,33.839073181152344,11.923934936523438,65.09195709228516,174.65101623535156,65535.0
19513.33289012266,-808.2775268554688,-75.94825744628906,101.18006134033203,-608.6978759765625,-35.797210693359375,28.206289291381836,7.56982946395874,61.072914123535156,166.36428833007812,65535.0
19513.33329013121,-815.5214233398438,-70.60277557373047,89.26399230957031,-608.4616088867188,-34.388545989990234,32.024383544921875,8.255102157592773,60.50615310668945,153.51467895507812,65535.0
19513.333690139763,-832.639892578125,-69.43047332763672,91.33331298828125,-617.4130249023438,-30.841672897338867,33.642112731933594,10.328343391418457,63.155391693115234,157.8341064453125,65535.0
19513.334090148317,-836.4908447265625,-69.28414916992188,92.51082611083984,-626.8970336914062,-28.850643157958984,42.125431060791016,17.271223068237305,71.74394226074219,169.59347534179688,65535.0
19513.33449015687,-831.2337646484375,-72.93672180175781,92.5535888671875,-622.0277709960938,-37.30968475341797,32.812259674072266,6.874603748321533,61.434295654296875,155.7294158935547,65535.0
19513.33489016542,-813.6537475585938,-78.52572631835938,97.6410140991211,-623.1135864257812,-36.80966567993164,28.96080207824707,8.08800983428955,57.73833465576172,161.749267578125,65535.0
19513.335290173974,-802.9817504882812,-84.75727081298828,79.22948455810547,-598.3627319335938,-40.755523681640625,30.02168083190918,6.226293563842773,59.753841400146484,159.43402099609375,65535.0
19513.33569018253,-794.9533081054688,-87.72026062011719,74.59071350097656,-603.9368286132812,-37.36361312866211,30.83193016052246,5.550308704376221,59.851097106933594,158.3956756591797,65535.0
19513.33609019108,-784.1870727539062,-96.45472717285156,69.51658630371094,-625.5855102539062,-34.8723258972168,33.805355072021484,7.812141418457031,60.81291961669922,159.3399200439453,65535.0
19513.336490199632,-775.5057373046875,-98.92472076416016,63.703651428222656,-647.6636962890625,-24.198713302612305,48.86504364013672,19.6224422454834,74.60591888427734,141.9224090576172,65535.0
19513.336890208186,-765.2166748046875,-93.51055145263672,58.15280532836914,-663.2896728515625,-16.18537712097168,57.89443588256836,27.67593765258789,82.27727508544922,152.34498596191406,65535.0
19513.33729021674,-746.5255737304688,-97.26216125488281,55.05857467651367,-666.7235717773438,-24.069271087646484,54.932861328125,20.2850284576416,72.62492370605469,142.88746643066406,65535.0
19513.33769022529,-755.0407104492188,-105.60832977294922,40.889766693115234,-665.6075439453125,-30.307077407836914,50.51332092285156,16.697208404541016,69.14157104492188,150.91429138183594,65535.0
19513.338090233843,-751.806884765625,-100.69635772705078,35.97663497924805,-665.0469970703125,-31.737136840820312,46.700653076171875,15.358210563659668,66.89591979980469,147.87567138671875,65535.0
19513.338490242397,-762.8055419921875,-88.79421997070312,29.790729522705078,-664.5772094726562,-32.83323669433594,46.48321533203125,11.427000045776367,65.70243835449219,150.37899780273438,65535.0
19513.338890250947,-756.4921875,-80.45337677001953,12.88785171508789,-666.4700317382812,-26.41156578063965,57.328731536865234,19.93170166015625,73.57539367675781,165.8646697998047,65535.0
19513.3392902595,-770.9583740234375,-71.36872100830078,10.504343032836914,-674.2762451171875,-19.094636917114258,65.79735565185547,26.524168014526367,77.9897689819336,164.82229614257812,65535.0
19513.339690268054,-776.9857177734375,-49.01869583129883,7.136663913726807,-678.6998291015625,-17.23647117614746,67.9977035522461,24.13515853881836,80.58843231201172,158.9051513671875,65535.0
19513.340090276608,-775.8396606445312,-28.797122955322266,-3.1745030879974365,-670.0985717773438,-19.240930557250977,70.05208587646484,28.21451187133789,80.07125854492188,169.0311737060547,65535.0
19513.340490285158,-770.60302734375,-0.22744636237621307,-6.961378574371338,-650.2748413085938,-6.020168781280518,79.05641174316406,39.45277404785156,90.50507354736328,164.81103515625,65535.0
19513.34089029371,-768.6864624023438,22.113128662109375,-16.0065860748291,-637.106201171875,-11.632499694824219,72.83708953857422,32.01873016357422,83.281005859375,142.2073211669922,65535.0
19513.341290302265,-750.0313720703125,59.5111083984375,-15.537212371826172,-637.9163818359375,-9.920557975769043,75.57215881347656,31.847278594970703,88.46263885498047,150.18441772460938,65535.0
19513.341690310815,-757.6030883789062,90.19868469238281,-14.901693344116211,-637.6309814453125,-9.646512985229492,74.33085632324219,34.7780647277832,86.15326690673828,157.31405639648438,65535.0
19513.34209031937,-772.5452880859375,120.98957824707031,-11.842979431152344,-628.963134765625,-4.4023332595825195,82.50243377685547,38.5064697265625,91.98313903808594,142.60154724121094,65535.0
19513.342490327923,-784.376708984375,171.82305908203125,-18.060443878173828,-615.89697265625,-4.0498948097229,80.3543472290039,41.3321647644043,90.29586791992188,158.4853057861328,65535.0
19513.342890336477,-782.66064453125,207.55589294433594,-33.539764404296875,-605.8186645507812,1.6337316036224365,88.43830108642578,46.04798889160156,97.93327331542969,163.524658203125,65535.0
19513.343290345027,-764.57958984375,243.31356811523438,-38.392303466796875,-592.784912109375,-7.282891273498535,78.8991928100586,36.24077224731445,91.59899139404297,148.56178283691406,65535.0
19513.34369035358,-744.1884155273438,287.30865478515625,-45.93109130859375,-601.7938842773438,-16.669580459594727,66.42389678955078,30.304645538330078,82.78778076171875,143.2772674560547,65535.0
19513.344090362134,-717.176025390625,319.60809326171875,-50.92894744873047,-600.3821411132812,-10.249577522277832,72.75537872314453,35.362422943115234,85.62242126464844,161.31431579589844,65535.0
19513.344490370684,-690.9971923828125,344.99993896484375,-52.34654998779297,-594.516845703125,-4.911657333374023,80.17213439941406,39.150390625,91.99559783935547,167.09390258789062,65535.0
19513.344890379238,-672.1174926757812,362.08343505859375,-47.518028259277344,-592.4527587890625,-4.103399276733398,77.60419464111328,42.02345275878906,92.37873077392578,160.9237060546875,65535.0
19513.34529038779,-666.6619873046875,397.6627502441406,-54.403480529785156,-590.5617065429688,-6.167129039764404,76.2056884765625,39.559661865234375,93.85997772216797,160.064697265625,65535.0
19513.345690396345,-662.1126708984375,427.4132080078125,-59.47686767578125,-575.2438354492188,-1.7798449993133545,81.67903900146484,43.9829216003418,94.59312438964844,171.7978973388672,65535.0
19513.346090404895,-647.6910400390625,462.9032897949219,-51.96417236328125,-569.6953125,-3.2645833492279053,78.56262969970703,42.44160842895508,93.8013687133789,163.11248779296875,65535.0
19513.34649041345,-642.5195922851562,499.53656005859375,-56.16904830932617,-558.0120849609375,-4.958858966827393,74.1766586303711,42.77002716064453,94.24913024902344,162.39796447753906,65535.0
19513.346890422003,-636.0864868164062,529.6148071289062,-52.03110122680664,-559.8511352539062,-9.965437889099121,67.58880615234375,35.49852752685547,86.67005920410156,144.81625366210938,65535.0
19513.347290430553,-640.8140869140625,587.9708251953125,-57.013797760009766,-555.5267333984375,-7.845670223236084,69.3541030883789,37.2707633972168,91.42271423339844,147.32542419433594,65535.0
19513.347690439106,-640.2598266601562,613.7132568359375,-54.269718170166016,-542.666259765625,-12.00301742553711,63.700992584228516,33.06724166870117,87.00474548339844,161.26885986328125,65535.0
19513.34809044766,-626.352294921875,621.123291015625,-52.526084899902344,-533.6870727539062,-15.810473442077637,54.79937744140625,28.146503448486328,77.593505859375,162.6148223876953,65535.0
19513.348490456214,-618.943359375,631.7830810546875,-48.239898681640625,-525.779541015625,-23.586767196655273,49.54945755004883,23.9661808013916,72.5811996459961,160.65695190429688,65535.0
19513.348890464764,-595.3609008789062,644.9156494140625,-43.75325012207031,-522.0507202148438,-20.031984329223633,52.644187927246094,24.047473907470703,80.722900390625,161.1871337890625,65535.0
19513.349290473318,-572.8023681640625,665.0341796875,-29.676651000976562,-520.7044677734375,-17.485475540161133,52.89988327026367,27.72315216064453,82.03036499023438,152.14913940429688,65535.0
19513.34969048187,-572.5796508789062,687.5001831054688,-25.57769012451172,-506.6836853027344,-27.360458374023438,39.918487548828125,15.80249309539795,67.55964660644531,147.32493591308594,65535.0
19513.35009049042,-577.2920532226562,715.3264770507812,-24.61695098876953,-513.9130859375,-24.8739013671875,38.02786636352539,18.78152084350586,69.1578369140625,161.08737182617188,65535.0
19513.350490498975,-585.98828125,749.0762939453125,-22.80434799194336,-523.9601440429688,-12.68333625793457,52.255645751953125,30.63075065612793,83.96624755859375,162.68190002441406,65535.0
19513.35089050753,-580.5421752929688,785.806396484375,-4.204985618591309,-533.0817260742188,-15.468949317932129,48.4276237487793,26.7725887298584,78.71070098876953,161.7258758544922,65535.0
19513.351290516082,-578.2412719726562,803.5689697265625,0.18507574498653412,-528.1522216796875,-18.400606155395508,46.69516372680664,25.766708374023438,77.95612335205078,153.57241821289062,65535.0
19513.351690524632,-563.3314208984375,825.700927734375,9.661062240600586,-527.115966796875,-5.580574035644531,62.423885345458984,36.620269775390625,91.34037780761719,152.67437744140625,65535.0
19513.352090533186,-570.2114868164062,852.613525390625,9.264650344848633,-508.6427307128906,-10.292367935180664,59.177494049072266,33.97318649291992,84.94831085205078,156.31137084960938,65535.0
19513.35249054174,-576.7982177734375,860.7401733398438,18.331096649169922,-488.73004150390625,-16.914859771728516,52.65150451660156,29.067163467407227,79.9134521484375,159.13795471191406,65535.0
19513.35289055029,-572.96484375,883.1680908203125,35.93394470214844,-491.88299560546875,-15.762914657592773,51.18782424926758,27.594356536865234,79.5714111328125,153.89059448242188,65535.0
19513.353290558844,-585.209228515625,891.3615112304688,43.723419189453125,-495.419921875,-19.409936904907227,50.54557418823242,25.497095108032227,79.87042999267578,155.1376495361328,65535.0
19513.353690567397,-591.4691772460938,898.230224609375,59.72918701171875,-491.0649719238281,-19.425546646118164,50.086395263671875,25.41035270690918,77.00032043457031,165.8683624267578,65535.0
19513.35409057595,-608.4512329101562,889.0618286132812,61.56940841674805,-494.5467224121094,-12.467848777770996,58.877647399902344,32.933353424072266,82.29093933105469,162.38377380371094,65535.0
19513.3544905845,-628.622314453125,888.5130615234375,78.3127670288086,-502.9999084472656,-9.735136032104492,62.42503356933594,36.84282684326172,88.8550796508789,164.9413604736328,65535.0
19513.354890593055,-649.1123046875,893.9486083984375,86.5225830078125,-495.4078063964844,1.4209340810775757,75.30583953857422,46.288753509521484,96.48387908935547,141.44261169433594,65535.0
19513.35529060161,-677.7247314453125,895.4087524414062,92.93524169921875,-492.8175354003906,-0.23880843818187714,77.81488800048828,46.646446228027344,98.56702423095703,164.32101440429688,65535.0
19513.35569061016,-680.4631958007812,894.5897827148438,107.8559341430664,-483.7319030761719,-5.89122200012207,70.24211120605469,36.95236587524414,93.12145233154297,165.23789978027344,65535.0
19513.356090618712,-677.9386596679688,898.9342041015625,109.6707763671875,-481.8861389160156,1.3507628440856934,80.20441436767578,45.06420135498047,95.76797485351562,167.7427978515625,65535.0
19513.356490627266,-663.71142578125,894.6112060546875,111.2355728149414,-475.9212341308594,-2.882371425628662,79.06417083740234,41.889583587646484,96.29886627197266,170.30239868164062,65535.0
19513.35689063582,-643.3028564453125,877.401123046875,134.49452209472656,-477.7782287597656,-14.822037696838379,61.69489288330078,29.924644470214844,85.96266174316406,155.82089233398438,65535.0
19513.35729064437,-630.0684204101562,865.1546630859375,136.15023803710938,-471.83154296875,-6.7640380859375,70.74842834472656,34.600486755371094,90.791259765625,151.9877166748047,65535.0
19513.357690652923,-615.6139526367188,847.0152587890625,140.24691772460938,-474.4974365234375,6.594263553619385,87.33727264404297,49.53973388671875,100.5490951538086,145.0684051513672,65535.0
19513.358090661477,-587.0054321289062,828.1747436523438,157.44290161132812,-472.44561767578125,12.284536361694336,93.81472778320312,55.5550651550293,105.10523986816406,159.91860961914062,65535.0
19513.358490670027,-567.381103515625,802.3123168945312,172.72938537597656,-469.0288391113281,3.4215312004089355,89.46235656738281,48.043968200683594,100.19393920898438,165.689208984375,65535.0
19513.35889067858,-550.521728515625,794.0508422851562,179.67344665527344,-463.3901062011719,5.216695785522461,93.3144760131836,51.62602615356445,103.580810546875,164.598388671875,65535.0
19513.359290687134,-538.1476440429688,784.1002197265625,196.13340759277344,-467.5039978027344,17.988449096679688,106.13968658447266,59.915184020996094,113.4870834350586,148.8340301513672,65535.0
19513.35969069569,-507.6722106933594,781.0701904296875,199.51658630371094,-482.572021484375,9.3359375,99.81730651855469,55.661075592041016,106.60167694091797,158.55686950683594,65535.0
19513.36009070424,-514.9746704101562,772.7732543945312,215.59140014648438,-484.55706787109375,-0.2669513523578644,92.14523315429688,45.51984405517578,99.21142578125,160.6251678466797,65535.0
19513.360490712792,-510.1271667480469,752.7865600585938,232.9234619140625,-494.1042785644531,12.347749710083008,98.61329650878906,53.792076110839844,110.84998321533203,138.16607666015625,65535.0
19513.360890721346,-503.200927734375,747.044677734375,247.87660217285156,-507.3670349121094,7.174079895019531,95.90496826171875,53.002525329589844,103.69800567626953,162.31585693359375,65535.0
19513.361290729896,-516.4367065429688,734.159423828125,263.533447265625,-517.4321899414062,-2.5245754718780518,86.92463684082031,42.969482421875,95.08501434326172,158.60507202148438,65535.0
19513.36169073845,-549.478515625,722.1749267578125,274.8768615722656,-524.3616333007812,2.4615583419799805,89.6494369506836,46.19082260131836,98.44445037841797,152.75869750976562,65535.0
19513.362090747003,-578.9684448242188,709.6001586914062,278.4482727050781,-514.5704956054688,-9.861807823181152,76.72459411621094,38.53367233276367,90.03410339355469,168.12217712402344,65535.0
19513.362490755557,-598.2198486328125,705.234619140625,287.3977355957031,-493.1615905761719,-3.528470039367676,81.1037368774414,40.457759857177734,90.57653045654297,145.6489715576172,65535.0
19513.362890764107,-634.6943359375,712.8175048828125,289.7901306152344,-479.75616455078125,3.581423044204712,85.25825500488281,46.132171630859375,97.59414672851562,153.77110290527344,65535.0
19513.36329077266,-664.5733032226562,698.8082275390625,284.3591613769531,-478.8604431152344,2.3128442764282227,88.75369262695312,47.69410705566406,102.30457305908203,177.4794464111328,65535.0
19513.363690781214,-696.0103759765625,698.2084350585938,285.1866149902344,-468.6009826660156,-6.4900689125061035,78.10798645019531,39.16597366333008,90.22030639648438,159.38119506835938,65535.0
19513.364090789764,-717.1536865234375,686.2362060546875,279.474365234375,-451.37579345703125,-5.868943691253662,75.46131134033203,35.916526794433594,89.56486511230469,163.60354614257812,65535.0
19513.364490798318,-723.9672241210938,664.3920288085938,273.843994140625,-444.0713195800781,-7.263873100280762,76.2374496459961,40.088050842285156,90.3348388671875,165.376708984375,65535.0
19513.36489080687,-745.3297119140625,652.9754638671875,272.7571716308594,-446.86456298828125,-5.021223068237305,75.56254577636719,40.4552001953125,93.55367279052734,159.89013671875,65535.0
19513.365290815425,-733.5361938476562,637.2333374023438,273.9712829589844,-448.3243408203125,-7.392513275146484,71.25747680664062,36.10691833496094,89.62977600097656,166.81573486328125,65535.0
19513.365690823975,-714.1577758789062,634.4855346679688,280.38018798828125,-456.0688171386719,-4.214243412017822,72.78507232666016,38.919498443603516,91.72261810302734,146.72454833984375,65535.0
19513.36609083253,-704.7637329101562,628.9563598632812,281.208251953125,-468.4674377441406,-0.19695399701595306,77.7094497680664,44.912841796875,95.12879180908203,150.57957458496094,65535.0
19513.366490841083,-711.855224609375,616.7088623046875,278.039306640625,-479.7608947753906,-0.7539570927619934,76.83842468261719,43.180397033691406,97.26736450195312,151.45301818847656,65535.0
19513.366890849633,-708.8767700195312,602.1871337890625,279.985107421875,-475.1498107910156,-13.371267318725586,65.53350830078125,35.099517822265625,87.05834197998047,152.55831909179688,65535.0
19513.367290858187,-710.6257934570312,590.57958984375,281.2594299316406,-471.4694519042969,-16.919586181640625,55.49324035644531,28.568418502807617,80.54570007324219,160.15618896484375,65535.0
19513.36769086674,-715.1884765625,580.98583984375,265.24639892578125,-451.9220275878906,-18.468048095703125,51.35930252075195,25.246423721313477,79.76860809326172,159.1910858154297,65535.0
19513.368090875294,-723.55908203125,573.4044189453125,268.9880065917969,-448.3200988769531,-20.170795440673828,51.31654357910156,24.92104721069336,77.61650848388672,166.0928955078125,65535.0
19513.368490883844,-734.5604858398438,561.8861694335938,262.9403076171875,-444.8622131347656,-21.59186553955078,47.918426513671875,22.2514705657959,72.304931640625,154.37234497070312,65535.0
19513.368890892398,-719.6895751953125,544.1159057617188,260.8882141113281,-457.1279602050781,-24.557960510253906,43.671058654785156,19.9400634765625,73.67520141601562,147.1480255126953,65535.0
19513.36929090095,-716.8203735351562,535.5215454101562,261.2152404785156,-457.7551574707031,-21.87554168701172,41.34046173095703,20.476186752319336,74.32833862304688,159.65774536132812,65535.0
19513.3696909095,-729.8561401367188,526.2727661132812,266.6661376953125,-455.38958740234375,-21.392995834350586,46.52582550048828,25.355010986328125,75.60794067382812,156.10545349121094,65535.0
19513.370090918055,-736.6961059570312,500.7169494628906,253.53640747070312,-458.231201171875,-25.00772476196289,42.548004150390625,19.883996963500977,73.68628692626953,165.7239532470703,65535.0
19513.37049092661,-737.2269287109375,479.32305908203125,259.7343444824219,-459.9233703613281,-21.874238967895508,39.15623474121094,19.147397994995117,72.25633239746094,158.66439819335938,65535.0
19513.370890935163,-742.316162109375,466.4714660644531,256.4565734863281,-448.9408874511719,-10.75829792022705,49.56816864013672,30.274438858032227,84.87718963623047,147.2240753173828,65535.0
19513.371290943713,-739.5082397460938,453.467529296875,247.09555053710938,-468.7098083496094,-13.527114868164062,50.36069869995117,33.48816680908203,83.69059753417969,137.98052978515625,65535.0
19513.371690952266,-725.796630859375,449.8907775878906,233.62576293945312,-481.1641845703125,-21.800703048706055,42.569190979003906,24.30298614501953,75.8228988647461,154.1412811279297,65535.0
19513.37209096082,-712.9251098632812,442.0474548339844,218.54827880859375,-501.7595520019531,-18.281234741210938,44.959983825683594,25.196443557739258,80.30123901367188,161.3400115966797,65535.0
19513.37249096937,-705.2145385742188,429.197021484375,216.0115966796875,-503.4903564453125,-21.197420120239258,44.25471115112305,20.539247512817383,76.43962097167969,174.77780151367188,65535.0
19513.372890977924,-690.5344848632812,427.1957702636719,214.31544494628906,-513.9053955078125,-23.91053009033203,39.650665283203125,19.025480270385742,74.76409149169922,161.52059936523438,65535.0
19513.373290986478,-684.6929931640625,412.48114013671875,206.4657440185547,-512.6221923828125,-27.467336654663086,37.00868606567383,17.752965927124023,72.23644256591797,153.35342407226562,65535.0
19513.37369099503,-701.2880859375,400.9154968261719,200.425537109375,-506.4844055175781,-35.27647399902344,29.29283905029297,12.043993949890137,62.75601577758789,159.22547912597656,65535.0
19513.37409100358,-712.2517700195312,384.2928466796875,199.2133026123047,-476.8313903808594,-30.589597702026367,31.36168670654297,13.126989364624023,67.95740509033203,158.3209228515625,65535.0
19513.374491012135,-700.8988647460938,376.1982116699219,203.8035430908203,-448.4621276855469,-19.910879135131836,45.877315521240234,21.377227783203125,75.7041015625,164.1132354736328,65535.0
19513.37489102069,-696.1756591796875,365.50567626953125,200.35794067382812,-431.5213317871094,-17.62912940979004,51.56727600097656,27.326187133789062,81.31594848632812,153.75244140625,65535.0
19513.37529102924,-703.5294189453125,357.1662902832031,193.7943115234375,-401.70050048828125,-22.439861297607422,46.28108215332031,20.669172286987305,77.95398712158203,151.68472290039062,65535.0
19513.375691037792,-711.906005859375,341.5321350097656,188.55569458007812,-385.8187255859375,-13.55200481414795,58.59811019897461,27.983104705810547,83.94246673583984,159.95254516601562,65535.0
19513.376091046346,-717.968505859375,321.2800598144531,180.40708923339844,-395.18896484375,-14.288092613220215,59.100616455078125,30.750019073486328,84.19720458984375,159.74693298339844,65535.0
19513.3764910549,-712.7013549804688,316.0947570800781,172.5208740234375,-402.4582214355469,-19.839691162109375,54.799381256103516,25.255268096923828,78.10409545898438,150.89877319335938,65535.0
19513.37689106345,-727.4044799804688,301.0075988769531,174.00198364257812,-416.46185302734375,-14.670919418334961,59.138973236083984,27.77910804748535,80.58631896972656,157.01434326171875,65535.0
19513.377291072004,-743.3447875976562,290.93218994140625,181.7375030517578,-433.51800537109375,-19.37851905822754,56.48274612426758,24.063610076904297,78.15916442871094,157.08056640625,65535.0
19513.377691080557,-743.398681640625,295.8468933105469,162.15689086914062,-431.1423645019531,-23.086366653442383,51.4512825012207,22.42931365966797,75.36273956298828,156.43511962890625,65535.0
19513.378091089107,-734.720458984375,296.444580078125,169.26060485839844,-426.5904541015625,-25.598159790039062,48.65996170043945,19.905853271484375,71.11333465576172,161.41746520996094,65535.0
19513.37849109766,-738.2036743164062,277.6534423828125,172.0810546875,-424.1731262207031,-21.670913696289062,54.549198150634766,24.282194137573242,76.2955551147461,150.9529266357422,65535.0
19513.378891106215,-751.7630004882812,271.113037109375,153.10769653320312,-431.2043762207031,-19.937124252319336,61.230567932128906,25.022005081176758,81.64110565185547,140.47132873535156,65535.0
19513.37929111477,-752.4690551757812,263.5025634765625,145.9724884033203,-435.8651428222656,-17.03500747680664,65.47319030761719,25.935606002807617,81.37471771240234,159.3583221435547,65535.0
19513.37969112332,-744.4275512695312,271.15045166015625,155.6176300048828,-446.6091003417969,-15.328774452209473,69.16526794433594,30.095624923706055,83.76677703857422,149.2073516845703,65535.0
19513.380091131872,-738.0529174804688,278.21734619140625,148.97325134277344,-454.57159423828125,-9.005980491638184,76.77527618408203,33.44255828857422,89.16889953613281,155.57952880859375,65535.0
19513.380491140426,-738.0425415039062,267.97564697265625,142.6857147216797,-459.7485046386719,-10.677990913391113,72.85205078125,32.99220657348633,85.33148956298828,161.28530883789062,65535.0
19513.380891148976,-749.2852172851562,268.3601379394531,135.66476440429688,-442.4033508300781,-12.653149604797363,71.08731842041016,34.689029693603516,86.0763931274414,159.9962158203125,65535.0
19513.38129115753,-776.96435546875,266.7739562988281,131.55673217773438,-435.6634826660156,-14.424373626708984,66.16338348388672,28.136314392089844,80.47557830810547,161.36709594726562,65535.0
19513.381691166083,-792.771240234375,273.33831787109375,129.08526611328125,-429.66204833984375,-10.549715042114258,68.2516860961914,30.93429946899414,84.0197982788086,170.7306671142578,65535.0
19513.382091174637,-819.7495727539062,265.8646545410156,118.64165496826172,-440.1873779296875,-5.037102699279785,76.4194107055664,37.99382400512695,92.53266143798828,163.08099365234375,65535.0
19513.382491183187,-830.4819946289062,276.99365234375,112.76751708984375,-473.0010986328125,-16.05400276184082,67.5729751586914,28.431909561157227,82.22127532958984,144.42901611328125,65535.0
19513.38289119174,-818.3136596679688,277.7462463378906,111.64962768554688,-524.0551147460938,-21.935321807861328,58.8481330871582,24.011390686035156,74.6853256225586,142.19651794433594,65535.0
19513.383291200294,-794.8092041015625,267.0561218261719,104.236572265625,-549.0130004882812,-7.971770286560059,71.98045349121094,38.4458122253418,92.0775146484375,140.4564666748047,65535.0
19513.383691208845,-782.2677001953125,265.9024658203125,99.35896301269531,-551.2384643554688,-10.8917875289917,69.52444458007812,32.394569396972656,86.8609619140625,158.6808319091797,65535.0
19513.3840912174,-772.0199584960938,257.6690368652344,104.69970703125,-527.2278442382812,-6.3946051597595215,72.66368865966797,36.93861389160156,88.8612060546875,160.36985778808594,65535.0
19513.384491225952,-764.0527954101562,256.0381774902344,89.59590911865234,-508.83795166015625,-18.67203712463379,59.919349670410156,26.77614974975586,80.5970230102539,148.63528442382812,65535.0
19513.384891234506,-750.5634765625,261.3988952636719,93.90682220458984,-498.26953125,-14.78216552734375,63.87338638305664,29.853105545043945,82.83841705322266,155.62637329101562,65535.0
19513.385291243056,-755.0582275390625,263.2826232910156,95.10501861572266,-492.98870849609375,-17.161874771118164,59.84674835205078,26.300580978393555,78.6304931640625,160.23538208007812,65535.0
19513.38569125161,-763.065185546875,262.82977294921875,86.69371795654297,-478.5797119140625,-24.444210052490234,50.271236419677734,20.566776275634766,73.58478546142578,158.0312957763672,65535.0
19513.386091260163,-759.9949951171875,268.54193115234375,90.17157745361328,-476.0868225097656,-24.165376663208008,47.97634506225586,17.322368621826172,70.66609191894531,155.64828491210938,65535.0
19513.386491268713,-782.4808349609375,263.0148010253906,88.5068130493164,-481.521728515625,-28.124935150146484,43.851661682128906,16.359771728515625,68.92678833007812,150.9286346435547,65535.0
19513.386891277267,-819.2285766601562,281.076416015625,87.49256896972656,-487.21844482421875,-29.259225845336914,40.17041778564453,15.85208511352539,68.64773559570312,156.29258728027344,65535.0
19513.38729128582,-851.70556640625,289.8171081542969,89.39129638671875,-484.91595458984375,-26.513628005981445,43.57229995727539,18.79423713684082,70.94857788085938,148.4667205810547,65535.0
19513.387691294374,-884.3488159179688,289.3916320800781,88.02696228027344,-480.8847961425781,-30.192655563354492,40.39272689819336,15.690194129943848,70.4628677368164,141.38046264648438,65535.0
19513.388091302924,-919.9535522460938,281.23150634765625,89.01080322265625,-479.4723815917969,-34.751895904541016,35.338531494140625,11.776872634887695,64.46305084228516,160.24368286132812,65535.0
19513.388491311478,-955.12841796875,279.17529296875,88.9205322265625,-478.4200134277344,-30.329883575439453,36.65462112426758,13.04872989654541,66.73613739013672,158.61355590820312,65535.0
19513.38889132003,-1000.267333984375,283.2239990234375,82.36231994628906,-487.7126770019531,-25.944154739379883,41.77932357788086,19.293100357055664,72.9874267578125,156.67880249023438,65535.0
19513.38929132858,-1014.1513061523438,279.8379821777344,68.40103912353516,-494.9941711425781,-34.44452667236328,33.479209899902344,10.014925003051758,63.01622772216797,156.23614501953125,65535.0
19513.389691337135,-1037.3768310546875,276.0608215332031,72.94219207763672,-493.0962829589844,-26.71173667907715,36.159149169921875,14.535544395446777,68.57910919189453,158.35247802734375,65535.0
19513.39009134569,-1050.6453857421875,274.532470703125,63.69247817993164,-483.7483215332031,-26.8764591217041,35.560916900634766,15.50808334350586,68.22249603271484,156.38726806640625,65535.0
19513.390491354243,-1027.981689453125,276.1564636230469,67.77940368652344,-466.6993713378906,-27.912181854248047,36.155616760253906,15.505643844604492,68.15467834472656,155.74053955078125,65535.0
19513.390891362793,-1012.025390625,272.9869079589844,69.3831558227539,-467.1852111816406,-19.695188522338867,44.2816276550293,24.830257415771484,74.81369018554688,144.9584197998047,65535.0
19513.391291371347,-992.9617309570312,276.52313232421875,59.433990478515625,-482.6501770019531,-20.399316787719727,46.032470703125,23.43425750732422,77.38178253173828,157.13882446289062,65535.0
19513.3916913799,-992.8261108398438,269.87481689453125,58.19306945800781,-497.9862365722656,-23.930452346801758,43.510250091552734,18.65441131591797,75.12126159667969,151.01504516601562,65535.0
19513.39209138845,-967.5601196289062,253.79238891601562,62.374637603759766,-506.337158203125,-27.24431800842285,39.293540954589844,16.253379821777344,67.3516616821289,155.81161499023438,65535.0
19513.392491397004,-947.8285522460938,251.2643280029297,59.249237060546875,-516.7327880859375,-24.118755340576172,43.705936431884766,20.384654998779297,72.82545471191406,162.03378295898438,65535.0
19513.392891405558,-939.1475830078125,262.7228088378906,49.342559814453125,-513.7786254882812,-34.25907897949219,34.13785934448242,10.250890731811523,63.22894287109375,148.7187957763672,65535.0
19513.39329141411,-946.2636108398438,269.9897155761719,52.82963180541992,-535.6046142578125,-35.84989547729492,27.966529846191406,8.664140701293945,60.85496520996094,151.03744506835938,65535.0
19513.39369142266,-944.6929931640625,259.7368469238281,59.587860107421875,-548.0435791015625,-30.387165069580078,36.002803802490234,13.295124053955078,66.99073791503906,161.66416931152344,65535.0
19513.394091431215,-951.8111572265625,261.2045593261719,56.718448638916016,-545.445068359375,-37.77259826660156,27.651578903198242,5.717263698577881,58.016841888427734,158.49658203125,65535.0
19513.39449143977,-951.4789428710938,265.0299987792969,52.96538162231445,-558.3793334960938,-25.917377471923828,41.819480895996094,16.20142364501953,69.6236572265625,158.04933166503906,65535.0
19513.39489144832,-936.1768798828125,266.6443786621094,51.11997985839844,-551.8081665039062,-23.88789939880371,47.058597564697266,22.193408966064453,70.74130249023438,151.82855224609375,65535.0
19513.395291456873,-918.6088256835938,259.2702331542969,45.104278564453125,-531.8414916992188,-23.22024154663086,48.36822509765625,21.011489868164062,72.47050476074219,159.54345703125,65535.0
19513.395691465426,-906.0365600585938,250.795654296875,45.609920501708984,-499.0168762207031,-19.020755767822266,53.01958465576172,24.70543670654297,78.25369262695312,143.3619842529297,65535.0
19513.39609147398,-892.4827880859375,253.86187744140625,46.0329704284668,-485.85107421875,-20.753437042236328,55.18955612182617,23.91766929626465,74.93275451660156,154.2777099609375,65535.0
19513.39649148253,-890.3272094726562,258.941650390625,51.6938362121582,-462.3147277832031,-16.21335792541504,60.8204345703125,26.58286476135254,81.50421142578125,150.04879760742188,65535.0
19513.396891491084,-906.251220703125,260.7245178222656,41.223388671875,-406.0622253417969,-11.161791801452637,63.71432876586914,32.856563568115234,86.96133422851562,159.98587036132812,65535.0
19513.397291499638,-906.9849853515625,248.51031494140625,44.29086685180664,-372.697265625,-9.473090171813965,70.4908676147461,37.75489044189453,91.14337921142578,161.49008178710938,65535.0
19513.397691508188,-910.8990478515625,245.09913635253906,43.804359436035156,-360.6166687011719,-11.985209465026855,69.44161987304688,31.11678695678711,84.60900115966797,163.7137451171875,65535.0
19513.39809151674,-926.9269409179688,245.2311553955078,38.433349609375,-374.3282470703125,-14.483667373657227,69.32758331298828,31.946155548095703,83.82781982421875,155.84011840820312,65535.0
19513.398491525295,-930.7921142578125,237.58340454101562,42.66228103637695,-391.86236572265625,-6.664425849914551,74.27732849121094,34.15968322753906,86.84976196289062,156.84474182128906,65535.0
19513.39889153385,-931.7183227539062,234.3542938232422,31.745695114135742,-410.388916015625,-13.715892791748047,70.07036590576172,30.413692474365234,80.62406921386719,155.13429260253906,65535.0
19513.3992915424,-929.3037719726562,229.8883819580078,31.826189041137695,-417.4451599121094,-13.65316104888916,71.25657653808594,31.077552795410156,85.61093139648438,148.14846801757812,65535.0
19513.399691550952,-935.4442138671875,243.14044189453125,33.5450325012207,-412.5020751953125,-5.43276309967041,79.96066284179688,38.354461669921875,93.70997619628906,147.51165771484375,65535.0
19513.400091559506,-914.6201782226562,242.6537322998047,25.56181526184082,-425.2339172363281,-10.443955421447754,75.27424621582031,32.31422424316406,86.77622985839844,148.4305419921875,65535.0
19513.400491568056,-909.6699829101562,250.52040100097656,32.49178695678711,-446.37921142578125,-11.00705623626709,74.2356948852539,31.188997268676758,84.66097259521484,150.2779083251953,65535.0
19513.40089157661,-913.541748046875,242.96578979492188,40.040096282958984,-450.8802185058594,-9.269522666931152,72.50978088378906,34.615318298339844,86.55834197998047,159.7461395263672,65535.0
19513.401291585164,-927.4443969726562,243.1194610595703,46.76351547241211,-450.43865966796875,-3.46777606010437,81.19921875,39.218379974365234,91.87478637695312,163.4052276611328,65535.0
19513.401691593717,-959.1154174804688,249.26126098632812,47.048282623291016,-444.915283203125,-11.072750091552734,75.8315200805664,35.757080078125,89.22032928466797,166.0414276123047,65535.0
19513.402091602267,-947.3587646484375,241.51541137695312,42.6810302734375,-440.762451171875,-7.157986164093018,78.3338394165039,36.36003112792969,89.82830047607422,157.31832885742188,65535.0
19513.40249161082,-924.2598876953125,239.75709533691406,33.89975357055664,-454.6954040527344,-12.649558067321777,74.85820007324219,33.337684631347656,86.43478393554688,155.94677734375,65535.0
19513.402891619375,-918.1482543945312,253.68637084960938,45.845970153808594,-464.7981872558594,-18.43111801147461,61.66279983520508,23.429439544677734,75.67467498779297,150.6822052001953,65535.0
19513.403291627925,-919.486083984375,253.0068817138672,55.419254302978516,-450.48150634765625,-16.308618545532227,65.07759094238281,27.506364822387695,81.69613647460938,154.3938446044922,65535.0
19513.40369163648,-914.3656005859375,253.6964569091797,51.75373458862305,-449.7554016113281,-16.377653121948242,66.65856170654297,26.197193145751953,83.33174896240234,154.49301147460938,65535.0
19513.404091645032,-910.89794921875,251.6958770751953,53.5888786315918,-449.14520263671875,-20.402359008789062,58.9503059387207,24.921802520751953,76.5808334350586,149.9720916748047,65535.0
19513.404491653586,-911.7697143554688,260.7387390136719,45.77921676635742,-444.6510314941406,-15.927367210388184,65.45670318603516,30.600522994995117,82.6767807006836,158.9971923828125,65535.0
19513.404891662136,-907.4031982421875,253.1630401611328,38.06678771972656,-439.86376953125,-22.603984832763672,53.83329772949219,21.320350646972656,73.82733154296875,156.83200073242188,65535.0
19513.40529167069,-931.7462768554688,249.30714416503906,45.78880310058594,-422.76177978515625,-24.186199188232422,54.56544494628906,23.667736053466797,75.99886322021484,152.60479736328125,65535.0
19513.405691679243,-942.8034057617188,251.43699645996094,49.467811584472656,-421.08197021484375,-22.14409828186035,57.74428939819336,23.21628189086914,77.34685516357422,156.9109649658203,65535.0
19513.406091687793,-933.6143188476562,253.21778869628906,48.14481735229492,-412.24676513671875,-23.79838752746582,53.138389587402344,22.30182647705078,75.70112609863281,156.02267456054688,65535.0
19513.406491696347,-935.874267578125,262.9537353515625,52.25816345214844,-412.48406982421875,-10.93830394744873,62.500675201416016,32.706756591796875,86.19869232177734,151.12986755371094,65535.0
19513.4068917049,-936.3758544921875,255.71009826660156,48.13370132446289,-410.6418762207031,-13.963105201721191,60.95857238769531,31.199607849121094,83.23546600341797,150.98353576660156,65535.0
19513.407291713454,-916.8361206054688,263.3326416015625,45.727752685546875,-405.78558349609375,-21.53925323486328,50.0478630065918,20.15164566040039,76.24380493164062,139.53656005859375,65535.0
19513.407691722005,-912.381103515625,264.2333679199219,48.041500091552734,-398.04833984375,-20.51319694519043,49.295860290527344,25.50452995300293,78.20972442626953,157.1355743408203,65535.0
19513.40809173056,-908.8992309570312,257.6016540527344,50.17178726196289,-401.9837646484375,-19.628442764282227,49.47651290893555,26.624422073364258,78.20940399169922,161.15618896484375,65535.0
19513.408491739112,-899.157470703125,258.12652587890625,51.119834899902344,-416.4195556640625,-33.33238983154297,32.24122619628906,11.171380043029785,64.96822357177734,138.5781707763672,65535.0
19513.408891747662,-888.6239013671875,259.181884765625,55.97910690307617,-419.5787658691406,-26.91753578186035,40.27035903930664,17.820337295532227,70.4746322631836,142.33920288085938,65535.0
19513.409291756216,-885.906005859375,255.8624267578125,55.911216735839844,-423.9194030761719,-28.922029495239258,36.3272590637207,16.30232810974121,67.9175796508789,152.2307891845703,65535.0
19513.40969176477,-878.19580078125,257.4582214355469,55.78847122192383,-430.68450927734375,-20.132265090942383,43.538822174072266,26.03424644470215,78.07076263427734,152.9943389892578,65535.0
19513.410091773323,-868.7115478515625,267.71014404296875,61.811378479003906,-425.2029113769531,-24.067378997802734,41.56181716918945,22.05249786376953,73.23333740234375,148.09707641601562,65535.0
19513.410491781873,-878.030029296875,268.5611877441406,55.596595764160156,-432.20977783203125,-23.88175392150879,40.34425354003906,22.65656852722168,74.3291244506836,158.14724731445312,65535.0
19513.410891790427,-895.8386840820312,252.56387329101562,49.04513931274414,-426.87908935546875,-18.351709365844727,45.36678695678711,27.166635513305664,80.32634735107422,163.97613525390625,65535.0
19513.41129179898,-886.2376098632812,263.8760070800781,52.2252082824707,-428.6228942871094,-32.784202575683594,31.878231048583984,14.627483367919922,65.74774169921875,165.572265625,65535.0
19513.41169180753,-888.2498779296875,261.8401184082031,45.77674102783203,-442.14678955078125,-26.874650955200195,34.21576690673828,14.644911766052246,70.08636474609375,146.2132568359375,65535.0
19513.412091816084,-887.9249877929688,257.53961181640625,33.201499938964844,-439.5893859863281,-28.315217971801758,36.1088981628418,17.178964614868164,68.54686737060547,148.9957733154297,65535.0
19513.412491824638,-891.8517456054688,251.0044403076172,41.60136413574219,-445.7247009277344,-30.36692237854004,33.546634674072266,13.910505294799805,68.11679077148438,144.08819580078125,65535.0
19513.41289183319,-893.04541015625,245.31443786621094,42.511226654052734,-453.5321960449219,-21.170183181762695,40.4190788269043,22.34861183166504,76.3869857788086,141.2926483154297,65535.0
19513.41329184174,-894.2852172851562,245.72207641601562,38.87143325805664,-461.69732666015625,-32.386531829833984,37.218597412109375,13.272677421569824,67.59815216064453,141.5705108642578,65535.0
19513.413691850295,-872.1093139648438,248.38711547851562,32.99159240722656,-463.2367248535156,-33.87763595581055,35.31070327758789,11.497952461242676,67.17501831054688,145.13670349121094,65535.0
19513.41409185885,-859.0267944335938,248.87130737304688,44.930477142333984,-465.603759765625,-21.14356803894043,46.37415313720703,24.944242477416992,76.90056610107422,159.3906707763672,65535.0
19513.4144918674,-853.1285400390625,243.92193603515625,33.095985412597656,-465.70806884765625,-28.670434951782227,42.18906784057617,17.068721771240234,71.10599517822266,153.67605590820312,65535.0
19513.414891875953,-842.0707397460938,240.12576293945312,32.700618743896484,-461.0303649902344,-30.657751083374023,40.453025817871094,15.823141098022461,70.92998504638672,153.94198608398438,65535.0
19513.415291884507,-833.4758911132812,241.1632843017578,37.46385192871094,-441.0201110839844,-24.025598526000977,47.1037483215332,20.627513885498047,74.31067657470703,158.17971801757812,65535.0
19513.41569189306,-834.8616333007812,242.71710205078125,30.358116149902344,-417.4579162597656,-27.918834686279297,45.1264762878418,16.248184204101562,71.44132995605469,164.28289794921875,65535.0
19513.41609190161,-838.9602661132812,239.29550170898438,31.485286712646484,-390.0079040527344,-22.570331573486328,44.161895751953125,18.6551456451416,73.66625213623047,159.61688232421875,65535.0
19513.416491910164,-833.53662109375,242.1160430908203,24.161121368408203,-376.1758117675781,-27.99384117126465,43.311100006103516,14.180665969848633,70.37088012695312,156.9199981689453,65535.0
19513.416891918718,-835.82666015625,228.32095336914062,21.003019332885742,-382.214599609375,-22.713869094848633,51.242645263671875,21.868051528930664,73.61216735839844,148.5373992919922,65535.0
19513.417291927268,-836.7802124023438,230.56094360351562,16.65885353088379,-418.8268737792969,-20.27429962158203,54.15329360961914,23.821674346923828,77.09231567382812,146.20018005371094,65535.0
19513.41769193582,-832.0116577148438,230.95753479003906,23.455900192260742,-457.4621887207031,-31.593381881713867,47.457122802734375,14.087850570678711,66.13594055175781,146.73239135742188,65535.0
19513.418091944375,-821.199951171875,229.63250732421875,24.466955184936523,-496.0295715332031,-13.131837844848633,67.98594665527344,31.66800308227539,86.56026458740234,142.5912628173828,65535.0
19513.41849195293,-818.366943359375,228.46942138671875,37.022708892822266,-540.2706909179688,-5.6092071533203125,77.3170394897461,40.41074752807617,94.13320922851562,158.92474365234375,65535.0
19513.41889196148,-814.4824829101562,219.9450225830078,35.93050765991211,-543.8182983398438,-16.87604522705078,65.68468475341797,30.116527557373047,81.98707580566406,152.9583282470703,65535.0
19513.419291970033,-825.885498046875,214.54226684570312,24.497377395629883,-525.1317138671875,-8.76527214050293,77.14796447753906,38.668724060058594,88.94754028320312,158.3763427734375,65535.0
19513.419691978586,-825.1799926757812,224.47633361816406,20.59991455078125,-514.5616455078125,-11.1824369430542,74.36701965332031,32.64133834838867,84.86306762695312,155.725341796875,65535.0
19513.420091987136,-829.3690185546875,226.6942596435547,28.150772094726562,-482.5891418457031,-5.516692161560059,78.94526672363281,36.87781524658203,93.33283996582031,138.15420532226562,65535.0
19513.42049199569,-835.0079345703125,228.46853637695312,37.37187194824219,-456.5102844238281,-10.400177001953125,79.34326171875,33.76028823852539,91.37105560302734,157.3126983642578,65535.0
19513.420892004244,-835.93310546875,235.18243408203125,26.885696411132812,-445.2243957519531,-16.529582977294922,74.95591735839844,33.8326301574707,85.81356048583984,144.8876190185547,65535.0
19513.421292012797,-861.9049072265625,240.8216094970703,26.19255256652832,-431.9412536621094,-14.093465805053711,76.93943786621094,33.848506927490234,87.27975463867188,154.0580596923828,65535.0
19513.421692021348,-874.695068359375,242.99627685546875,28.382904052734375,-419.29052734375,-5.504129886627197,81.83586883544922,38.309486389160156,91.8287124633789,158.07061767578125,65535.0
19513.4220920299,-873.340087890625,242.45005798339844,18.7945613861084,-416.5440673828125,-15.53256893157959,73.21324157714844,29.86041831970215,84.9071044921875,158.81520080566406,65535.0
19513.422492038455,-875.6039428710938,246.518310546875,37.70245361328125,-417.0704040527344,-16.439956665039062,70.9056396484375,28.06954002380371,83.2654037475586,154.3585662841797,65535.0
19513.422892047005,-876.957763671875,244.51611328125,42.8205680847168,-402.6791076660156,0.6697335839271545,84.74270629882812,46.93861389160156,100.10076141357422,150.9057159423828,65535.0
19513.42329205556,-872.1452026367188,252.47689819335938,37.30226516723633,-378.2420959472656,-12.915328979492188,75.85649108886719,35.02201461791992,88.38980102539062,150.7102813720703,65535.0
19513.423692064112,-863.368896484375,240.76287841796875,32.78260803222656,-364.2513732910156,-12.390702247619629,70.0902328491211,31.209644317626953,85.49456787109375,149.5965118408203,65535.0
19513.424092072666,-882.2927856445312,245.7971954345703,29.47600555419922,-361.4321594238281,-3.719388246536255,81.07696533203125,40.628517150878906,93.01305389404297,149.87203979492188,65535.0
19513.424492081216,-886.301513671875,262.50677490234375,38.341392517089844,-368.03887939453125,-18.888219833374023,65.58968353271484,26.19796371459961,78.86710357666016,149.67835998535156,65535.0
19513.42489208977,-871.5271606445312,250.7949981689453,36.222755432128906,-381.02862548828125,-14.557108879089355,62.811241149902344,28.368831634521484,80.981201171875,150.7738494873047,65535.0
19513.425292098324,-860.4932250976562,250.87796020507812,33.096656799316406,-390.0190124511719,-18.542678833007812,56.34165954589844,21.874357223510742,77.0528564453125,155.03945922851562,65535.0
19513.425692106874,-861.5554809570312,248.3162078857422,34.59748077392578,-391.92279052734375,-13.346692085266113,66.2672348022461,29.16887092590332,85.74287414550781,155.70252990722656,65535.0
19513.426092115427,-870.1569213867188,245.69911193847656,36.178863525390625,-407.0362548828125,-10.057229995727539,69.17786407470703,32.087806701660156,88.08409118652344,153.71224975585938,65535.0
19513.42649212398,-864.5834350585938,247.07264709472656,41.02804183959961,-405.35150146484375,-10.666399002075195,68.08051300048828,33.0743293762207,86.35590362548828,144.55120849609375,65535.0
19513.426892132535,-865.71923828125,261.0589599609375,46.38837814331055,-418.11566162109375,-15.532973289489746,62.25886154174805,30.318775177001953,81.01236724853516,142.31118774414062,65535.0
19513.427292141085,-875.4539184570312,268.5133972167969,42.015140533447266,-444.0643615722656,-10.619952201843262,65.2581558227539,33.24966049194336,87.27629089355469,148.78506469726562,65535.0
19513.42769214964,-878.30322265625,270.0457458496094,45.47346496582031,-464.74517822265625,-9.729951858520508,66.3281478881836,34.59784698486328,85.80464935302734,151.89923095703125,65535.0
19513.428092158192,-876.2267456054688,266.5904235839844,51.28894805908203,-468.7043151855469,-23.882326126098633,49.012638092041016,22.277280807495117,72.84900665283203,150.01390075683594,65535.0
19513.428492166742,-864.0841674804688,262.589111328125,50.28945541381836,-457.4805603027344,-19.160886764526367,52.91896438598633,24.28191566467285,77.64295196533203,148.48550415039062,65535.0
19513.428892175296,-870.8929443359375,251.45335388183594,47.75421905517578,-448.25274658203125,-19.587812423706055,49.8670539855957,25.122802734375,76.9964828491211,145.96543884277344,65535.0
19513.42929218385,-875.147216796875,251.43710327148438,41.3223991394043,-438.93072509765625,-24.62877082824707,48.60602569580078,20.17606544494629,76.6180648803711,151.0418243408203,65535.0
19513.429692192403,-875.5012817382812,259.0068359375,39.16023254394531,-439.13226318359375,-19.85940170288086,46.8972282409668,22.86742401123047,76.05526733398438,154.0272216796875,65535.0
19513.430092200953,-879.9439697265625,243.37570190429688,42.250938415527344,-442.31866455078125,-21.99103546142578,46.25025177001953,23.032154083251953,76.66059112548828,143.60543823242188,65535.0
19513.430492209507,-881.4876708984375,253.4303741455078,34.50028991699219,-435.5077819824219,-23.379337310791016,44.351097106933594,20.693559646606445,74.76634216308594,149.1629180908203,65535.0
19513.43089221806,-889.0814819335938,254.1182098388672,38.83442687988281,-422.980224609375,-15.783632278442383,51.19084930419922,26.014131546020508,84.14479064941406,160.42662048339844,65535.0
19513.43129222661,-890.5443725585938,251.64016723632812,39.46077346801758,-415.19384765625,-14.55660629272461,54.31917190551758,30.164287567138672,84.98816680908203,158.15444946289062,65535.0
19513.431692235165,-871.8862915039062,254.33775329589844,34.38945770263672,-417.743896484375,-12.749444961547852,55.59847640991211,32.08955764770508,86.36577606201172,153.14903259277344,65535.0
19513.43209224372,-880.66064453125,262.73492431640625,31.4112548828125,-418.0474548339844,-20.077892303466797,47.995872497558594,23.574338912963867,80.2542724609375,145.0738525390625,65535.0
19513.432492252272,-882.8074340820312,247.97103881835938,26.98120880126953,-440.4336242675781,-17.520917892456055,50.53620529174805,26.39641761779785,79.01710510253906,150.09555053710938,65535.0
19513.432892260822,-876.438720703125,238.2969512939453,29.35352325439453,-466.7261962890625,-24.61257553100586,43.05348587036133,20.230497360229492,71.30133819580078,151.32835388183594,65535.0
19513.433292269376,-870.6242065429688,244.11585998535156,27.469379425048828,-468.30938720703125,-25.48396110534668,40.7740364074707,19.54821014404297,72.97871398925781,159.63156127929688,65535.0
19513.43369227793,-861.0921630859375,239.5878448486328,29.84740447998047,-452.7496032714844,-14.404317855834961,54.16707992553711,28.254425048828125,84.9823989868164,146.0853729248047,65535.0
19513.43409228648,-855.9301147460938,240.0426483154297,29.502269744873047,-449.8307189941406,-20.554210662841797,48.69207763671875,24.60696029663086,75.49124908447266,144.39224243164062,65535.0
19513.434492295033,-861.6754150390625,240.58261108398438,29.050046920776367,-476.1711120605469,-25.436397552490234,45.04246520996094,20.605810165405273,73.35144805908203,134.09092712402344,65535.0
19513.434892303587,-858.9081420898438,234.6782989501953,32.32908630371094,-490.14300537109375,-25.763202667236328,43.95036697387695,19.806503295898438,74.01129913330078,138.61776733398438,65535.0
19513.43529231214,-858.1502075195312,231.1766815185547,35.7563362121582,-491.31597900390625,-11.842803001403809,57.116798400878906,31.25752830505371,81.90986633300781,135.32522583007812,65535.0
19513.43569232069,-856.34228515625,243.68089294433594,25.211671829223633,-506.44158935546875,-7.303218364715576,68.62139129638672,35.986629486083984,91.06028747558594,138.44732666015625,65535.0
19513.436092329244,-846.14111328125,242.03457641601562,23.639652252197266,-516.2366943359375,-15.971973419189453,59.87015151977539,31.79210090637207,85.02302551269531,151.47726440429688,65535.0
19513.436492337798,-852.2771606445312,234.76004028320312,21.161945343017578,-517.7009887695312,-25.891687393188477,47.43809127807617,22.289447784423828,70.87310791015625,138.19992065429688,65535.0
19513.436892346348,-844.9027709960938,234.065185546875,26.942481994628906,-489.5080871582031,-18.696306228637695,54.87507629394531,26.934885025024414,81.39575958251953,148.5812530517578,65535.0
19513.4372923549,-855.8984985351562,243.1380615234375,22.154870986938477,-476.53704833984375,-17.84491729736328,60.787376403808594,26.95079803466797,80.74034118652344,147.18397521972656,65535.0
19513.437692363455,-861.2357788085938,241.1222686767578,9.88315200805664,-463.0188903808594,-8.00698184967041,72.77446746826172,34.9332275390625,87.34306335449219,150.74830627441406,65535.0
19513.43809237201,-854.6349487304688,244.9213409423828,23.462596893310547,-454.4004821777344,-14.13449478149414,68.69286346435547,28.67459487915039,82.33120727539062,154.1337432861328,65535.0
19513.43849238056,-844.7759399414062,242.1864471435547,24.694849014282227,-446.8768615722656,-15.403480529785156,68.25262451171875,28.241493225097656,79.25003814697266,151.39686584472656,65535.0
19513.438892389113,-847.0896606445312,235.9307403564453,24.941713333129883,-442.72039794921875,-7.133601665496826,76.34626770019531,35.04938888549805,87.87859344482422,160.7694549560547,65535.0
19513.439292397667,-859.9309692382812,232.03912353515625,30.833789825439453,-442.62677001953125,-12.342808723449707,74.38191986083984,32.80733871459961,86.44303894042969,151.980224609375,65535.0
19513.439692406217,-863.077392578125,223.36471557617188,33.6253547668457,-475.5145263671875,-4.770185470581055,82.75273132324219,41.27216720581055,92.80606079101562,146.43638610839844,65535.0
19513.44009241477,-869.1870727539062,215.34625244140625,23.388214111328125,-521.276123046875,-1.5159692764282227,86.7846908569336,42.15064239501953,96.12342834472656,144.31216430664062,65535.0
19513.440492423324,-862.7818603515625,216.2212677001953,32.450008392333984,-543.91845703125,-4.372837066650391,81.0962905883789,37.485374450683594,90.5425796508789,154.4446563720703,65535.0
19513.440892431878,-868.3658447265625,215.45306396484375,30.999176025390625,-565.2510375976562,-12.134017944335938,74.4122543334961,33.733299255371094,85.86106872558594,156.5345916748047,65535.0
19513.441292440428,-873.674072265625,219.0583038330078,32.316184997558594,-545.0437622070312,-5.039288520812988,81.25012969970703,42.38707733154297,91.57979583740234,137.7034454345703,65535.0
19513.44169244898,-871.3876342773438,227.3673095703125,30.799335479736328,-513.619384765625,-12.449581146240234,77.4825210571289,36.15056228637695,88.5049057006836,139.4773712158203,65535.0
19513.442092457535,-876.5855102539062,231.85105895996094,29.656421661376953,-517.335205078125,-6.090967655181885,79.94931030273438,36.892547607421875,92.03865051269531,144.30870056152344,65535.0
19513.442492466085,-902.7086791992188,234.3434600830078,34.4312744140625,-528.5303955078125,-7.356997013092041,76.60487365722656,36.842613220214844,87.4318618774414,144.23150634765625,65535.0
19513.44289247464,-901.9412841796875,246.0157470703125,43.01490783691406,-548.775634765625,-5.625525951385498,78.72216796875,40.78703689575195,91.72969055175781,145.6186981201172,65535.0
19513.443292483193,-900.773193359375,246.683837890625,40.00595474243164,-552.123291015625,-3.3105998039245605,81.1494140625,38.0640754699707,92.99451446533203,146.72967529296875,65535.0
19513.443692491746,-900.7060546875,236.05755615234375,45.42905807495117,-542.9993896484375,-5.615890979766846,77.48465728759766,37.32773208618164,89.51933288574219,145.82846069335938,65535.0
19513.444092500296,-896.7448120117188,253.0098876953125,38.53643798828125,-524.9756469726562,-11.801755905151367,70.28997802734375,31.244468688964844,83.23493957519531,147.785888671875,65535.0
19513.44449250885,-875.872802734375,248.78533935546875,33.46121597290039,-511.47796630859375,-8.983962059020996,72.63650512695312,37.0521125793457,87.42205047607422,151.05784606933594,65535.0
19513.444892517404,-864.2552490234375,245.65858459472656,42.64361572265625,-508.52813720703125,-7.096190929412842,78.02958679199219,40.01626968383789,91.69763946533203,146.7038116455078,65535.0
19513.445292525954,-865.6394653320312,247.384521484375,39.958518981933594,-514.8627319335938,-10.122079849243164,73.44171142578125,35.14289093017578,86.72052001953125,152.99037170410156,65535.0
19513.445692534508,-857.4873046875,236.80413818359375,40.722373962402344,-509.9743957519531,-11.44655704498291,71.48052215576172,33.31258010864258,86.96778106689453,151.91287231445312,65535.0
19513.44609254306,-835.0053100585938,248.43202209472656,48.370201110839844,-509.4338684082031,-16.951282501220703,63.158241271972656,26.005903244018555,80.27782440185547,140.82363891601562,65535.0
19513.446492551615,-827.8126831054688,244.68475341796875,45.03480911254883,-506.6155090332031,-26.522768020629883,51.572723388671875,21.15812110900879,72.12676239013672,152.4901123046875,65535.0
19513.446892560165,-827.4519653320312,256.30352783203125,48.158241271972656,-500.6973876953125,-18.09892463684082,56.072975158691406,27.698190689086914,81.1446533203125,141.96971130371094,65535.0
19513.44729256872,-827.6923217773438,267.35040283203125,54.366111755371094,-507.3081359863281,-17.94213104248047,58.563934326171875,29.985807418823242,79.63822937011719,148.6914520263672,65535.0
19513.447692577272,-822.6666259765625,253.53309631347656,49.042816162109375,-507.5794372558594,-20.458091735839844,56.74088668823242,26.54430389404297,77.39655303955078,149.14108276367188,65535.0
19513.448092585822,-827.06787109375,248.8680419921875,44.36239242553711,-501.1278076171875,-12.800202369689941,60.747188568115234,29.04100799560547,85.98993682861328,136.5367431640625,65535.0
19513.448492594376,-828.5241088867188,240.4905242919922,54.36139678955078,-485.62335205078125,-16.147260665893555,57.383583068847656,29.238279342651367,82.76050567626953,144.5498046875,65535.0
19513.44889260293,-815.3814086914062,247.08670043945312,52.02688217163086,-468.29541015625,-25.107135772705078,48.32936096191406,21.449504852294922,74.1153564453125,145.11558532714844,65535.0
19513.449292611484,-820.1116943359375,241.77532958984375,57.55182647705078,-464.5323791503906,-20.09339141845703,50.52218246459961,23.621164321899414,79.26609802246094,141.8672332763672,65535.0
19513.449692620034,-828.5733642578125,244.4676513671875,52.72949981689453,-487.07733154296875,-23.42974281311035,43.634437561035156,22.689836502075195,75.05038452148438,152.39501953125,65535.0
19513.450092628587,-833.593505859375,254.81741333007812,55.599586486816406,-484.73846435546875,-26.49950408935547,38.395206451416016,18.215486526489258,69.54597473144531,148.9983367919922,65535.0
19513.45049263714,-830.2649536132812,238.220458984375,59.807003021240234,-474.420654296875,-23.36749839782715,42.16397476196289,21.835668563842773,74.37751770019531,145.0574951171875,65535.0
19513.45089264569,-824.001220703125,236.41940307617188,52.85199737548828,-484.6211853027344,-23.638153076171875,43.79813766479492,21.97088050842285,74.1492919921875,152.4713134765625,65535.0
19513.451292654245,-812.6035766601562,245.81640625,47.09660720825195,-493.3670959472656,-33.68180847167969,34.08893966674805,11.971880912780762,67.04051971435547,151.79527282714844,65535.0
19513.4516926628,-820.2048950195312,238.0378875732422,45.156028747558594,-503.3317565917969,-20.150434494018555,41.592430114746094,20.39701271057129,76.16197967529297,154.7726593017578,65535.0
19513.452092671352,-812.0808715820312,238.3155059814453,41.88447570800781,-520.3952026367188,-26.765573501586914,37.83558654785156,18.038658142089844,68.32099914550781,155.58319091796875,65535.0
19513.452492679902,-794.4595336914062,240.31935119628906,36.78219985961914,-533.172119140625,-33.476192474365234,32.92629623413086,10.05858325958252,63.86790466308594,155.02166748046875,65535.0
19513.452892688456,-801.4273071289062,234.48036193847656,33.54589080810547,-528.8355712890625,-29.11250877380371,37.83570098876953,13.33105182647705,69.69996643066406,152.02171325683594,65535.0
19513.45329269701,-798.1442260742188,241.89634704589844,43.90916061401367,-506.88018798828125,-17.887718200683594,51.26902770996094,26.84745216369629,79.4158935546875,141.67518615722656,65535.0
19513.45369270556,-789.7643432617188,239.23361206054688,35.66059494018555,-500.44903564453125,-20.11589813232422,48.803863525390625,21.918840408325195,77.30284881591797,135.3419647216797,65535.0
19513.454092714113,-785.3195190429688,232.04315185546875,26.34617805480957,-509.2749328613281,-32.061988830566406,34.639835357666016,10.721816062927246,66.7463607788086,139.27503967285156,65535.0
19513.454492722667,-791.727783203125,236.3846435546875,38.547916412353516,-518.37109375,-25.204753875732422,41.55824279785156,17.864303588867188,71.27373504638672,144.21817016601562,65535.0
19513.45489273122,-792.0553588867188,227.83457946777344,43.7772102355957,-525.0794067382812,-17.347137451171875,54.746971130371094,24.01769256591797,78.4422836303711,154.39785766601562,65535.0
19513.45529273977,-798.2545166015625,224.9130401611328,36.47874069213867,-517.1298828125,-21.831256866455078,52.96258544921875,24.167194366455078,75.91614532470703,145.24197387695312,65535.0
19513.455692748325,-786.4027099609375,221.1797332763672,38.16650390625,-498.1734619140625,-19.211524963378906,53.646121978759766,25.123476028442383,78.67427062988281,149.9438934326172,65535.0
19513.45609275688,-785.6158447265625,215.00387573242188,29.764198303222656,-475.83935546875,-16.87055778503418,59.479618072509766,29.0733585357666,80.43071746826172,148.20639038085938,65535.0
19513.45649276543,-791.6864624023438,215.83355712890625,28.254535675048828,-451.530517578125,-13.244532585144043,63.609344482421875,30.713001251220703,82.35963439941406,145.8018341064453,65535.0
19513.456892773982,-800.0183715820312,204.1518096923828,37.3087158203125,-436.85894775390625,-4.46068000793457,71.4427490234375,39.96065902709961,91.8939437866211,135.377685546875,65535.0
19513.457292782536,-788.667236328125,200.03575134277344,29.213151931762695,-433.09271240234375,-12.608959197998047,65.56710052490234,28.62409210205078,85.48169708251953,146.51797485351562,65535.0
19513.45769279109,-776.0567016601562,207.04861450195312,33.67456817626953,-434.9722900390625,-11.840544700622559,69.84600067138672,28.894044876098633,86.7837905883789,145.5655517578125,65535.0
19513.45809279964,-781.3195190429688,204.6815185546875,43.77713394165039,-438.2462158203125,-9.542975425720215,74.48521423339844,33.675724029541016,88.0697250366211,158.4594268798828,65535.0
19513.458492808193,-792.5996704101562,198.51768493652344,38.249420166015625,-457.0438232421875,-16.259485244750977,69.38065338134766,29.063791275024414,84.3246078491211,149.0442352294922,65535.0
19513.458892816747,-798.511474609375,199.35507202148438,30.995559692382812,-458.3013610839844,-15.786886215209961,66.91946411132812,28.252073287963867,83.11318969726562,135.0962371826172,65535.0
19513.459292825297,-793.15234375,206.11647033691406,30.625919342041016,-452.3163146972656,-5.069761276245117,80.34089660644531,37.772979736328125,90.14569854736328,144.7256317138672,65535.0
19513.45969283385,-792.749755859375,213.65159606933594,31.97990608215332,-453.5837097167969,-0.3696320652961731,86.5849838256836,45.90938186645508,96.62715148925781,153.12428283691406,65535.0
19513.460092842404,-782.0692138671875,207.35885620117188,40.49179458618164,-458.0595397949219,-5.91262674331665,82.66117858886719,39.448726654052734,94.76134490966797,155.05735778808594,65535.0
19513.460492850958,-776.0368041992188,205.81488037109375,42.349037170410156,-478.463623046875,-2.4016683101654053,85.53437042236328,43.15503692626953,97.52635955810547,146.33518981933594,65535.0
19513.460892859508,-776.720703125,207.08729553222656,34.31098556518555,-468.2892150878906,-4.954317092895508,84.44253540039062,40.26162338256836,94.05846405029297,143.64283752441406,65535.0
19513.46129286806,-790.0177612304688,209.65542602539062,40.5176887512207,-472.8918151855469,-2.1405303478240967,87.0582275390625,40.097408294677734,94.94932556152344,150.04408264160156,65535.0
19513.461692876615,-822.7061157226562,225.73696899414062,37.672603607177734,-467.1190490722656,-0.04637996852397919,88.95233154296875,44.02934646606445,97.3957748413086,144.02484130859375,65535.0
19513.462092885165,-827.1095581054688,224.5737762451172,42.68962860107422,-452.4883728027344,-1.2797449827194214,93.39579010009766,45.52571487426758,99.85418701171875,142.64532470703125,65535.0
19513.46249289372,-838.4288330078125,224.7784423828125,39.64908218383789,-454.0183410644531,1.5464777946472168,90.28665161132812,43.95730209350586,96.67115020751953,147.10989379882812,65535.0
19513.462892902273,-843.6243896484375,231.04193115234375,40.76286315917969,-447.5745849609375,-4.1100544929504395,84.41618347167969,42.11150360107422,92.73391723632812,146.2092742919922,65535.0
19513.463292910827,-815.6663208007812,233.48687744140625,39.161006927490234,-451.2992858886719,-8.86302375793457,77.65543365478516,38.088138580322266,90.69453430175781,136.58860778808594,65535.0
19513.463692919377,-791.5433349609375,232.5747833251953,37.6573371887207,-454.0245361328125,-2.9137537479400635,83.13530731201172,42.416847229003906,95.55044555664062,129.97891235351562,65535.0
19513.46409292793,-798.4112548828125,239.45330810546875,37.68950271606445,-456.17266845703125,0.6705050468444824,84.09123992919922,44.031105041503906,96.98189544677734,142.4495391845703,65535.0
19513.464492936484,-816.53955078125,234.96392822265625,35.64197540283203,-456.05596923828125,4.479617118835449,89.82061004638672,49.23561096191406,100.66192626953125,150.09083557128906,65535.0
19513.464892945034,-835.937255859375,236.54408264160156,43.2398681640625,-458.6509704589844,-8.19766616821289,75.33927154541016,38.758243560791016,88.66645050048828,142.48731994628906,65535.0
19513.465292953588,-861.1668090820312,246.40411376953125,45.74402618408203,-449.2215576171875,-8.890087127685547,74.02130889892578,35.54726028442383,89.00431823730469,148.76846313476562,65535.0
19513.46569296214,-880.740966796875,245.2772216796875,52.626136779785156,-435.7261657714844,-15.526571273803711,66.02950286865234,31.001461029052734,82.39739990234375,146.06988525390625,65535.0
19513.466092970695,-865.808837890625,241.5254669189453,54.31951141357422,-447.7567138671875,-14.540739059448242,62.40382385253906,29.53732681274414,84.64740753173828,147.1136474609375,65535.0
19513.466492979245,-861.68017578125,250.39138793945312,53.761714935302734,-450.0448913574219,-15.379627227783203,60.42087936401367,30.518531799316406,82.32929229736328,159.52105712890625,65535.0
19513.4668929878,-864.9874267578125,246.52163696289062,53.65753173828125,-436.7062072753906,-21.76441764831543,55.074764251708984,22.61956214904785,76.28631591796875,161.23336791992188,65535.0
19513.467292996353,-854.0512084960938,243.31588745117188,47.400020599365234,-454.3786926269531,-22.841026306152344,49.756935119628906,18.824081420898438,74.3654556274414,151.5811309814453,65535.0
19513.467693004903,-849.7542724609375,255.153076171875,54.30345916748047,-446.7400207519531,-22.300670623779297,51.28759002685547,19.79841423034668,74.86556243896484,156.16445922851562,65535.0
19513.468093013456,-839.3494262695312,249.912841796875,53.04188537597656,-449.0557556152344,-37.524269104003906,34.22530746459961,9.16263198852539,60.60102844238281,157.40151977539062,65535.0
19513.46849302201,-817.1536254882812,252.10787963867188,60.21974182128906,-453.3410949707031,-28.500513076782227,38.14617156982422,14.40756607055664,68.21973419189453,157.97850036621094,65535.0
19513.468893030564,-820.1917114257812,252.6846160888672,60.214942932128906,-449.654541015625,-22.860315322875977,48.12135314941406,21.257957458496094,74.10416412353516,141.76844787597656,65535.0
19513.469293039114,-819.2191772460938,252.79042053222656,51.344303131103516,-451.38580322265625,-30.391536712646484,39.460445404052734,16.760467529296875,67.6437759399414,142.0086669921875,65535.0
19513.469693047668,-812.8178100585938,245.364501953125,49.84020233154297,-435.9764404296875,-36.38227081298828,28.582931518554688,9.109870910644531,62.01206588745117,159.07830810546875,65535.0
19513.47009305622,-836.53173828125,238.3022003173828,54.85604476928711,-433.6868896484375,-30.207796096801758,32.58940505981445,14.355430603027344,66.58069610595703,133.96124267578125,65535.0
19513.47049306477,-828.8480224609375,235.36813354492188,51.1474723815918,-441.934814453125,-24.945873260498047,41.46928787231445,18.759374618530273,73.33090209960938,155.6721954345703,65535.0
19513.470893073325,-817.6013793945312,240.51206970214844,46.52533721923828,-443.1697692871094,-22.881778717041016,42.814266204833984,19.076757431030273,71.74757385253906,155.9132080078125,65535.0
19513.47129308188,-811.7012329101562,231.14913940429688,51.13190841674805,-451.0640869140625,-32.99937057495117,36.698570251464844,14.310779571533203,67.22539520263672,129.2105712890625,65535.0
19513.471693090432,-810.2745971679688,217.08323669433594,39.614620208740234,-463.3233947753906,-39.47407531738281,23.26632308959961,5.4093337059021,56.910064697265625,148.37030029296875,65535.0
19513.472093098982,-793.744384765625,214.7455596923828,48.991912841796875,-466.95172119140625,-27.6133975982666,32.82148361206055,16.128454208374023,70.10111236572266,163.6940460205078,65535.0
19513.472493107536,-768.3164672851562,218.52932739257812,52.77387619018555,-476.1308898925781,-27.899581909179688,35.053489685058594,16.42832374572754,68.51248168945312,142.7383575439453,65535.0
19513.47289311609,-773.6793823242188,223.22129821777344,46.55166244506836,-487.389404296875,-28.088293075561523,38.46089553833008,14.741805076599121,68.8184814453125,148.10800170898438,65535.0
19513.47329312464,-791.508544921875,212.0289764404297,42.948211669921875,-469.5837707519531,-29.45261001586914,35.07695770263672,12.798144340515137,68.64900970458984,161.0756072998047,65535.0
19513.473693133194,-812.6798706054688,212.927734375,40.43989562988281,-442.128173828125,-34.23219680786133,32.64511489868164,9.987635612487793,61.093502044677734,142.86474609375,65535.0
19513.474093141747,-814.6788940429688,224.3311004638672,40.3021125793457,-446.0530090332031,-25.764497756958008,44.56697463989258,18.817106246948242,69.44549560546875,141.33030700683594,65535.0
19513.474493150297,-806.6002807617188,226.13026428222656,33.29805374145508,-445.8996276855469,-16.293682098388672,54.75893783569336,28.465356826782227,78.60994720458984,161.8004150390625,65535.0
19513.47489315885,-816.5174560546875,227.91506958007812,40.002742767333984,-451.4666748046875,-17.23471450805664,52.88685989379883,24.848691940307617,76.49634552001953,149.16468811035156,65535.0
19513.475293167405,-836.2308349609375,224.42678833007812,45.25537872314453,-460.8750915527344,-16.430938720703125,54.49577713012695,28.032133102416992,81.47422790527344,149.8811492919922,65535.0
19513.47569317596,-844.2761840820312,221.8513641357422,57.11415100097656,-470.8382873535156,-19.460582733154297,51.84827423095703,26.56342315673828,80.00570678710938,144.3760223388672,65535.0
19513.47609318451,-848.7169799804688,217.9980926513672,54.54039764404297,-460.9979248046875,-23.594520568847656,47.959163665771484,19.910327911376953,69.74784088134766,162.37928771972656,65535.0
19513.476493193062,-866.099853515625,216.16310119628906,51.24464416503906,-440.3547668457031,-22.0239315032959,52.76393127441406,21.87069320678711,72.19308471679688,159.69110107421875,65535.0
19513.476893201616,-850.4865112304688,221.39007568359375,45.12348175048828,-426.1739196777344,-19.63447380065918,54.66265869140625,23.00029945373535,79.17108154296875,160.2540740966797,65535.0
19513.477293210166,-827.8162841796875,209.56106567382812,35.542686462402344,-425.3533935546875,-24.414379119873047,52.08696365356445,16.510900497436523,70.61981964111328,154.27442932128906,65535.0
19513.47769321872,-832.4816284179688,202.89962768554688,30.173595428466797,-420.34033203125,-19.543960571289062,57.5087890625,25.926923751831055,75.7972640991211,141.9561004638672,65535.0
19513.478093227273,-840.51513671875,205.3122100830078,43.450252532958984,-412.5726623535156,-10.895910263061523,68.52604675292969,34.04827117919922,84.03202056884766,143.50860595703125,65535.0
19513.478493235827,-839.2816162109375,212.79959106445312,37.25895309448242,-435.36737060546875,-18.035160064697266,67.0080337524414,28.08414077758789,78.83311462402344,150.9451904296875,65535.0
19513.478893244377,-843.7866821289062,211.02589416503906,49.11558532714844,-472.6726379394531,-12.738658905029297,72.381591796875,30.914417266845703,83.2531509399414,153.56997680664062,65535.0
19513.47929325293,-856.4579467773438,213.78684997558594,41.50792694091797,-509.5210266113281,-12.278358459472656,74.19412231445312,33.179443359375,83.94400787353516,155.17459106445312,65535.0
19513.479693261484,-853.0801391601562,211.17860412597656,39.121856689453125,-538.2137451171875,-16.372241973876953,72.87812805175781,30.70792007446289,84.06144714355469,147.6589813232422,65535.0
19513.480093270035,-843.5468139648438,209.2238006591797,40.96991729736328,-555.3812255859375,-10.573634147644043,76.39205169677734,32.88239288330078,89.18608093261719,143.22569274902344,65535.0
19513.48049327859,-848.3470458984375,213.89285278320312,41.18294143676758,-564.7182006835938,-3.2616965770721436,85.32018280029297,40.5782356262207,95.26576232910156,147.61236572265625,65535.0
19513.480893287142,-836.817138671875,211.23455810546875,42.13920593261719,-546.8900146484375,-6.7537150382995605,82.72254943847656,38.112579345703125,90.54676055908203,150.967041015625,65535.0
19513.481293295696,-824.1038818359375,216.73838806152344,51.90251922607422,-532.040283203125,-6.966917514801025,83.4221420288086,37.30796432495117,91.83946228027344,146.5509796142578,65535.0
19513.481693304246,-834.0159301757812,216.346435546875,44.63705062866211,-523.30810546875,-0.8436511754989624,89.02217102050781,42.02595138549805,96.48048400878906,145.60220336914062,65535.0
19513.4820933128,-839.5664672851562,219.38327026367188,52.62456130981445,-525.2289428710938,-6.699114799499512,82.73261260986328,38.27903366088867,92.50655364990234,145.10459899902344,65535.0
19513.482493321353,-839.39306640625,209.70599365234375,57.23390579223633,-499.7178955078125,-14.277091026306152,72.09978485107422,28.723743438720703,84.6259765625,153.75762939453125,65535.0
19513.482893329903,-835.2144775390625,211.1146697998047,44.692909240722656,-485.1510009765625,-17.0750675201416,67.7137451171875,27.766084671020508,80.71001434326172,170.3791961669922,65535.0
19513.483293338457,-830.7886352539062,209.40042114257812,48.689910888671875,-503.4058837890625,-16.333938598632812,64.97518157958984,28.626026153564453,79.52066802978516,156.9315185546875,65535.0
19513.48369334701,-851.9616088867188,201.5917205810547,50.51737976074219,-480.664794921875,-18.968402862548828,63.842987060546875,24.769672393798828,78.30961608886719,152.1359100341797,65535.0
19513.484093355564,-860.9701538085938,207.85923767089844,50.350345611572266,-447.2452392578125,-19.169015884399414,62.157318115234375,22.178617477416992,76.6383056640625,158.6605682373047,65535.0
19513.484493364114,-852.0946044921875,215.72683715820312,55.73371505737305,-452.5389099121094,-13.526151657104492,71.61988067626953,32.01213836669922,87.56550598144531,158.51873779296875,65535.0
19513.484893372668,-837.7626953125,214.31515502929688,56.188507080078125,-468.2696838378906,-7.497455596923828,73.57152557373047,36.59408950805664,89.31914520263672,168.2994842529297,65535.0
19513.48529338122,-815.730224609375,216.8663330078125,44.419105529785156,-470.84716796875,-9.654109001159668,73.78266143798828,33.81216049194336,87.25442504882812,144.715087890625,65535.0
19513.48569338977,-809.4019165039062,217.16421508789062,53.405357360839844,-464.47772216796875,-14.643319129943848,68.4364013671875,32.740577697753906,84.4451904296875,150.0906982421875,65535.0
19513.486093398325,-784.9354858398438,219.02804565429688,52.672637939453125,-442.61932373046875,-14.359842300415039,63.946407318115234,29.686664581298828,83.72379302978516,159.1309814453125,65535.0
19513.48649340688,-761.8584594726562,215.18235778808594,57.38157272338867,-442.2027893066406,-13.419788360595703,65.46885681152344,29.926023483276367,84.57213592529297,159.36563110351562,65535.0
19513.486893415433,-762.528564453125,209.4529266357422,54.19872283935547,-434.24530029296875,-10.770322799682617,65.24227905273438,32.1537971496582,85.60981750488281,148.76904296875,65535.0
19513.487293423983,-752.7180786132812,212.27523803710938,51.84675598144531,-436.636474609375,-15.525712013244629,60.49702453613281,28.122846603393555,80.880126953125,147.09097290039062,65535.0
19513.487693432537,-753.3333740234375,224.17843627929688,63.90827560424805,-450.3622131347656,-16.165725708007812,61.47870635986328,28.297832489013672,82.63164520263672,159.9936065673828,65535.0
19513.48809344109,-754.6817626953125,218.87155151367188,58.35031509399414,-460.6510925292969,-24.4185733795166,52.667213439941406,23.125076293945312,74.04578399658203,154.81044006347656,65535.0
19513.48849344964,-762.81591796875,224.54891967773438,59.710201263427734,-477.1959533691406,-22.855989456176758,51.68593978881836,19.915557861328125,73.1452865600586,134.4362335205078,65535.0
19513.488893458194,-775.203125,223.88182067871094,67.96942901611328,-476.5312194824219,-10.063970565795898,62.69405746459961,34.045509338378906,90.10630798339844,142.3494415283203,65535.0
19513.489293466748,-784.5650024414062,222.3804168701172,66.06000518798828,-459.262939453125,-20.772781372070312,54.887725830078125,25.4908504486084,77.64659118652344,154.79684448242188,65535.0
19513.4896934753,-788.4716186523438,220.58566284179688,67.66276550292969,-470.1457214355469,-31.933574676513672,37.34911346435547,13.849645614624023,65.44625854492188,155.2444610595703,65535.0
19513.49009348385,-801.3544921875,212.07650756835938,57.82986831665039,-478.2023620605469,-32.72612380981445,35.2681999206543,12.57628059387207,66.4463119506836,157.19810485839844,65535.0
19513.490493492405,-806.0686645507812,209.00733947753906,54.534812927246094,-471.10748291015625,-24.175769805908203,41.44905471801758,15.826332092285156,70.34066009521484,147.36196899414062,65535.0
19513.49089350096,-810.33740234375,207.1070556640625,47.63006591796875,-479.3479309082031,-28.878896713256836,37.637107849121094,16.879369735717773,67.40930938720703,147.80393981933594,65535.0
19513.49129350951,-823.0716552734375,204.5671844482422,39.22867202758789,-479.9347839355469,-29.514223098754883,37.9913444519043,16.925676345825195,70.06591033935547,147.86231994628906,65535.0
19513.491693518063,-851.4951171875,206.6360321044922,45.79423141479492,-476.53533935546875,-36.39936447143555,31.639928817749023,8.535919189453125,61.56995391845703,150.96519470214844,65535.0
19513.492093526616,-874.4381713867188,205.08001708984375,43.54753112792969,-482.0357360839844,-36.197078704833984,30.916240692138672,7.4768877029418945,62.8710823059082,161.28770446777344,65535.0
19513.49249353517,-871.6143188476562,198.38900756835938,44.298789978027344,-483.5499267578125,-36.90915298461914,28.644760131835938,7.5829758644104,62.159549713134766,145.2929229736328,65535.0
19513.49289354372,-867.765625,209.58392333984375,52.17707824707031,-487.8880920410156,-32.42475509643555,35.56414031982422,12.241031646728516,65.10600280761719,140.55210876464844,65535.0
19513.493293552274,-851.854736328125,216.0951385498047,44.76982498168945,-497.31695556640625,-26.794546127319336,43.182308197021484,15.398792266845703,70.4133529663086,146.8096466064453,65535.0
19513.493693560828,-835.9305419921875,215.26121520996094,45.51756286621094,-502.4793701171875,-34.66071319580078,35.690773010253906,7.9583964347839355,63.2275390625,160.24380493164062,65535.0
