0,1,2,3,4,5,6,7,8,9,10
14955.898580075036,289.9213562011719,333.3372802734375,269.9273986816406,-397.5196838378906,-23.42704963684082,44.0269660949707,20.041536331176758,74.78639221191406,16383.5,65535.0
14955.898980083666,285.18548583984375,325.6077575683594,272.603515625,-400.9588317871094,-22.057743072509766,46.47464370727539,20.514476776123047,74.94578552246094,16383.5,65535.0
14955.899380092294,296.52386474609375,325.9666748046875,267.6219177246094,-403.1973571777344,-17.274110794067383,46.6423225402832,24.0568904876709,79.09537506103516,16383.5,65535.0
14955.899780100925,298.1861572265625,334.6941223144531,260.8043212890625,-398.633056640625,-35.24199295043945,29.46901512145996,6.9116902351379395,61.4653434753418,16383.5,65535.0
14955.900180109555,321.9867858886719,339.5137939453125,258.2303771972656,-398.52142333984375,-31.703664779663086,31.80816078186035,10.727142333984375,67.16433715820312,16383.5,65535.0
14955.900580118185,336.80279541015625,333.6165466308594,252.46026611328125,-380.36627197265625,-27.386606216430664,38.191253662109375,16.84070587158203,70.90441131591797,16383.5,65535.0
14955.900980126813,352.9072570800781,322.47894287109375,237.81210327148438,-379.8948059082031,-22.088600158691406,41.934349060058594,18.65533447265625,73.52954864501953,16383.5,65535.0
14955.901380135443,379.90625,325.44830322265625,228.92208862304688,-379.53289794921875,-26.425636291503906,36.34800720214844,15.645960807800293,70.61360168457031,16383.5,65535.0
14955.901780144073,394.3616943359375,333.01556396484375,232.38070678710938,-380.97833251953125,-30.738258361816406,32.15460968017578,15.003726959228516,67.43994140625,16383.5,65535.0
14955.902180152703,388.2777099609375,326.7233581542969,229.1991424560547,-376.8619079589844,-26.995168685913086,35.91908264160156,17.320886611938477,72.05297088623047,16383.5,65535.0
14955.902580161332,371.1357421875,333.14111328125,211.39739990234375,-368.4196472167969,-35.49238204956055,26.526430130004883,6.841879367828369,62.61766815185547,16383.5,65535.0
14955.902980169962,357.2541809082031,330.4771728515625,206.15846252441406,-377.9346923828125,-22.855545043945312,38.92161560058594,17.946855545043945,75.35449981689453,16383.5,65535.0
14955.903380178592,345.1834411621094,321.75152587890625,211.44691467285156,-376.9446716308594,-23.588855743408203,42.38089370727539,21.04036521911621,75.82125091552734,16383.5,65535.0
14955.903780187222,329.46514892578125,325.80511474609375,215.60855102539062,-376.6566162109375,-26.590551376342773,37.47996139526367,16.697908401489258,69.76219940185547,16383.5,65535.0
14955.90418019585,330.5715637207031,330.92547607421875,198.22962951660156,-371.940673828125,-29.478126525878906,34.504817962646484,13.732891082763672,68.89404296875,16383.5,65535.0
14955.90458020448,337.7349548339844,330.4210510253906,174.32896423339844,-381.82952880859375,-28.104108810424805,38.202850341796875,16.118642807006836,70.37503814697266,16383.5,65535.0
14955.90498021311,336.294677734375,325.636474609375,171.65988159179688,-389.315185546875,-30.44952964782715,33.271522521972656,11.173747062683105,65.58818817138672,16383.5,65535.0
14955.90538022174,345.83685302734375,320.03070068359375,151.44012451171875,-383.48846435546875,-27.331218719482422,37.71744155883789,15.238972663879395,69.70085906982422,16383.5,65535.0
14955.905780230369,346.5679931640625,325.3173522949219,124.26433563232422,-392.690673828125,-22.876319885253906,41.23986053466797,19.27931022644043,76.22612762451172,16383.5,65535.0
14955.906180238999,343.5698547363281,331.33868408203125,125.04695129394531,-388.1203918457031,-33.9304313659668,31.23351287841797,8.631155967712402,64.77714538574219,16383.5,65535.0
14955.906580247629,331.39208984375,331.24560546875,125.9974365234375,-373.09320068359375,-25.994829177856445,41.20206069946289,15.536796569824219,71.00456237792969,16383.5,65535.0
14955.906980256259,300.690185546875,325.07232666015625,131.33709716796875,-353.565185546875,-25.8706111907959,42.5678825378418,15.015887260437012,68.8755111694336,16383.5,65535.0
14955.907380264887,262.8851318359375,325.60491943359375,95.49748229980469,-363.64068603515625,-20.47372817993164,49.281219482421875,21.656919479370117,75.90899658203125,16383.5,65535.0
14955.907780273517,229.29656982421875,325.0510559082031,92.61380767822266,-355.46160888671875,-10.633187294006348,62.50707244873047,31.91829490661621,87.73272705078125,16383.5,65535.0
14955.908180282147,235.8719482421875,318.070556640625,114.73492431640625,-343.09967041015625,-16.25099754333496,60.45291519165039,27.8122501373291,84.55210876464844,16383.5,65535.0
14955.908580290778,250.58433532714844,318.3565979003906,165.67715454101562,-342.3265380859375,-22.127668380737305,51.52958679199219,18.92239761352539,76.7583236694336,16383.5,65535.0
14955.908980299406,248.04383850097656,324.7381286621094,181.7344970703125,-344.46826171875,-20.1024169921875,56.117469787597656,22.705570220947266,78.76112365722656,16383.5,65535.0
14955.909380308036,245.5094451904297,328.10125732421875,180.77491760253906,-350.22552490234375,-19.697444915771484,55.625877380371094,20.215559005737305,78.06714630126953,16383.5,65535.0
14955.909780316666,242.39065551757812,319.5799255371094,161.4453125,-339.3767395019531,-15.208602905273438,59.0355339050293,24.774404525756836,79.93910217285156,16383.5,65535.0
14955.910180325296,220.9469451904297,327.5108337402344,131.0604705810547,-327.8013916015625,-13.705548286437988,67.43999481201172,29.529817581176758,85.20159912109375,16383.5,65535.0
14955.910580333924,205.3900604248047,325.262939453125,129.92507934570312,-321.3529968261719,-6.062175750732422,78.01395416259766,37.799339294433594,91.45550537109375,16383.5,65535.0
14955.910980342554,192.4530487060547,321.83123779296875,150.5167236328125,-338.2216796875,-14.517719268798828,68.51786041259766,26.013172149658203,81.73117065429688,16383.5,65535.0
14955.911380351185,175.35519409179688,338.6398620605469,174.35804748535156,-342.4053649902344,-14.947144508361816,65.06713104248047,27.456802368164062,81.3275146484375,16383.5,65535.0
14955.911780359815,164.25106811523438,351.8476257324219,173.7732391357422,-342.25213623046875,-2.7165215015411377,79.93765258789062,38.14219665527344,93.50703430175781,16383.5,65535.0
14955.912180368443,149.09906005859375,348.4699401855469,166.7870330810547,-343.0755310058594,-16.009145736694336,64.77957153320312,25.15044403076172,82.629638671875,16383.5,65535.0
14955.912580377073,154.43870544433594,352.32135009765625,177.15020751953125,-338.21466064453125,-19.409135818481445,59.17624282836914,24.950435638427734,80.07996368408203,16383.5,65535.0
14955.912980385703,148.63214111328125,345.2822265625,192.60211181640625,-347.77325439453125,-9.012749671936035,71.02265167236328,32.29755783081055,86.42086791992188,16383.5,65535.0
14955.913380394333,159.0788116455078,341.69384765625,226.208251953125,-343.996337890625,-8.830594062805176,75.2846450805664,35.340911865234375,89.07421875,16383.5,65535.0
14955.913780402961,166.36651611328125,346.921630859375,261.9835205078125,-347.99053955078125,-23.31689453125,58.22185134887695,20.003705978393555,73.77969360351562,16383.5,65535.0
14955.914180411592,167.97740173339844,351.8482360839844,265.78179931640625,-344.63330078125,-22.075122833251953,57.11021041870117,22.203859329223633,76.2517318725586,16383.5,65535.0
14955.914580420222,193.5697784423828,355.5899353027344,231.29566955566406,-341.6266784667969,-23.450822830200195,54.265220642089844,19.05136489868164,73.9042739868164,16383.5,65535.0
14955.914980428852,211.48841857910156,356.79022216796875,172.88160705566406,-348.04107666015625,-25.921859741210938,48.69685363769531,14.06469440460205,70.36752319335938,16383.5,65535.0
14955.91538043748,199.71005249023438,353.88836669921875,173.2864990234375,-343.0794372558594,-31.708833694458008,44.13444519042969,8.833160400390625,65.7558364868164,16383.5,65535.0
14955.91578044611,189.48150634765625,352.5531921386719,179.91099548339844,-334.9720153808594,-27.153507232666016,46.850093841552734,14.683894157409668,68.59274291992188,16383.5,65535.0
14955.91618045474,191.86705017089844,359.40777587890625,191.95309448242188,-342.23614501953125,-25.888778686523438,50.55961608886719,19.433340072631836,70.62287139892578,16383.5,65535.0
14955.91658046337,204.15077209472656,360.8513488769531,197.76434326171875,-359.7470397949219,-26.529687881469727,46.020301818847656,15.76529598236084,69.12152099609375,16383.5,65535.0
14955.916980471999,223.0660400390625,366.0814514160156,220.83963012695312,-352.2189636230469,-25.368141174316406,44.721946716308594,17.51694107055664,71.85020446777344,16383.5,65535.0
14955.917380480629,246.27359008789062,373.3163757324219,258.3111572265625,-346.3853454589844,-30.456422805786133,37.62405014038086,12.841711044311523,65.78475189208984,16383.5,65535.0
14955.917780489259,282.8876953125,379.09283447265625,284.92901611328125,-361.6020812988281,-23.656076431274414,43.330718994140625,17.78392219543457,71.06414031982422,16383.5,65535.0
14955.918180497887,293.0693664550781,382.3427429199219,269.7013244628906,-359.4740905761719,-11.517624855041504,56.92290496826172,25.886205673217773,82.59959411621094,16383.5,65535.0
14955.918580506517,302.91107177734375,386.5015869140625,262.291259765625,-361.6170654296875,-21.158903121948242,47.37150573730469,21.881715774536133,78.51260375976562,16383.5,65535.0
14955.918980515147,333.6018981933594,390.0149230957031,259.509033203125,-366.84197998046875,-33.04435348510742,34.483489990234375,8.711909294128418,63.986698150634766,16383.5,65535.0
14955.919380523777,327.8044128417969,395.35589599609375,265.9220275878906,-369.3356018066406,-27.762590408325195,38.22456359863281,13.33775806427002,70.43612670898438,16383.5,65535.0
14955.919780532407,317.1733703613281,401.64068603515625,290.4800720214844,-369.3287353515625,-24.69947052001953,40.05023956298828,18.755239486694336,72.8098373413086,16383.5,65535.0
14955.920180541036,310.01055908203125,410.0705871582031,306.9762268066406,-360.6939392089844,-28.982646942138672,34.89978790283203,14.5621337890625,68.49382781982422,16383.5,65535.0
14955.920580549666,307.8580627441406,400.92376708984375,325.71075439453125,-364.0323181152344,-23.470394134521484,40.27847671508789,16.001834869384766,71.45355224609375,16383.5,65535.0
14955.920980558296,320.5135803222656,402.4706726074219,331.8290710449219,-363.89569091796875,-14.679727554321289,48.667076110839844,25.25752067565918,80.99126434326172,16383.5,65535.0
14955.921380566924,336.91864013671875,411.491943359375,340.2146301269531,-357.1452941894531,-19.526662826538086,46.60651397705078,23.62708282470703,79.01681518554688,16383.5,65535.0
14955.921780575554,368.9856872558594,418.96075439453125,342.2959899902344,-350.1413879394531,-23.926836013793945,41.99259567260742,19.374773025512695,73.86155700683594,16383.5,65535.0
14955.922180584184,383.05401611328125,410.95068359375,327.84814453125,-351.7796936035156,-25.48537826538086,40.01045227050781,17.700294494628906,71.05609130859375,16383.5,65535.0
14955.922580592814,386.4910888671875,408.5570373535156,317.1309509277344,-353.2164611816406,-23.128822326660156,42.466590881347656,21.124061584472656,71.34078979492188,16383.5,65535.0
14955.922980601445,390.77056884765625,416.9702453613281,323.8419189453125,-347.0357971191406,-22.413070678710938,44.41864776611328,19.371994018554688,75.13953399658203,16383.5,65535.0
14955.923380610073,411.1081848144531,423.3502502441406,322.1508483886719,-348.5612487792969,-26.123821258544922,38.04320526123047,15.26479434967041,70.05206298828125,16383.5,65535.0
14955.923780618703,422.0780334472656,422.7365417480469,295.6761169433594,-347.1443786621094,-19.75202751159668,46.458946228027344,20.063976287841797,75.02259063720703,16383.5,65535.0
14955.924180627333,417.9932861328125,422.1382751464844,305.5870056152344,-354.0471496582031,-17.259288787841797,50.81996536254883,24.066829681396484,78.08377838134766,16383.5,65535.0
14955.924580635961,408.2736511230469,430.4396667480469,332.12548828125,-347.76763916015625,-14.14049243927002,55.15500259399414,28.77465057373047,81.13194274902344,16383.5,65535.0
14955.924980644591,395.0322570800781,422.6222839355469,346.21307373046875,-344.112548828125,-18.255992889404297,49.43986892700195,24.858449935913086,76.95249938964844,16383.5,65535.0
14955.925380653222,393.738037109375,424.4972229003906,355.6823425292969,-345.0862121582031,-20.729368209838867,50.52406692504883,22.840457916259766,77.03512573242188,16383.5,65535.0
14955.925780661852,389.8445739746094,420.579833984375,352.4021911621094,-336.8830871582031,-16.768239974975586,54.419898986816406,24.809743881225586,78.85325622558594,16383.5,65535.0
14955.926180670482,402.6596984863281,427.1217041015625,306.1645202636719,-329.3507995605469,-18.28904914855957,54.67329025268555,24.118896484375,79.28033447265625,16383.5,65535.0
14955.92658067911,391.3342590332031,428.7430114746094,276.4821472167969,-340.24945068359375,-27.436132431030273,46.21196746826172,16.611772537231445,69.18355560302734,16383.5,65535.0
14955.92698068774,380.4575500488281,428.82635498046875,273.9909362792969,-334.4234924316406,-25.14409828186035,46.84226608276367,19.89776039123535,72.42998504638672,16383.5,65535.0
14955.92738069637,366.39422607421875,439.4307861328125,239.2865447998047,-318.1660461425781,-18.67173957824707,55.12961196899414,23.45926284790039,75.42345428466797,16383.5,65535.0
14955.927780704998,352.38916015625,434.02593994140625,219.8734130859375,-328.52569580078125,-18.386943817138672,58.42471694946289,23.18492317199707,77.04694366455078,16383.5,65535.0
14955.928180713629,328.6639709472656,423.31396484375,234.89517211914062,-337.0625,-24.749780654907227,51.925071716308594,18.720441818237305,71.137939453125,16383.5,65535.0
14955.928580722259,306.690185546875,429.8554382324219,235.5236053466797,-313.1733703613281,-27.022003173828125,49.41466522216797,14.164468765258789,69.4132080078125,16383.5,65535.0
14955.928980730889,302.8922424316406,428.3413391113281,202.4041290283203,-297.09112548828125,-13.902213096618652,65.45743560791016,27.463586807250977,82.45603942871094,16383.5,65535.0
14955.929380739519,298.098876953125,431.143798828125,183.17543029785156,-307.62823486328125,-19.6567325592041,63.879005432128906,23.965816497802734,78.25764465332031,16383.5,65535.0
14955.929780748147,284.7635803222656,428.74896240234375,163.85546875,-321.8003234863281,-24.112789154052734,55.35425567626953,16.873228073120117,73.43926239013672,16383.5,65535.0
14955.930180756777,272.0724792480469,428.99609375,153.65536499023438,-332.3335266113281,-11.76872730255127,68.62379455566406,29.674772262573242,84.4825668334961,16383.5,65535.0
14955.930580765407,276.0544738769531,432.97442626953125,166.6017303466797,-341.2733154296875,-12.237165451049805,69.17550659179688,31.125879287719727,83.88557434082031,16383.5,65535.0
14955.930980774036,273.223876953125,437.7086181640625,172.07467651367188,-329.80267333984375,-16.220857620239258,68.12044525146484,25.95616912841797,82.64724731445312,16383.5,65535.0
14955.931380782666,250.84469604492188,445.21429443359375,147.36593627929688,-327.9637756347656,-16.398651123046875,68.67794036865234,25.666324615478516,81.8526382446289,16383.5,65535.0
14955.931780791296,223.69248962402344,438.8976135253906,108.7571029663086,-337.7601623535156,-20.106151580810547,63.50943374633789,23.855754852294922,80.23690032958984,16383.5,65535.0
14955.932180799926,232.13963317871094,432.1402282714844,103.14079284667969,-360.16461181640625,-7.837629795074463,78.1296615600586,35.6699104309082,89.35194396972656,16383.5,65535.0
14955.932580808556,237.29379272460938,434.01531982421875,138.12820434570312,-350.6848449707031,-14.263999938964844,74.32160186767578,30.1547908782959,85.85584259033203,16383.5,65535.0
14955.932980817184,223.45712280273438,424.983642578125,165.99095153808594,-347.05035400390625,-15.16384506225586,69.12560272216797,30.26373291015625,82.99794006347656,16383.5,65535.0
14955.933380825814,222.7536163330078,412.8528747558594,138.69808959960938,-371.40283203125,-17.876306533813477,63.20822525024414,26.40569305419922,78.07855987548828,16383.5,65535.0
14955.933780834444,215.59234619140625,390.73065185546875,95.7879409790039,-396.1878967285156,-12.07885456085205,68.60871124267578,28.099090576171875,84.23999786376953,16383.5,65535.0
14955.934180843073,198.45791625976562,375.99566650390625,75.94021606445312,-409.7214660644531,-15.886597633361816,65.99950408935547,26.972145080566406,81.68911743164062,16383.5,65535.0
14955.934580851703,193.97084045410156,373.321533203125,68.56025695800781,-423.4126892089844,-24.24956703186035,56.100799560546875,18.648433685302734,70.77055358886719,16383.5,65535.0
14955.934980860333,206.5320587158203,356.93951416015625,87.43941497802734,-421.72174072265625,-26.52737045288086,52.66414260864258,16.861038208007812,74.45630645751953,16383.5,65535.0
14955.935380868963,219.6170196533203,342.8256530761719,99.51067352294922,-447.3419189453125,-20.546018600463867,56.515846252441406,18.05869483947754,74.61512756347656,16383.5,65535.0
14955.935780877593,235.0208740234375,338.611572265625,106.14900970458984,-451.5478515625,-17.847230911254883,62.00889587402344,21.75020980834961,75.49959564208984,16383.5,65535.0
14955.936180886221,255.9452362060547,329.6967468261719,123.59563446044922,-456.3297119140625,-19.11823844909668,57.919227600097656,21.01027488708496,76.02783203125,16383.5,65535.0
14955.936580894851,262.0379943847656,311.88623046875,119.86859130859375,-479.9834289550781,-19.853811264038086,55.38680648803711,22.087045669555664,75.09861755371094,16383.5,65535.0
14955.936980903482,287.7550354003906,295.1754150390625,109.75971984863281,-507.5658264160156,-19.129806518554688,57.012969970703125,23.067197799682617,78.59925842285156,16383.5,65535.0
14955.93738091211,322.062255859375,282.8134765625,109.38568115234375,-538.4841918945312,-12.97131633758545,57.91799545288086,27.036794662475586,80.64337158203125,16383.5,65535.0
14955.93778092074,320.4839172363281,283.7244873046875,102.8340072631836,-550.40283203125,-14.97321891784668,57.92637252807617,27.56308364868164,80.523193359375,16383.5,65535.0
14955.93818092937,319.5736999511719,281.3510437011719,82.01654052734375,-554.7882080078125,-16.353900909423828,56.644805908203125,25.177064895629883,81.044189453125,16383.5,65535.0
14955.938580938,354.9573669433594,252.72637939453125,50.96418380737305,-565.6279296875,-13.934263229370117,58.985008239746094,28.584667205810547,83.47364807128906,16383.5,65535.0
14955.938980946628,370.24951171875,241.3187255859375,41.567474365234375,-572.0020751953125,-22.836936950683594,49.72242736816406,21.291088104248047,74.12525939941406,16383.5,65535.0
14955.939380955258,389.6214599609375,231.51075744628906,38.61102294921875,-568.239013671875,-17.136703491210938,49.89552688598633,18.913528442382812,78.67193603515625,16383.5,65535.0
14955.939780963889,401.80767822265625,223.69940185546875,22.961206436157227,-576.884765625,-24.062936782836914,46.951778411865234,18.705312728881836,74.47419738769531,16383.5,65535.0
14955.940180972519,403.3135986328125,212.16790771484375,9.069517135620117,-588.6760864257812,-33.97339630126953,31.224939346313477,9.695302963256836,63.02442932128906,16383.5,65535.0
14955.940580981147,426.4752197265625,203.09352111816406,-26.874109268188477,-606.7927856445312,-26.767192840576172,36.45692443847656,10.9446382522583,68.5361099243164,16383.5,65535.0
14955.940980989777,425.23895263671875,194.49127197265625,-52.48812484741211,-600.4380493164062,-32.41956329345703,35.83635330200195,11.322012901306152,64.0816879272461,16383.5,65535.0
14955.941380998407,424.8450622558594,190.21900939941406,-76.3361587524414,-600.8530883789062,-26.629613876342773,38.60585403442383,14.551055908203125,69.17649841308594,16383.5,65535.0
14955.941781007037,447.5963439941406,175.70127868652344,-72.55482482910156,-631.2381591796875,-26.66973114013672,41.53221130371094,16.033695220947266,71.79005432128906,16383.5,65535.0
14955.942181015665,462.2880859375,171.82110595703125,-51.27888107299805,-659.1925659179688,-24.45209503173828,42.36465835571289,18.697410583496094,72.11152648925781,16383.5,65535.0
14955.942581024296,479.5324401855469,176.3828582763672,-45.88271713256836,-669.4190063476562,-24.151586532592773,44.08976745605469,19.996835708618164,73.32307434082031,16383.5,65535.0
14955.942981032926,494.5368347167969,170.75869750976562,-82.1937255859375,-673.6480102539062,-36.4791374206543,30.537639617919922,6.761681079864502,63.6981086730957,16383.5,65535.0
14955.943381041556,514.1508178710938,161.512451171875,-117.02111053466797,-677.8731079101562,-38.987491607666016,25.51691436767578,1.8794392347335815,57.713802337646484,16383.5,65535.0
14955.943781050184,520.5537109375,168.78598022460938,-108.04014587402344,-665.3693237304688,-26.142650604248047,40.37210464477539,13.163152694702148,67.61418151855469,16383.5,65535.0
14955.944181058814,535.6512451171875,168.69573974609375,-95.187744140625,-661.6854858398438,-24.200138092041016,48.76054763793945,17.539339065551758,72.87055206298828,16383.5,65535.0
14955.944581067444,534.0435791015625,156.49868774414062,-118.45780181884766,-662.5394897460938,-26.562435150146484,44.87947463989258,15.171887397766113,67.5782699584961,16383.5,65535.0
14955.944981076074,525.9376220703125,147.0425262451172,-134.9022674560547,-669.1974487304688,-31.646032333374023,41.269195556640625,11.406049728393555,63.994903564453125,16383.5,65535.0
14955.945381084703,505.2687072753906,156.9960479736328,-137.616455078125,-686.8175659179688,-37.58054733276367,35.89710235595703,3.9559566974639893,61.09261703491211,16383.5,65535.0
14955.945781093333,476.5398864746094,147.5980224609375,-126.72179412841797,-688.096923828125,-26.928844451904297,44.94538879394531,13.923805236816406,68.17122650146484,16383.5,65535.0
14955.946181101963,466.8580627441406,132.3823699951172,-131.17962646484375,-678.74560546875,-29.254623413085938,40.954566955566406,12.346087455749512,65.81327056884766,16383.5,65535.0
14955.946581110593,439.5979309082031,126.94880676269531,-141.1982879638672,-667.58984375,-30.022844314575195,44.154850006103516,10.582021713256836,67.5496597290039,16383.5,65535.0
14955.946981119221,426.88751220703125,115.735595703125,-146.154052734375,-671.0792236328125,-29.960227966308594,49.433937072753906,10.720368385314941,67.82791900634766,16383.5,65535.0
14955.947381127851,434.33563232421875,114.43984985351562,-149.3734130859375,-664.8380737304688,-36.906982421875,39.40120315551758,3.9925999641418457,59.68433380126953,16383.5,65535.0
14955.947781136481,420.07012939453125,108.78455352783203,-159.95770263671875,-654.9620971679688,-36.30448532104492,39.34286880493164,5.062410354614258,59.78211975097656,16383.5,65535.0
14955.948181145111,392.8331604003906,108.02237701416016,-185.04769897460938,-658.8021240234375,-40.77199935913086,37.009639739990234,2.1357715129852295,58.24641036987305,16383.5,65535.0
14955.94858115374,379.2914123535156,100.19927978515625,-194.3434295654297,-666.3583374023438,-34.06507110595703,43.827735900878906,7.837076663970947,62.53098678588867,16383.5,65535.0
14955.94898116237,370.6552734375,94.63606262207031,-193.33206176757812,-664.0233154296875,-34.407405853271484,47.92970657348633,8.690223693847656,64.40351867675781,16383.5,65535.0
14955.949381171,356.5519714355469,87.41669464111328,-191.7156982421875,-654.5256958007812,-23.515907287597656,60.73484802246094,20.53295135498047,73.81486511230469,16383.5,65535.0
14955.94978117963,328.27008056640625,78.0440444946289,-211.90687561035156,-640.9651489257812,-21.753774642944336,62.26640701293945,19.811397552490234,74.55250549316406,16383.5,65535.0
14955.950181188258,316.52862548828125,60.960880279541016,-224.61741638183594,-642.9815673828125,-39.70231246948242,42.21763229370117,0.7528690695762634,56.499969482421875,16383.5,65535.0
14955.950581196888,327.93463134765625,36.64487075805664,-204.005859375,-638.8529663085938,-35.07533645629883,45.06296157836914,5.746623992919922,61.338584899902344,16383.5,65535.0
14955.950981205518,338.7322998046875,26.579500198364258,-197.7544403076172,-648.7750854492188,-31.89718246459961,53.734195709228516,11.555885314941406,65.94378662109375,16383.5,65535.0
14955.951381214149,347.44000244140625,18.306034088134766,-195.6773681640625,-652.597900390625,-28.91702651977539,55.619720458984375,11.761362075805664,67.7609634399414,16383.5,65535.0
14955.951781222777,346.6085205078125,7.217632293701172,-202.971923828125,-658.538330078125,-24.861675262451172,61.67734146118164,18.321569442749023,70.93717193603516,16383.5,65535.0
14955.952181231407,329.353759765625,-8.216851234436035,-231.33697509765625,-660.3555908203125,-26.554834365844727,58.38663864135742,15.07358169555664,67.57188415527344,16383.5,65535.0
14955.952581240037,321.9922790527344,-19.005077362060547,-258.05633544921875,-649.0201416015625,-26.802520751953125,60.014564514160156,14.904851913452148,70.6723861694336,16383.5,65535.0
14955.952981248667,313.4032287597656,-18.865022659301758,-265.05718994140625,-644.58349609375,-21.33185386657715,64.64723205566406,20.903858184814453,74.7901611328125,16383.5,65535.0
14955.953381257295,300.0990295410156,-10.741427421569824,-256.7046813964844,-651.7639770507812,-32.765403747558594,55.720638275146484,13.52381420135498,64.7330551147461,16383.5,65535.0
14955.953781265925,296.240966796875,-3.9295220375061035,-254.59889221191406,-650.46728515625,-36.09488296508789,49.16729736328125,6.889338493347168,62.29927062988281,16383.5,65535.0
14955.954181274556,307.0942077636719,-9.534499168395996,-247.0998992919922,-641.7987670898438,-21.831626892089844,60.83233642578125,21.4739933013916,72.00527954101562,16383.5,65535.0
14955.954581283186,319.508056640625,6.0122528076171875,-215.11550903320312,-637.7589721679688,-33.30356216430664,50.630496978759766,11.216513633728027,68.18363952636719,16383.5,65535.0
14955.954981291814,330.0281066894531,12.190351486206055,-195.16566467285156,-633.1834716796875,-33.359718322753906,45.653743743896484,6.572574138641357,62.33797073364258,16383.5,65535.0
14955.955381300444,341.5442199707031,18.108928680419922,-153.45077514648438,-633.8951416015625,-38.46804428100586,40.4244384765625,5.022632598876953,58.586997985839844,16383.5,65535.0
14955.955781309074,358.2021484375,42.544525146484375,-142.0521697998047,-639.4240112304688,-33.29692840576172,48.72154998779297,10.454155921936035,66.99270629882812,16383.5,65535.0
14955.956181317704,365.0823669433594,48.38688659667969,-151.99636840820312,-644.9483642578125,-31.64333152770996,50.107566833496094,12.073373794555664,65.69286346435547,16383.5,65535.0
14955.956581326333,376.50872802734375,63.02717590332031,-160.03460693359375,-642.3666381835938,-43.497650146484375,35.40580368041992,-0.19290105998516083,53.23868179321289,16383.5,65535.0
14955.956981334963,402.94287109375,77.38225555419922,-156.13958740234375,-638.8990478515625,-46.727970123291016,28.428007125854492,-4.720254421234131,50.49700164794922,16383.5,65535.0
14955.957381343593,436.88507080078125,88.95167541503906,-132.23544311523438,-643.5117797851562,-39.87158966064453,35.7202262878418,3.8252899646759033,55.76625061035156,16383.5,65535.0
14955.957781352223,460.83880615234375,109.21612548828125,-130.72718811035156,-630.2044677734375,-39.229862213134766,37.26237487792969,4.0991530418396,60.40566635131836,16383.5,65535.0
14955.958181360851,480.8447265625,116.40249633789062,-117.56001281738281,-602.6093139648438,-49.09724426269531,25.189908981323242,-1.9753540754318237,50.08170700073242,16383.5,65535.0
14955.958581369481,489.93359375,122.3171157836914,-120.15167236328125,-624.2288208007812,-36.82194900512695,33.10353088378906,5.666766166687012,57.013607025146484,16383.5,65535.0
14955.958981378111,495.3421325683594,128.7852325439453,-96.69361114501953,-643.4758911132812,-34.27965545654297,41.55216598510742,10.412101745605469,65.47708892822266,16383.5,65535.0
14955.95938138674,483.0364685058594,124.92279052734375,-61.08118438720703,-648.9124755859375,-38.083133697509766,35.031333923339844,6.365932464599609,61.339176177978516,16383.5,65535.0
14955.95978139537,469.12823486328125,136.8163604736328,-28.806262969970703,-643.4318237304688,-35.127159118652344,37.64309310913086,7.017305374145508,60.08448028564453,16383.5,65535.0
14955.960181404,462.588623046875,133.73094177246094,-15.684374809265137,-626.4970703125,-49.625587463378906,23.349262237548828,-4.097086429595947,49.33539581298828,16383.5,65535.0
14955.96058141263,463.11090087890625,129.4666290283203,-14.02980899810791,-607.314208984375,-28.091161727905273,40.45088195800781,12.003860473632812,69.35189819335938,16383.5,65535.0
14955.96098142126,448.4712829589844,126.1922836303711,-18.459400177001953,-591.1016235351562,-32.074771881103516,38.00056838989258,8.92781925201416,67.46184539794922,16383.5,65535.0
14955.961381429888,438.3963317871094,122.17667388916016,-29.71062469482422,-567.9974975585938,-37.77442932128906,29.221067428588867,3.233839750289917,57.94133377075195,16383.5,65535.0
14955.961781438518,431.4705810546875,109.27745056152344,-31.316617965698242,-548.0624389648438,-32.3350715637207,35.579322814941406,8.971994400024414,64.39613342285156,16383.5,65535.0
14955.962181447148,413.0513916015625,98.7304916381836,-12.73226261138916,-523.5921020507812,-37.5041389465332,31.262399673461914,6.455035209655762,60.813724517822266,16383.5,65535.0
14955.962581455777,404.6187744140625,83.6681900024414,15.835487365722656,-511.040771484375,-27.70177459716797,41.650569915771484,13.578231811523438,68.74560546875,16383.5,65535.0
14955.962981464407,400.6700744628906,83.61319732666016,18.846708297729492,-508.20050048828125,-29.415327072143555,42.04570388793945,14.067970275878906,68.0483627319336,16383.5,65535.0
14955.963381473037,412.8519592285156,81.51007843017578,9.639902114868164,-496.04266357421875,-30.5864200592041,41.42906951904297,13.448599815368652,67.51307678222656,16383.5,65535.0
14955.963781481667,412.7513732910156,48.47296142578125,40.35239791870117,-477.18817138671875,-33.47590637207031,39.001853942871094,8.731008529663086,64.53196716308594,16383.5,65535.0
14955.964181490297,404.1228942871094,35.42111587524414,43.73445510864258,-462.7576599121094,-34.84825134277344,38.34036636352539,7.70334529876709,61.17068099975586,16383.5,65535.0
14955.964581498925,399.0433044433594,20.695571899414062,45.746490478515625,-443.79351806640625,-40.5539665222168,33.142757415771484,2.527792453765869,55.62846374511719,16383.5,65535.0
14955.964981507555,393.5495910644531,-18.264997482299805,59.447914123535156,-441.4344482421875,-36.71858596801758,35.944740295410156,2.658338785171509,59.351932525634766,16383.5,65535.0
14955.965381516186,367.17718505859375,-47.05535888671875,72.08377838134766,-446.4326171875,-28.168441772460938,45.83253860473633,12.065370559692383,66.72944641113281,16383.5,65535.0
14955.965781524814,350.3890075683594,-63.384735107421875,74.34125518798828,-442.8698425292969,-24.121492385864258,53.23616409301758,18.614234924316406,74.697021484375,16383.5,65535.0
14955.966181533444,353.2646484375,-71.22969818115234,70.26781463623047,-436.26214599609375,-33.93642044067383,43.43970489501953,10.013748168945312,63.54243850708008,16383.5,65535.0
14955.966581542074,328.01800537109375,-70.1783676147461,93.27156066894531,-438.948486328125,-30.960758209228516,49.046756744384766,14.16767692565918,63.99494171142578,16383.5,65535.0
14955.966981550704,302.11163330078125,-66.84669494628906,116.55318450927734,-421.3963317871094,-31.296144485473633,47.712032318115234,13.35995864868164,67.28072357177734,16383.5,65535.0
14955.967381559334,270.34527587890625,-55.6771125793457,126.59446716308594,-415.72467041015625,-21.283231735229492,59.63328552246094,18.98798179626465,72.4640884399414,16383.5,65535.0
14955.967781567962,264.5292053222656,-58.57611083984375,165.91860961914062,-400.1474304199219,-21.608163833618164,63.84480667114258,22.894832611083984,73.46855163574219,16383.5,65535.0
14955.968181576593,266.7348937988281,-50.21782302856445,215.52926635742188,-381.5581970214844,-21.125402450561523,60.430782318115234,19.254053115844727,75.17300415039062,16383.5,65535.0
14955.968581585223,273.92181396484375,-29.06314468383789,192.92787170410156,-375.14837646484375,-25.027957916259766,57.67708969116211,14.281461715698242,71.07612609863281,16383.5,65535.0
14955.968981593851,260.4008483886719,-12.621549606323242,164.07386779785156,-380.8414611816406,-13.422942161560059,73.76551818847656,29.883695602416992,82.01802825927734,16383.5,65535.0
14955.969381602481,243.5373077392578,3.078388214111328,170.18287658691406,-386.77935791015625,-19.3577823638916,69.40324401855469,24.412338256835938,78.05132293701172,16383.5,65535.0
14955.969781611111,224.9396209716797,15.75422477722168,193.07762145996094,-366.5774841308594,-16.725643157958984,71.05975341796875,25.223175048828125,80.20068359375,16383.5,65535.0
14955.970181619741,194.5348358154297,32.055511474609375,190.97994995117188,-352.56890869140625,-3.0564403533935547,91.01317596435547,41.44856643676758,95.04753875732422,16383.5,65535.0
14955.970581628371,172.54197692871094,50.03220748901367,177.00685119628906,-354.4561462402344,-8.0042724609375,88.34662628173828,38.24708938598633,92.57278442382812,16383.5,65535.0
14955.970981637,150.83944702148438,61.12922286987305,181.29078674316406,-361.0489807128906,-9.058365821838379,83.5971450805664,32.057395935058594,88.02291870117188,16383.5,65535.0
14955.97138164563,124.3016128540039,89.09362030029297,187.3900146484375,-349.39892578125,-7.198123931884766,85.78077697753906,33.78952407836914,87.2264175415039,16383.5,65535.0
14955.97178165426,110.32848358154297,110.40906524658203,189.99664306640625,-351.8203125,-4.370269775390625,90.20492553710938,35.97638702392578,91.49693298339844,16383.5,65535.0
14955.972181662888,115.8335189819336,120.83934020996094,220.029541015625,-360.9666442871094,-12.103353500366211,79.36829376220703,29.70660400390625,83.06790924072266,16383.5,65535.0
14955.972581671518,105.40991973876953,140.70220947265625,245.6802215576172,-365.48284912109375,-14.936894416809082,76.14696502685547,26.81433868408203,82.81352233886719,16383.5,65535.0
14955.972981680148,107.28887939453125,160.9095001220703,237.6741485595703,-377.1020202636719,-10.6637544631958,80.92974090576172,32.285682678222656,85.21722412109375,16383.5,65535.0
14955.973381688778,97.41008758544922,168.04556274414062,208.64830017089844,-386.44970703125,-13.83449935913086,79.2629165649414,30.11963653564453,83.68675994873047,16383.5,65535.0
14955.973781697408,114.98187255859375,190.607421875,219.77682495117188,-390.51470947265625,-10.11860466003418,80.25357055664062,31.770709991455078,85.78636932373047,16383.5,65535.0
14955.974181706037,128.06137084960938,207.91342163085938,261.6701965332031,-400.67755126953125,-4.334551811218262,86.5068359375,37.953956604003906,92.66883850097656,16383.5,65535.0
14955.974581714667,159.38717651367188,217.0345458984375,233.16299438476562,-397.47027587890625,-11.715646743774414,75.78324127197266,30.77880859375,84.91505432128906,16383.5,65535.0
14955.974981723297,178.2781524658203,225.97128295898438,140.7119140625,-391.2924499511719,-14.54381275177002,72.41555786132812,24.890195846557617,81.90379333496094,16383.5,65535.0
14955.975381731925,190.96304321289062,235.37533569335938,148.28175354003906,-401.3642272949219,-7.1107587814331055,80.01786041259766,32.88262939453125,87.43596649169922,16383.5,65535.0
14955.975781740555,195.64431762695312,245.87405395507812,179.73492431640625,-399.25604248046875,-6.101264953613281,81.54203033447266,35.05984115600586,89.89269256591797,16383.5,65535.0
14955.976181749185,199.1851348876953,252.55198669433594,195.64422607421875,-395.1102294921875,-14.188199996948242,72.96774291992188,28.402502059936523,87.32614135742188,16383.5,65535.0
14955.976581757815,224.6709442138672,266.1427917480469,208.60833740234375,-406.8353576660156,-24.31500816345215,57.36832809448242,19.122631072998047,70.92222595214844,16383.5,65535.0
14955.976981766446,232.71217346191406,282.28424072265625,202.855712890625,-393.619384765625,-19.355375289916992,62.66482925415039,20.928855895996094,76.21443176269531,16383.5,65535.0
14955.977381775074,224.77215576171875,289.5188293457031,193.98770141601562,-399.1764221191406,-20.036020278930664,62.13416290283203,20.804983139038086,75.05841827392578,16383.5,65535.0
14955.977781783704,221.88397216796875,293.0246887207031,183.2323455810547,-410.65325927734375,-21.093795776367188,57.133541107177734,19.129898071289062,75.26893615722656,16383.5,65535.0
14955.978181792334,208.6056365966797,286.6502685546875,198.1459197998047,-426.1195373535156,-23.51384735107422,53.04689025878906,16.028615951538086,74.64554595947266,16383.5,65535.0
14955.978581800962,231.12921142578125,280.390869140625,218.3490447998047,-427.00360107421875,-23.04036521911621,55.947723388671875,20.45758056640625,75.46146392822266,16383.5,65535.0
14955.978981809592,276.0105285644531,294.07464599609375,178.4616241455078,-406.1331787109375,-30.451581954956055,45.70096969604492,12.730963706970215,67.04679870605469,16383.5,65535.0
14955.979381818222,316.5527648925781,306.2474060058594,157.47410583496094,-409.3181457519531,-26.78650665283203,45.26384735107422,13.813961029052734,71.78399658203125,16383.5,65535.0
14955.979781826853,354.26544189453125,289.7801513671875,166.97840881347656,-414.03924560546875,-25.941726684570312,46.92509460449219,16.076541900634766,70.4560775756836,16383.5,65535.0
14955.98018183548,364.45758056640625,295.8041687011719,166.5171661376953,-428.4893493652344,-26.396793365478516,44.708885192871094,16.597013473510742,73.3802490234375,16383.5,65535.0
14955.980581844111,376.0905456542969,293.3981628417969,164.0584716796875,-447.5859375,-21.292625427246094,48.05439758300781,19.318565368652344,74.86309051513672,16383.5,65535.0
14955.980981852741,387.1454162597656,297.08856201171875,163.71908569335938,-464.13568115234375,-24.193166732788086,43.655242919921875,16.76213836669922,72.60894012451172,16383.5,65535.0
14955.981381861371,375.3234558105469,298.11993408203125,183.0695037841797,-479.8431701660156,-40.42063522338867,33.68645095825195,4.677504062652588,60.26960372924805,16383.5,65535.0
14955.98178187,370.2010192871094,289.7398986816406,180.2647247314453,-474.2987365722656,-31.78419303894043,36.41597366333008,10.214716911315918,61.656280517578125,16383.5,65535.0
14955.98218187863,363.96807861328125,298.2828063964844,167.97117614746094,-463.50372314453125,-34.76802444458008,32.70166015625,7.139930725097656,63.82761764526367,16383.5,65535.0
14955.98258188726,334.2359619140625,297.4653625488281,137.54702758789062,-463.8299560546875,-39.94400405883789,29.526187896728516,4.046219825744629,55.10643005371094,16383.5,65535.0
14955.98298189589,315.84503173828125,285.92376708984375,135.0560302734375,-441.4794921875,-45.46730041503906,26.08359146118164,-1.2379354238510132,51.02669906616211,16383.5,65535.0
14955.983381904518,297.0115661621094,288.8760986328125,122.74259948730469,-430.57159423828125,-37.49781799316406,30.89406967163086,4.447904586791992,56.46421813964844,16383.5,65535.0
14955.983781913148,286.3037109375,296.4073181152344,106.26304626464844,-442.2681884765625,-40.69981384277344,29.78714942932129,3.159142255783081,57.09101867675781,16383.5,65535.0
14955.984181921778,295.00299072265625,304.45599365234375,103.43439483642578,-435.3089904785156,-43.232810974121094,27.259098052978516,-0.34993523359298706,54.219417572021484,16383.5,65535.0
14955.984581930408,283.9061584472656,300.505859375,121.0432357788086,-422.6385192871094,-33.20231246948242,37.29349136352539,9.081087112426758,63.022987365722656,16383.5,65535.0
14955.984981939037,289.3720703125,301.3633728027344,136.08445739746094,-422.2270812988281,-36.492958068847656,35.916847229003906,4.836540699005127,61.3233757019043,16383.5,65535.0
14955.985381947667,305.5264587402344,306.63299560546875,130.78224182128906,-438.24432373046875,-32.059852600097656,42.441078186035156,10.924056053161621,63.64580535888672,16383.5,65535.0
14955.985781956297,306.8896179199219,301.9398498535156,139.4134063720703,-432.4849853515625,-28.987953186035156,46.88686752319336,13.84511947631836,67.08124542236328,16383.5,65535.0
14955.986181964927,301.467529296875,304.2816162109375,160.9917755126953,-422.9323425292969,-19.25115394592285,57.40054702758789,23.997140884399414,77.53597259521484,16383.5,65535.0
14955.986581973555,307.5033264160156,302.7055969238281,151.7200469970703,-409.01513671875,-30.510147094726562,49.522666931152344,11.046407699584961,67.2036361694336,16383.5,65535.0
14955.986981982185,339.9793701171875,298.0152587890625,158.15859985351562,-392.1151428222656,-20.423799514770508,57.618995666503906,18.52487564086914,73.37046813964844,16383.5,65535.0
14955.987381990815,371.5290222167969,292.3197326660156,182.73524475097656,-390.229736328125,-18.04051399230957,64.06697845458984,23.918468475341797,79.08037567138672,16383.5,65535.0
14955.987781999445,371.3216857910156,290.42254638671875,192.433837890625,-391.9721374511719,-10.60562801361084,69.492431640625,28.382715225219727,86.04121398925781,16383.5,65535.0
14955.988182008074,360.5705261230469,290.087646484375,210.20016479492188,-377.49420166015625,-19.55595588684082,62.67921829223633,23.21556282043457,79.22039031982422,16383.5,65535.0
14955.988582016704,348.0026550292969,294.36065673828125,216.161865234375,-365.92755126953125,-13.352168083190918,70.74744415283203,28.83690071105957,86.44725036621094,16383.5,65535.0
14955.988982025334,349.4468994140625,290.58331298828125,218.24391174316406,-357.9863586425781,-14.577142715454102,73.39872741699219,28.653871536254883,85.5338134765625,16383.5,65535.0
14955.989382033964,360.84857177734375,300.71954345703125,227.16038513183594,-354.1031494140625,-5.456270694732666,81.67910766601562,36.81180191040039,91.25525665283203,16383.5,65535.0
14955.989782042592,350.0502014160156,296.4142150878906,243.52606201171875,-362.7410583496094,-7.705765247344971,82.76039123535156,34.422359466552734,89.7063980102539,16383.5,65535.0
14955.990182051222,315.891357421875,294.2200927734375,245.24899291992188,-371.1712951660156,-15.663198471069336,74.04478454589844,29.497268676757812,82.98955535888672,16383.5,65535.0
14955.990582059852,290.8199768066406,299.6392517089844,227.56808471679688,-371.2793884277344,-8.192380905151367,82.30159759521484,33.853233337402344,89.71922302246094,16383.5,65535.0
14955.990982068482,299.3876953125,294.61962890625,225.35311889648438,-374.25946044921875,-0.017279447987675667,92.00016784667969,41.923954010009766,97.52191162109375,16383.5,65535.0
14955.99138207711,312.2693786621094,301.3962097167969,209.6996612548828,-368.6156921386719,3.843845844268799,97.13833618164062,45.000953674316406,100.58527374267578,16383.5,65535.0
14955.99178208574,288.51275634765625,302.72052001953125,233.79844665527344,-379.39019775390625,-13.445744514465332,78.12830352783203,28.843746185302734,86.02983856201172,16383.5,65535.0
14955.992182094371,237.3737030029297,304.3351745605469,237.18765258789062,-390.9804382324219,-17.396514892578125,71.46749877929688,25.846765518188477,81.00447082519531,16383.5,65535.0
14955.992582103001,218.8617706298828,315.4698791503906,217.9422607421875,-406.3731689453125,-13.061444282531738,76.44508361816406,29.93840217590332,87.96951293945312,16383.5,65535.0
14955.99298211163,213.6977996826172,319.6068115234375,207.96531677246094,-423.7719421386719,-7.459543704986572,80.43031311035156,33.852203369140625,88.0468978881836,16383.5,65535.0
14955.99338212026,212.2686004638672,315.5069274902344,212.5841522216797,-443.2591247558594,-8.148630142211914,79.38660430908203,33.20680618286133,86.57722473144531,16383.5,65535.0
14955.99378212889,214.5521240234375,323.75738525390625,206.22064208984375,-446.38092041015625,-11.211773872375488,76.23921203613281,30.63943099975586,87.71466064453125,16383.5,65535.0
14955.99418213752,207.79153442382812,320.74810791015625,204.406982421875,-423.7900695800781,-17.41825294494629,69.04805755615234,27.542539596557617,80.61292266845703,16383.5,65535.0
14955.994582146148,222.61868286132812,317.8408508300781,208.89651489257812,-402.3904724121094,-12.467588424682617,72.47383117675781,31.516359329223633,85.48363494873047,16383.5,65535.0
14955.994982154778,233.73255920410156,322.70977783203125,175.3092041015625,-404.5099792480469,-12.327971458435059,73.62501525878906,30.135635375976562,84.18409729003906,16383.5,65535.0
14955.995382163408,238.76922607421875,317.5215148925781,135.7385711669922,-413.9904479980469,-19.052284240722656,68.07235717773438,25.04461669921875,81.07170867919922,16383.5,65535.0
14955.995782172038,249.23915100097656,323.02947998046875,157.4261016845703,-418.06402587890625,-9.957093238830566,71.333984375,30.146076202392578,86.78194427490234,16383.5,65535.0
14955.996182180666,262.915283203125,326.6225891113281,199.7083740234375,-404.825439453125,-8.778807640075684,72.75660705566406,32.68478775024414,87.59236145019531,16383.5,65535.0
14955.996582189297,292.2918701171875,334.0191955566406,200.30882263183594,-394.6180114746094,-14.422850608825684,67.72222900390625,29.743741989135742,82.13098907470703,16383.5,65535.0
14955.996982197927,317.48974609375,332.3324890136719,207.10055541992188,-395.8660888671875,-24.239768981933594,53.97084045410156,20.517175674438477,73.05626678466797,16383.5,65535.0
14955.997382206557,348.5998229980469,327.1667785644531,220.9961395263672,-412.8556823730469,-21.491518020629883,56.3505859375,19.85008430480957,76.999267578125,16383.5,65535.0
14955.997782215185,383.4957275390625,339.8683166503906,186.26707458496094,-427.9237060546875,-11.49703311920166,65.07526397705078,29.69331169128418,85.46307373046875,16383.5,65535.0
14955.998182223815,398.6925048828125,331.6983337402344,184.11825561523438,-412.9313049316406,-14.81054973602295,59.50999069213867,28.781198501586914,82.69859313964844,16383.5,65535.0
14955.998582232445,404.4333190917969,329.0983581542969,228.62969970703125,-403.3971252441406,-15.422220230102539,57.85228729248047,26.9780216217041,81.54964447021484,16383.5,65535.0
14955.998982241075,407.5203857421875,333.47747802734375,249.50454711914062,-411.00299072265625,-23.773387908935547,47.177398681640625,18.712018966674805,73.28752136230469,16383.5,65535.0
14955.999382249704,396.8070983886719,329.33734130859375,246.12899780273438,-423.081787109375,-26.44722557067871,40.5367546081543,18.48043441772461,70.52388763427734,16383.5,65535.0
14955.999782258334,401.4140625,323.5582275390625,227.90245056152344,-436.12664794921875,-16.6116943359375,53.75006866455078,28.777585983276367,80.28475952148438,16383.5,65535.0
14956.000182266964,402.29132080078125,330.1767578125,202.96490478515625,-413.50946044921875,-35.47849655151367,34.001338958740234,7.851770877838135,62.97365951538086,16383.5,65535.0
14956.000582275594,393.4337463378906,330.2318420410156,206.96005249023438,-418.41949462890625,-37.12070083618164,30.756563186645508,5.243507385253906,62.71566390991211,16383.5,65535.0
14956.000982284222,387.9123229980469,321.59222412109375,208.01791381835938,-430.3370361328125,-29.123458862304688,39.32470703125,12.272917747497559,69.75023651123047,16383.5,65535.0
14956.001382292852,385.5909729003906,322.0110168457031,179.6216583251953,-431.8991394042969,-37.16944122314453,28.605607986450195,4.628606796264648,60.57606887817383,16383.5,65535.0
14956.001782301482,386.76922607421875,321.6269226074219,196.09878540039062,-437.59942626953125,-44.69407653808594,20.514659881591797,-4.009390830993652,54.48051834106445,16383.5,65535.0
14956.002182310112,403.1924133300781,327.560302734375,210.9331512451172,-423.2583923339844,-34.878143310546875,30.399982452392578,9.698895454406738,64.98960876464844,16383.5,65535.0
14956.00258231874,408.7821960449219,321.2695617675781,206.42613220214844,-420.9791259765625,-27.082738876342773,38.71326446533203,16.13437843322754,68.1418228149414,16383.5,65535.0
14956.00298232737,400.6694641113281,325.0220947265625,202.54351806640625,-418.532958984375,-34.074127197265625,30.78443717956543,7.225959300994873,62.756690979003906,16383.5,65535.0
14956.003382336,408.891357421875,318.441650390625,190.88693237304688,-421.5163879394531,-34.87852096557617,31.939706802368164,8.853382110595703,60.63346481323242,16383.5,65535.0
14956.00378234463,414.4952697753906,323.9102478027344,208.659423828125,-407.8103332519531,-36.75996017456055,31.10904884338379,3.601264715194702,59.68743896484375,16383.5,65535.0
14956.00418235326,416.06817626953125,324.1853332519531,233.052001953125,-418.5234680175781,-29.319602966308594,39.05216979980469,12.011079788208008,67.23703002929688,16383.5,65535.0
14956.00458236189,432.9369201660156,320.4237365722656,242.891845703125,-415.8086853027344,-24.728408813476562,44.14487838745117,16.284069061279297,68.84567260742188,16383.5,65535.0
14956.00498237052,422.6824035644531,318.1183166503906,234.04063415527344,-407.2490234375,-22.858556747436523,48.21220397949219,18.17751693725586,72.78889465332031,16383.5,65535.0
14956.00538237915,419.3337097167969,324.36785888671875,223.79417419433594,-399.855712890625,-27.674373626708984,42.02833938598633,13.457440376281738,66.28658294677734,16383.5,65535.0
14956.005782387778,424.0465087890625,320.4316101074219,191.2115936279297,-395.8569030761719,-22.843097686767578,49.904823303222656,17.742372512817383,73.56700897216797,16383.5,65535.0
14956.006182396408,429.6878967285156,310.603759765625,193.30447387695312,-395.2068786621094,-19.185791015625,57.12898254394531,22.929906845092773,79.13200378417969,16383.5,65535.0
14956.006582405038,428.15435791015625,316.1509094238281,246.0322265625,-392.230712890625,-26.425739288330078,48.21119689941406,14.516876220703125,68.66551208496094,16383.5,65535.0
14956.006982413666,422.3659973144531,323.800048828125,246.92454528808594,-392.6020812988281,-22.024972915649414,53.57382583618164,21.54423713684082,74.48372650146484,16383.5,65535.0
14956.007382422296,412.6240234375,323.6197814941406,219.93167114257812,-388.0625915527344,-13.310840606689453,65.62335205078125,29.171281814575195,84.71226501464844,16383.5,65535.0
14956.007782430926,383.4161376953125,321.3631286621094,228.31289672851562,-364.4716491699219,-26.452646255493164,52.7243766784668,14.662056922912598,72.62670135498047,16383.5,65535.0
14956.008182439557,361.8495788574219,321.6319580078125,247.98475646972656,-359.30548095703125,-23.842529296875,55.586978912353516,18.544458389282227,71.59894561767578,16383.5,65535.0
14956.008582448187,340.275390625,319.7506408691406,251.64016723632812,-368.60552978515625,-23.81673240661621,57.93067932128906,18.914857864379883,71.70453643798828,16383.5,65535.0
14956.008982456815,307.9340515136719,328.4673767089844,237.81314086914062,-384.7004089355469,-12.262184143066406,69.51007080078125,29.512245178222656,84.10907745361328,16383.5,65535.0
14956.009382465445,287.3954162597656,325.2722473144531,258.45556640625,-399.161376953125,-10.891963005065918,73.88477325439453,32.73839569091797,84.56706237792969,16383.5,65535.0
14956.009782474075,284.76519775390625,320.08172607421875,262.4432373046875,-394.1932678222656,-19.414180755615234,66.50160217285156,26.09267807006836,78.85070037841797,16383.5,65535.0
14956.010182482703,282.0086669921875,314.08941650390625,242.53317260742188,-386.8704833984375,-18.6708984375,69.31126403808594,26.36488914489746,78.68608856201172,16383.5,65535.0
14956.010582491333,269.100341796875,317.7335205078125,217.54324340820312,-394.79095458984375,-17.396020889282227,69.41291046142578,23.638511657714844,75.96491241455078,16383.5,65535.0
14956.010982499964,265.501220703125,329.814697265625,183.82957458496094,-402.8858337402344,-22.633481979370117,65.27434539794922,19.30236053466797,74.07801055908203,16383.5,65535.0
14956.011382508594,254.28622436523438,332.4582824707031,169.1474609375,-415.21258544921875,-25.96756362915039,61.949344635009766,17.05030632019043,74.4416732788086,16383.5,65535.0
14956.011782517224,252.61016845703125,327.4046630859375,195.86770629882812,-424.5171203613281,-20.850919723510742,69.06892395019531,22.615854263305664,76.54015350341797,16383.5,65535.0
14956.012182525852,243.8572235107422,334.3177795410156,216.98150634765625,-413.488525390625,-16.471784591674805,71.92516326904297,26.538753509521484,80.1900405883789,16383.5,65535.0
14956.012582534482,239.5555419921875,325.4699401855469,238.45361328125,-413.58795166015625,-14.261735916137695,74.23555755615234,26.456195831298828,84.02816772460938,16383.5,65535.0
14956.012982543112,234.71559143066406,334.4504089355469,265.5830993652344,-415.6291809082031,-14.959466934204102,71.00968170166016,25.177175521850586,81.16600036621094,16383.5,65535.0
14956.01338255174,230.9778594970703,327.27728271484375,282.4200134277344,-420.17840576171875,-22.924747467041016,64.21170806884766,21.865400314331055,75.6719741821289,16383.5,65535.0
14956.01378256037,245.4270477294922,330.8123779296875,268.2034912109375,-412.9417419433594,-22.3877010345459,61.65643310546875,20.2640380859375,72.54869842529297,16383.5,65535.0
14956.014182569,274.0296325683594,334.2405700683594,261.18023681640625,-416.1949768066406,-16.504865646362305,67.45075988769531,23.115955352783203,78.25251770019531,16383.5,65535.0
14956.01458257763,290.0692443847656,331.50384521484375,271.3768310546875,-406.82562255859375,-11.979510307312012,74.05757141113281,29.516077041625977,85.87035369873047,16383.5,65535.0
14956.01498258626,286.84271240234375,336.3479309082031,275.3160095214844,-407.7390441894531,-4.473254203796387,81.55656433105469,36.17427444458008,91.85505676269531,16383.5,65535.0
14956.01538259489,288.1415710449219,332.2121276855469,281.581787109375,-413.68231201171875,-7.848309516906738,78.2559585571289,32.22083282470703,86.9691390991211,16383.5,65535.0
14956.01578260352,285.5682067871094,330.2515563964844,280.74273681640625,-417.056396484375,-11.864484786987305,73.38471984863281,31.24797821044922,87.58889770507812,16383.5,65535.0
14956.01618261215,284.9205627441406,328.7389831542969,279.84112548828125,-408.22064208984375,-15.339690208435059,69.61608123779297,27.656410217285156,84.79359436035156,16383.5,65535.0
14956.016582620778,293.1856384277344,325.6100769042969,272.8768005371094,-411.4327087402344,-11.766358375549316,69.3675765991211,30.301284790039062,87.68345642089844,16383.5,65535.0
14956.016982629408,302.27642822265625,322.6664123535156,227.22459411621094,-413.287353515625,-21.994535446166992,52.270938873291016,19.429353713989258,73.32691192626953,16383.5,65535.0
14956.017382638038,319.537353515625,319.0130310058594,216.3671112060547,-415.7064514160156,-32.08710479736328,42.920963287353516,10.661026000976562,66.0527114868164,16383.5,65535.0
14956.017782646668,350.7857360839844,324.2727355957031,224.59271240234375,-429.8002624511719,-20.373062133789062,54.474098205566406,20.704669952392578,75.22105407714844,16383.5,65535.0
14956.018182655298,374.16668701171875,325.62158203125,235.78721618652344,-429.25653076171875,-17.919538497924805,58.035865783691406,26.659175872802734,80.65289306640625,16383.5,65535.0
14956.018582663926,374.7148742675781,326.8822937011719,258.3045349121094,-406.3918762207031,-18.72170639038086,52.804988861083984,21.468469619750977,77.92884063720703,16383.5,65535.0
14956.018982672556,380.8129577636719,325.06463623046875,256.58172607421875,-406.763427734375,-13.838203430175781,59.06324768066406,30.504379272460938,81.92272186279297,16383.5,65535.0
14956.019382681186,384.2859191894531,318.8279724121094,240.7875213623047,-413.65283203125,-22.835796356201172,45.3519172668457,20.849712371826172,72.96873474121094,16383.5,65535.0
14956.019782689815,379.0461730957031,328.9814453125,212.92776489257812,-407.2771911621094,-22.948564529418945,44.135372161865234,16.465604782104492,71.44332122802734,16383.5,65535.0
14956.020182698445,371.9877014160156,330.2210693359375,199.88058471679688,-406.07177734375,-27.16094398498535,39.5345573425293,16.001222610473633,71.24419403076172,16383.5,65535.0
14956.020582707075,371.24334716796875,332.38275146484375,205.26707458496094,-414.0775451660156,-31.6170654296875,32.13597106933594,12.759228706359863,66.43697357177734,16383.5,65535.0
14956.020982715705,352.0635681152344,325.29058837890625,207.92860412597656,-414.8800964355469,-31.521080017089844,31.18671226501465,11.048930168151855,63.16667175292969,16383.5,65535.0
14956.021382724335,338.45037841796875,326.2020263671875,222.40521240234375,-411.17449951171875,-39.78446960449219,24.41253662109375,3.6102590560913086,58.454437255859375,16383.5,65535.0
14956.021782732963,348.7706604003906,325.95526123046875,250.57069396972656,-420.8163757324219,-39.98521041870117,21.63320541381836,0.06608884036540985,60.91508483886719,16383.5,65535.0
14956.022182741593,367.0787658691406,320.6072998046875,264.5436096191406,-424.45770263671875,-30.945100784301758,31.930377960205078,9.854582786560059,65.2934799194336,16383.5,65535.0
14956.022582750224,366.1666564941406,322.7976379394531,251.83074951171875,-427.8314208984375,-32.33557891845703,34.23906707763672,12.193768501281738,66.11524963378906,16383.5,65535.0
14956.022982758852,362.6352233886719,323.0790100097656,238.0442657470703,-426.3577575683594,-35.9002799987793,28.28139305114746,6.717356204986572,63.27250289916992,16383.5,65535.0
14956.023382767482,356.8585510253906,322.4487609863281,241.7826690673828,-407.4505615234375,-35.87465286254883,28.721254348754883,6.430036544799805,61.52742385864258,16383.5,65535.0
14956.023782776112,330.54522705078125,319.31011962890625,241.3159942626953,-399.99371337890625,-31.74721908569336,34.51570129394531,9.128944396972656,62.13945770263672,16383.5,65535.0
14956.024182784742,314.4543762207031,320.18438720703125,224.54385375976562,-406.88543701171875,-33.23638916015625,33.1263313293457,6.56794548034668,61.49045181274414,16383.5,65535.0
14956.02458279337,293.7973937988281,321.4908752441406,234.9322509765625,-397.0521240234375,-42.23230743408203,24.502893447875977,0.11469173431396484,55.052955627441406,16383.5,65535.0
14956.024982802,284.7537536621094,314.07525634765625,234.691650390625,-394.4736022949219,-33.99109649658203,34.212242126464844,8.811060905456543,65.05498504638672,16383.5,65535.0
14956.02538281063,273.6192932128906,325.7044982910156,236.79331970214844,-402.14459228515625,-26.131135940551758,43.005348205566406,18.58317756652832,70.51751708984375,16383.5,65535.0
14956.02578281926,267.9576110839844,325.7126770019531,241.14610290527344,-398.3666687011719,-31.82203483581543,36.64338302612305,12.205111503601074,64.53865814208984,16383.5,65535.0
14956.026182827889,270.6504211425781,324.0671691894531,238.00384521484375,-391.9873962402344,-29.33326530456543,40.89253234863281,11.21594524383545,67.73738861083984,16383.5,65535.0
14956.026582836519,264.9627380371094,323.6018371582031,206.06744384765625,-389.1512451171875,-22.41897964477539,48.0391960144043,20.386999130249023,73.46849822998047,16383.5,65535.0
14956.02698284515,256.7383117675781,329.0233459472656,188.58872985839844,-385.0486755371094,-21.88188934326172,49.55803298950195,17.332429885864258,74.4736328125,16383.5,65535.0
14956.02738285378,249.41439819335938,316.71588134765625,196.99159240722656,-387.0232849121094,-26.79401969909668,47.92253875732422,15.127205848693848,72.03172302246094,16383.5,65535.0
14956.027782862408,246.09405517578125,301.90966796875,203.79150390625,-383.5639953613281,-32.88251876831055,46.47579574584961,14.824869155883789,67.96452331542969,16383.5,65535.0
14956.028182871038,242.6141815185547,312.259033203125,216.0135498046875,-388.8212890625,-28.99611473083496,46.233028411865234,14.788418769836426,67.81399536132812,16383.5,65535.0
14956.028582879668,228.66275024414062,312.458984375,227.4932403564453,-380.0428466796875,-23.315885543823242,53.49654006958008,20.27985191345215,74.45028686523438,16383.5,65535.0
14956.028982888298,207.90882873535156,320.5672607421875,224.8942413330078,-374.8928527832031,-23.272808074951172,56.942726135253906,19.958133697509766,73.09199523925781,16383.5,65535.0
14956.029382896926,194.49725341796875,329.7712707519531,216.89012145996094,-371.0933532714844,-26.391887664794922,56.870445251464844,13.84341812133789,69.76782989501953,16383.5,65535.0
14956.029782905556,176.84100341796875,327.36566162109375,223.35850524902344,-364.0285339355469,-26.502544403076172,57.433109283447266,17.874948501586914,72.26582336425781,16383.5,65535.0
14956.030182914186,178.64913940429688,333.2935485839844,189.5724334716797,-366.4799499511719,-19.620637893676758,64.6347427368164,21.817846298217773,76.59719848632812,16383.5,65535.0
14956.030582922816,201.82269287109375,335.03515625,197.0782470703125,-363.49951171875,-18.66581916809082,68.09684753417969,25.097885131835938,79.37532043457031,16383.5,65535.0
14956.030982931445,222.4730224609375,329.43695068359375,218.13845825195312,-356.613525390625,-27.78249168395996,55.51179122924805,14.51305103302002,70.20597076416016,16383.5,65535.0
14956.031382940075,250.71702575683594,338.04656982421875,222.4463348388672,-361.1752624511719,-16.661510467529297,66.98544311523438,24.782041549682617,83.5261459350586,16383.5,65535.0
14956.031782948705,300.37310791015625,339.1195983886719,212.06851196289062,-374.4826354980469,-20.147254943847656,63.50505828857422,21.708799362182617,73.45685577392578,16383.5,65535.0
14956.032182957335,344.1603088378906,344.9136047363281,222.08609008789062,-380.88262939453125,-16.40152931213379,66.10140991210938,28.49224090576172,81.5153579711914,16383.5,65535.0
14956.032582965963,382.12432861328125,351.52215576171875,203.85780334472656,-382.8252258300781,-10.004310607910156,77.38740539550781,34.79671096801758,88.46765899658203,16383.5,65535.0
14956.032982974593,401.2188415527344,345.7799072265625,184.0348358154297,-389.6779479980469,-10.85825252532959,73.59825134277344,30.755023956298828,85.5916748046875,16383.5,65535.0
14956.033382983223,424.74591064453125,342.1988830566406,188.0803680419922,-401.5374450683594,-11.440455436706543,75.8815689086914,34.147071838378906,93.0277328491211,16383.5,65535.0
14956.033782991854,430.074951171875,338.791259765625,174.0540313720703,-412.2126159667969,-17.14990997314453,69.18323516845703,26.13845443725586,83.15618133544922,16383.5,65535.0
14956.034183000482,417.2196044921875,346.0781555175781,187.7201690673828,-419.4123840332031,-13.769547462463379,68.46138000488281,29.38668441772461,83.97654724121094,16383.5,65535.0
14956.034583009112,400.7299499511719,338.1886291503906,250.85174560546875,-427.2469177246094,-10.06786060333252,75.20545959472656,33.91839599609375,87.89356994628906,16383.5,65535.0
14956.034983017742,397.23883056640625,330.2121276855469,276.3265075683594,-430.7769470214844,-7.190338134765625,78.41492462158203,34.62416076660156,91.15145874023438,16383.5,65535.0
14956.035383026372,404.2799987792969,334.59356689453125,223.7642364501953,-416.62738037109375,-16.568552017211914,66.72908020019531,27.24456024169922,80.25300598144531,16383.5,65535.0
14956.035783035,419.81951904296875,339.3180236816406,159.42291259765625,-407.1098327636719,-20.22857093811035,60.857215881347656,24.50066566467285,79.511962890625,16383.5,65535.0
14956.03618304363,421.34808349609375,330.72601318359375,139.4373321533203,-409.7634582519531,-14.110921859741211,63.425235748291016,25.946063995361328,84.4910888671875,16383.5,65535.0
14956.03658305226,409.5048522949219,332.8665466308594,154.97608947753906,-420.3934326171875,-14.450390815734863,60.4615364074707,26.243947982788086,82.9559326171875,16383.5,65535.0
14956.03698306089,407.9366455078125,340.9158020019531,159.5347137451172,-424.69671630859375,-21.010679244995117,56.44456100463867,24.08057403564453,78.3074951171875,16383.5,65535.0
14956.037383069519,414.7046203613281,339.2410888671875,150.430419921875,-429.8183898925781,-31.5344181060791,44.71623992919922,12.410136222839355,67.67192077636719,16383.5,65535.0
14956.037783078149,407.9326477050781,338.6927185058594,140.2012939453125,-429.6969299316406,-18.651912689208984,51.78853225708008,19.458114624023438,75.20392608642578,16383.5,65535.0
14956.03818308678,398.3434143066406,344.5753173828125,176.21974182128906,-424.56903076171875,-20.04713249206543,51.31647491455078,22.042644500732422,78.18915557861328,16383.5,65535.0
14956.03858309541,377.1387023925781,337.4143371582031,220.4665069580078,-429.90118408203125,-28.044511795043945,43.34306716918945,15.289938926696777,70.93689727783203,16383.5,65535.0
14956.038983104037,348.04791259765625,337.17926025390625,228.69134521484375,-438.1031188964844,-30.945192337036133,40.08877944946289,11.60268783569336,67.58324432373047,16383.5,65535.0
14956.039383112668,335.58514404296875,347.7345275878906,230.98696899414062,-429.05535888671875,-32.732582092285156,36.06352233886719,9.74277400970459,64.17620086669922,16383.5,65535.0
14956.039783121298,321.77978515625,344.203369140625,236.94406127929688,-440.152099609375,-23.856548309326172,44.2290153503418,17.264690399169922,73.15201568603516,16383.5,65535.0
14956.040183129928,326.5163269042969,335.74481201171875,245.75059509277344,-439.1767883300781,-38.07121658325195,28.25754737854004,3.7407724857330322,57.56650924682617,16383.5,65535.0
14956.040583138556,328.7823486328125,334.2500915527344,233.22215270996094,-425.3748779296875,-32.157249450683594,31.260257720947266,6.910613536834717,64.7491455078125,16383.5,65535.0
14956.040983147186,300.70819091796875,325.3188781738281,215.0465087890625,-414.1195068359375,-34.493465423583984,33.46163558959961,8.709067344665527,66.81941986083984,16383.5,65535.0
14956.041383155816,284.67108154296875,327.8403625488281,189.59715270996094,-409.6658630371094,-33.73491287231445,29.94771385192871,5.9807634353637695,62.537513732910156,16383.5,65535.0
14956.041783164446,293.16107177734375,332.00750732421875,183.54345703125,-398.76751708984375,-39.25629425048828,23.15472412109375,2.243586301803589,57.173789978027344,16383.5,65535.0
14956.042183173075,301.360107421875,330.00732421875,200.10572814941406,-394.6319580078125,-34.41938400268555,29.7037410736084,7.609050273895264,64.6252212524414,16383.5,65535.0
14956.042583181705,310.86737060546875,336.1108703613281,212.05340576171875,-404.9095458984375,-30.944068908691406,34.85255813598633,13.30582046508789,68.32683563232422,16383.5,65535.0
14956.042983190335,330.5353698730469,344.0935363769531,245.14488220214844,-392.09393310546875,-34.877403259277344,30.483184814453125,7.324175834655762,61.884517669677734,16383.5,65535.0
14956.043383198965,325.973388671875,336.56298828125,259.2234191894531,-371.5067443847656,-28.282360076904297,40.90399932861328,16.318849563598633,67.79888916015625,16383.5,65535.0
14956.043783207593,343.49139404296875,331.9476013183594,254.7988739013672,-384.3019714355469,-29.58936882019043,40.16352081298828,13.442219734191895,67.53856658935547,16383.5,65535.0
14956.044183216223,369.4527893066406,328.8896179199219,261.4365234375,-376.696044921875,-30.174976348876953,37.06106185913086,12.3784818649292,67.07599639892578,16383.5,65535.0
14956.044583224853,382.1423034667969,329.9105529785156,254.8853759765625,-365.46826171875,-26.812570571899414,42.94104766845703,14.855025291442871,69.29841613769531,16383.5,65535.0
14956.044983233482,378.59588623046875,326.110595703125,233.6891632080078,-358.59228515625,-30.277467727661133,44.021541595458984,13.433477401733398,67.08598327636719,16383.5,65535.0
14956.045383242112,336.2958679199219,317.9673767089844,219.75704956054688,-363.9148864746094,-31.304258346557617,38.573787689208984,9.469618797302246,64.61312866210938,16383.5,65535.0
14956.045783250742,304.0577392578125,323.8779296875,202.07473754882812,-378.5953063964844,-29.668439865112305,42.67487335205078,10.07612419128418,66.79169464111328,16383.5,65535.0
14956.046183259372,286.2618713378906,332.1180114746094,208.1742706298828,-372.6527099609375,-16.44541358947754,57.29508972167969,24.272239685058594,80.92919921875,16383.5,65535.0
14956.046583268002,265.636962890625,328.4384765625,207.56239318847656,-353.71868896484375,-18.99075698852539,59.320274353027344,25.239337921142578,78.4822769165039,16383.5,65535.0
14956.04698327663,248.36036682128906,326.2030334472656,212.29400634765625,-350.5216369628906,-23.275529861450195,55.154457092285156,20.56361961364746,73.28508758544922,16383.5,65535.0
14956.04738328526,230.0797119140625,328.1788635253906,210.58526611328125,-358.3829345703125,-24.42494773864746,49.95881271362305,16.9330997467041,71.66575622558594,16383.5,65535.0
14956.04778329389,196.57305908203125,315.22332763671875,213.2396240234375,-351.0764465332031,-14.278850555419922,64.95377349853516,27.12705421447754,82.70780181884766,16383.5,65535.0
14956.048183302519,174.69944763183594,317.1036376953125,220.3445281982422,-364.9205627441406,-23.233524322509766,57.00092697143555,20.36530876159668,74.99093627929688,16383.5,65535.0
14956.048583311149,165.49464416503906,312.2027893066406,221.6170196533203,-385.4485778808594,-18.128318786621094,61.91132736206055,26.0899600982666,80.21229553222656,16383.5,65535.0
14956.048983319779,152.2193603515625,317.9505310058594,207.98023986816406,-401.45819091796875,-25.90839195251465,55.744136810302734,15.212244033813477,70.66294860839844,16383.5,65535.0
14956.049383328409,144.1330108642578,319.382080078125,195.54103088378906,-440.8663635253906,-30.358543395996094,51.267330169677734,11.742993354797363,68.25910949707031,16383.5,65535.0
14956.04978333704,148.76736450195312,317.7626037597656,214.3527374267578,-463.45928955078125,-30.539581298828125,46.99549102783203,9.472641944885254,65.13477325439453,16383.5,65535.0
14956.050183345667,152.4976348876953,324.2231140136719,243.515625,-450.16595458984375,-24.552148818969727,57.0397834777832,17.45138168334961,72.07271575927734,16383.5,65535.0
14956.050583354297,152.8754425048828,324.88153076171875,252.43084716796875,-421.77801513671875,-30.35603904724121,51.75255584716797,11.646683692932129,65.23416900634766,16383.5,65535.0
14956.050983362928,172.1204071044922,329.01580810546875,238.44635009765625,-398.4011535644531,-23.353870391845703,59.93830871582031,17.86620330810547,74.57306671142578,16383.5,65535.0
14956.051383371556,185.834716796875,330.2611389160156,226.30775451660156,-382.3057556152344,-14.539658546447754,74.67877197265625,31.175111770629883,83.46646881103516,16383.5,65535.0
14956.051783380186,201.6361083984375,327.5386657714844,233.02516174316406,-383.3758850097656,-11.838581085205078,74.5202407836914,29.03453826904297,82.46578216552734,16383.5,65535.0
14956.052183388816,214.3495330810547,330.9505615234375,221.63916015625,-376.6094970703125,-19.299083709716797,66.92731475830078,20.614116668701172,77.48396301269531,16383.5,65535.0
14956.052583397446,223.22610473632812,325.4596252441406,206.55728149414062,-365.2645263671875,-19.66097068786621,63.79682159423828,21.97909927368164,75.86807250976562,16383.5,65535.0
14956.052983406076,257.0697326660156,324.4098205566406,213.7345428466797,-381.695556640625,-16.64638328552246,67.37049102783203,23.445039749145508,79.71363067626953,16383.5,65535.0
14956.053383414705,267.3094177246094,339.38604736328125,240.10691833496094,-391.0024719238281,-14.546906471252441,71.01260375976562,27.52756690979004,82.37911987304688,16383.5,65535.0
14956.053783423335,268.8896789550781,332.25897216796875,285.249267578125,-399.67755126953125,-19.222244262695312,63.965633392333984,22.008018493652344,77.88363647460938,16383.5,65535.0
14956.054183431965,271.42352294921875,322.1400146484375,290.8207092285156,-406.6302795410156,-20.305131912231445,61.61469650268555,19.348974227905273,76.70435333251953,16383.5,65535.0
14956.054583440593,292.5415954589844,330.99749755859375,220.83837890625,-382.9892272949219,-21.03342056274414,63.51551055908203,23.569379806518555,76.35223388671875,16383.5,65535.0
14956.054983449223,309.5716857910156,325.1240539550781,175.06341552734375,-359.9822998046875,-19.03120231628418,62.97990417480469,23.094223022460938,80.74542236328125,16383.5,65535.0
14956.055383457853,326.4332275390625,323.0631103515625,199.73423767089844,-365.2019958496094,-15.495670318603516,67.05402374267578,27.513158798217773,80.8792724609375,16383.5,65535.0
14956.055783466483,333.33612060546875,339.0541687011719,238.45889282226562,-362.9864807128906,-11.968496322631836,70.11556243896484,31.02874183654785,82.66045379638672,16383.5,65535.0
14956.056183475113,307.014404296875,336.357177734375,229.65028381347656,-353.9642333984375,-17.789743423461914,62.36759567260742,22.749866485595703,78.07818603515625,16383.5,65535.0
14956.056583483742,292.5870361328125,331.2905578613281,229.69700622558594,-356.95281982421875,-16.617525100708008,59.52516174316406,22.831710815429688,77.91946411132812,16383.5,65535.0
14956.056983492372,304.50762939453125,333.7974548339844,274.61663818359375,-374.70831298828125,-19.964033126831055,55.692386627197266,23.63623809814453,78.48680877685547,16383.5,65535.0
14956.057383501002,337.4737243652344,336.5841979980469,249.3265838623047,-379.5181579589844,-22.58161163330078,51.96364212036133,18.46366310119629,75.97138214111328,16383.5,65535.0
14956.05778350963,362.79473876953125,338.99969482421875,213.38819885253906,-388.0830383300781,-15.887417793273926,59.262359619140625,27.593650817871094,82.04678344726562,16383.5,65535.0
14956.05818351826,361.6465759277344,333.6244812011719,242.563720703125,-384.776611328125,-18.439905166625977,55.92203140258789,25.819881439208984,80.67326354980469,16383.5,65535.0
14956.05858352689,350.4580078125,339.8310241699219,267.44549560546875,-400.61199951171875,-23.51432228088379,46.786468505859375,17.164047241210938,72.81118774414062,16383.5,65535.0
14956.05898353552,353.44610595703125,342.8247375488281,272.6480712890625,-398.6526184082031,-19.608325958251953,50.54159927368164,22.93892478942871,80.82093811035156,16383.5,65535.0
14956.05938354415,362.8710632324219,335.8423156738281,292.3372497558594,-405.6678771972656,-13.532045364379883,57.56813430786133,28.455537796020508,80.94027709960938,16383.5,65535.0
14956.059783552779,360.221435546875,345.45245361328125,297.261474609375,-423.2115173339844,-20.014217376708984,51.424896240234375,23.87582015991211,77.5946044921875,16383.5,65535.0
14956.060183561409,379.9058837890625,336.97833251953125,331.59771728515625,-441.6583557128906,-30.979162216186523,35.39191436767578,10.472018241882324,65.87672424316406,16383.5,65535.0
14956.060583570039,395.5888366699219,332.9573059082031,337.32855224609375,-439.22222900390625,-37.54336166381836,27.763843536376953,2.4589197635650635,57.281585693359375,16383.5,65535.0
14956.060983578667,395.4798583984375,334.2785949707031,323.0815124511719,-437.49334716796875,-31.488147735595703,34.14488983154297,11.337815284729004,65.13561248779297,16383.5,65535.0
14956.061383587297,396.0921325683594,331.2320861816406,351.1445617675781,-427.56719970703125,-34.7850227355957,32.451107025146484,8.528008460998535,63.00392532348633,16383.5,65535.0
14956.061783595927,394.69305419921875,336.912109375,358.1080627441406,-422.83624267578125,-35.40108108520508,31.138723373413086,10.183603286743164,61.07725524902344,16383.5,65535.0
14956.062183604558,383.15216064453125,345.3386535644531,329.081298828125,-435.8136291503906,-33.80189895629883,31.827350616455078,7.815456390380859,62.94777297973633,16383.5,65535.0
14956.062583613188,381.95953369140625,346.43011474609375,332.8929748535156,-446.96240234375,-26.93584442138672,38.597530364990234,11.174885749816895,67.71390533447266,16383.5,65535.0
14956.062983621816,377.975341796875,344.22650146484375,330.30145263671875,-448.578857421875,-26.68950843811035,41.99323654174805,16.6151180267334,70.63764190673828,16383.5,65535.0
14956.063383630446,380.96502685546875,334.4311828613281,339.7650146484375,-446.10894775390625,-34.07259750366211,34.03904342651367,5.553918361663818,59.50966262817383,16383.5,65535.0
14956.063783639076,382.1261901855469,339.71502685546875,334.1598205566406,-428.5595703125,-31.215246200561523,37.492916107177734,10.902704238891602,66.49765014648438,16383.5,65535.0
14956.064183647704,398.465087890625,340.1689147949219,298.01513671875,-405.14166259765625,-32.5323371887207,35.67453384399414,9.169900894165039,63.143890380859375,16383.5,65535.0
14956.064583656334,422.1104736328125,334.70086669921875,259.267578125,-412.4373474121094,-32.67054748535156,38.77265548706055,7.899683952331543,65.95340728759766,16383.5,65535.0
14956.064983664965,415.510009765625,329.8973693847656,256.2187194824219,-432.1128234863281,-32.08405685424805,39.06133270263672,11.28107738494873,67.04351043701172,16383.5,65535.0
14956.065383673595,407.6500244140625,334.8145751953125,273.5118713378906,-419.4647521972656,-31.970428466796875,38.89459991455078,11.940638542175293,65.42343139648438,16383.5,65535.0
14956.065783682223,391.61749267578125,336.0062255859375,272.4292907714844,-403.98101806640625,-26.846771240234375,47.3452033996582,15.858416557312012,70.25920104980469,16383.5,65535.0
14956.066183690853,369.71319580078125,333.6906433105469,254.6501007080078,-407.845703125,-18.426694869995117,55.18242263793945,24.313257217407227,75.12445831298828,16383.5,65535.0
14956.066583699483,358.1695251464844,333.9140319824219,261.52752685546875,-432.60186767578125,-18.305830001831055,58.7988395690918,24.997617721557617,77.220703125,16383.5,65535.0
14956.066983708113,341.4422912597656,330.6267395019531,255.66102600097656,-440.35882568359375,-27.612642288208008,47.3857307434082,14.54160213470459,68.89678955078125,16383.5,65535.0
14956.067383716741,314.6278991699219,328.58319091796875,227.11428833007812,-418.0696716308594,-13.954191207885742,64.02040100097656,27.480796813964844,82.16912078857422,16383.5,65535.0
14956.067783725372,289.9893493652344,322.4477844238281,221.99526977539062,-415.31494140625,-18.729835510253906,60.85344696044922,23.357421875,74.29422760009766,16383.5,65535.0
14956.068183734002,270.5179748535156,327.3742370605469,223.93067932128906,-408.63311767578125,-27.21583366394043,52.880126953125,17.064908981323242,69.16166687011719,16383.5,65535.0
14956.068583742632,246.35501098632812,322.8360290527344,206.99159240722656,-389.87750244140625,-19.94382667541504,62.78716278076172,24.473676681518555,78.5220947265625,16383.5,65535.0
14956.06898375126,232.966552734375,323.4605407714844,198.89596557617188,-374.560791015625,-19.401981353759766,64.90180206298828,23.55061912536621,76.99205780029297,16383.5,65535.0
14956.06938375989,211.6390380859375,323.71697998046875,200.4392547607422,-372.5072326660156,-16.01658821105957,72.22201538085938,28.135313034057617,82.76360321044922,16383.5,65535.0
14956.06978376852,208.79006958007812,329.87225341796875,203.0256805419922,-377.54949951171875,-24.071861267089844,62.140445709228516,18.971046447753906,74.2102279663086,16383.5,65535.0
14956.07018377715,197.9938201904297,333.2054443359375,210.56773376464844,-381.0491943359375,-14.061335563659668,73.9590072631836,30.973451614379883,86.71585083007812,16383.5,65535.0
14956.070583785779,210.24354553222656,333.5412292480469,184.6870880126953,-388.0757141113281,-17.402454376220703,71.7950210571289,27.724639892578125,80.5167465209961,16383.5,65535.0
14956.070983794409,207.32655334472656,330.9963073730469,168.98097229003906,-391.1920471191406,-22.993270874023438,64.36821746826172,17.400100708007812,71.18347930908203,16383.5,65535.0
14956.071383803039,199.75599670410156,336.4300231933594,172.27239990234375,-383.4624938964844,-16.418031692504883,69.4577407836914,22.94101905822754,78.3724594116211,16383.5,65535.0
14956.071783811669,187.62034606933594,338.1331787109375,181.28225708007812,-394.2474060058594,-11.096853256225586,76.36002349853516,30.384017944335938,81.84085083007812,16383.5,65535.0
14956.072183820297,160.0703887939453,331.5878601074219,195.89022827148438,-394.2239685058594,-12.229316711425781,72.43083953857422,26.907028198242188,83.64867401123047,16383.5,65535.0
14956.072583828927,147.47218322753906,344.0591735839844,209.10206604003906,-383.67205810546875,-23.03832244873047,64.43791198730469,17.544696807861328,74.03866577148438,16383.5,65535.0
14956.072983837557,131.52182006835938,340.13299560546875,203.42507934570312,-389.12158203125,-24.874032974243164,63.85791015625,18.774608612060547,70.21319580078125,16383.5,65535.0
14956.073383846187,121.2942123413086,340.6374816894531,196.58262634277344,-396.8528137207031,-24.935962677001953,56.78947830200195,17.480920791625977,69.15225982666016,16383.5,65535.0
14956.073783854816,124.00155639648438,339.44244384765625,193.407470703125,-396.3641662597656,-12.291518211364746,75.2125244140625,30.4260196685791,85.93655395507812,16383.5,65535.0
14956.074183863446,107.25144958496094,347.7868347167969,211.64187622070312,-397.2602233886719,-15.983390808105469,68.5291519165039,25.771087646484375,80.99560546875,16383.5,65535.0
14956.074583872076,103.3652114868164,350.6693420410156,220.44561767578125,-406.96044921875,-20.801029205322266,64.78579711914062,20.89525032043457,74.3899154663086,16383.5,65535.0
14956.074983880706,79.37290954589844,346.0259094238281,226.5858612060547,-412.6923522949219,-25.51833152770996,55.52790069580078,15.588151931762695,71.0797119140625,16383.5,65535.0
14956.075383889334,74.12098693847656,348.59613037109375,224.56814575195312,-410.0769958496094,-22.442964553833008,57.05929183959961,20.538551330566406,74.74251556396484,16383.5,65535.0
14956.075783897964,98.13648986816406,355.7467346191406,214.74803161621094,-395.793212890625,-31.875051498413086,48.00246047973633,10.25933837890625,65.34257507324219,16383.5,65535.0
14956.076183906594,131.93568420410156,347.86285400390625,211.76153564453125,-402.8629150390625,-22.877344131469727,53.281394958496094,16.149242401123047,70.00381469726562,16383.5,65535.0
14956.076583915225,147.752685546875,355.8545837402344,227.11721801757812,-415.10406494140625,-26.76528549194336,50.821189880371094,16.68580436706543,69.68820190429688,16383.5,65535.0
14956.076983923853,168.30506896972656,361.39739990234375,234.18235778808594,-411.98883056640625,-28.609384536743164,47.749664306640625,15.538457870483398,70.8466567993164,16383.5,65535.0
14956.077383932483,195.31922912597656,355.7619323730469,227.7115020751953,-407.48907470703125,-23.402090072631836,54.34091567993164,18.014537811279297,73.04061889648438,16383.5,65535.0
14956.077783941113,209.2512969970703,353.1849060058594,218.9475860595703,-405.81451416015625,-29.251659393310547,49.13599395751953,13.704824447631836,70.07041931152344,16383.5,65535.0
14956.078183949743,229.2724609375,351.1560363769531,221.17123413085938,-407.2400207519531,-25.503931045532227,47.277252197265625,16.45688819885254,74.18221282958984,16383.5,65535.0
14956.078583958371,250.7281036376953,347.51409912109375,279.9727783203125,-403.6475830078125,-35.20765686035156,34.890995025634766,5.30197286605835,62.71173858642578,16383.5,65535.0
14956.078983967001,269.7575378417969,348.5021667480469,325.87091064453125,-396.7223815917969,-38.10167694091797,31.877639770507812,4.019411087036133,61.87385559082031,16383.5,65535.0
14956.079383975632,289.4682312011719,353.3957214355469,335.134521484375,-413.10821533203125,-32.63602066040039,39.02552795410156,10.455168724060059,63.49566650390625,16383.5,65535.0
14956.079783984262,287.4038391113281,357.3114013671875,328.1364440917969,-408.488037109375,-33.27552032470703,32.5772819519043,9.33513069152832,61.734764099121094,16383.5,65535.0
14956.08018399289,290.4144592285156,352.60406494140625,336.1319885253906,-408.7662658691406,-38.61380386352539,30.941938400268555,6.5811991691589355,60.684757232666016,16383.5,65535.0
14956.08058400152,283.085693359375,342.8396911621094,332.025146484375,-410.3822937011719,-30.61844825744629,36.09048843383789,9.712204933166504,64.78373718261719,16383.5,65535.0
14956.08098401015,288.7308654785156,352.21551513671875,301.7532653808594,-411.2072448730469,-36.164451599121094,30.873212814331055,2.854909658432007,58.06517028808594,16383.5,65535.0
14956.08138401878,292.3923034667969,350.14617919921875,278.4376220703125,-417.6448059082031,-40.986045837402344,27.353282928466797,1.2465488910675049,54.333892822265625,16383.5,65535.0
14956.081784027409,292.0425720214844,342.37353515625,286.9595947265625,-410.56719970703125,-48.04069137573242,17.235122680664062,-3.711949348449707,51.71553421020508,16383.5,65535.0
14956.082184036039,292.8763122558594,353.28192138671875,268.9039611816406,-407.5697021484375,-31.55219841003418,34.49011993408203,10.003260612487793,63.97761154174805,16383.5,65535.0
14956.082584044669,309.6468200683594,351.1209411621094,252.81951904296875,-402.4169006347656,-41.182640075683594,27.52523422241211,1.956944465637207,56.76132583618164,16383.5,65535.0
14956.082984053299,327.68304443359375,337.7823486328125,246.68064880371094,-399.447998046875,-39.27629852294922,26.92413330078125,2.902195930480957,60.26704025268555,16383.5,65535.0
14956.083384061927,339.9986267089844,334.7242736816406,262.27545166015625,-397.39105224609375,-38.905338287353516,26.618759155273438,2.2242794036865234,58.076900482177734,16383.5,65535.0
14956.083784070557,352.21502685546875,338.01361083984375,279.6708679199219,-393.97357177734375,-33.513099670410156,35.513404846191406,8.64985179901123,63.992942810058594,16383.5,65535.0
14956.084184079187,351.9025573730469,337.2383728027344,281.5185546875,-393.3695983886719,-21.600446701049805,47.940589904785156,22.046789169311523,75.51303100585938,16383.5,65535.0
14956.084584087817,361.4913024902344,345.72161865234375,285.0547180175781,-394.02374267578125,-24.110559463500977,45.40592575073242,17.95334815979004,73.26429748535156,16383.5,65535.0
14956.084984096446,365.7724304199219,338.13763427734375,225.4857177734375,-392.5765686035156,-23.922468185424805,49.641380310058594,18.56695556640625,73.54390716552734,16383.5,65535.0
14956.085384105076,353.24664306640625,329.59210205078125,142.53665161132812,-396.179443359375,-29.125030517578125,45.245574951171875,12.270853042602539,69.63075256347656,16383.5,65535.0
14956.085784113706,345.1654357910156,340.0216979980469,137.78134155273438,-399.38140869140625,-35.57107925415039,36.14561080932617,7.903167724609375,63.84352493286133,16383.5,65535.0
14956.086184122336,339.25030517578125,340.7479553222656,162.4783935546875,-401.8089294433594,-28.584476470947266,41.01035690307617,14.507303237915039,68.63923645019531,16383.5,65535.0
14956.086584130964,336.5192565917969,340.6572570800781,191.0238494873047,-400.8663330078125,-28.489110946655273,45.60060119628906,14.038420677185059,68.69503784179688,16383.5,65535.0
14956.086984139594,321.0684509277344,337.5451965332031,198.97518920898438,-390.75042724609375,-28.867080688476562,51.62666320800781,16.015060424804688,67.49763488769531,16383.5,65535.0
14956.087384148224,312.8932800292969,337.70062255859375,207.55267333984375,-376.212646484375,-25.68936538696289,53.57894515991211,16.37973403930664,70.31840515136719,16383.5,65535.0
14956.087784156854,317.9237976074219,336.86676025390625,233.85211181640625,-373.5572509765625,-21.43044090270996,59.228031158447266,21.618183135986328,74.11653900146484,16383.5,65535.0
14956.088184165483,313.91192626953125,338.2921142578125,267.3829345703125,-385.9215087890625,-30.033666610717773,48.828636169433594,12.705509185791016,66.2038345336914,16383.5,65535.0
14956.088584174113,313.7884826660156,340.59222412109375,260.8905944824219,-404.9720153808594,-24.159521102905273,55.532344818115234,19.525592803955078,74.7236328125,16383.5,65535.0
14956.088984182743,304.52227783203125,344.58392333984375,263.1387023925781,-408.25238037109375,-11.759001731872559,71.85816955566406,31.585887908935547,83.51626586914062,16383.5,65535.0
14956.089384191371,306.2103576660156,342.13494873046875,271.47509765625,-412.8137512207031,-11.622034072875977,76.09408569335938,33.342445373535156,87.19534301757812,16383.5,65535.0
14956.089784200001,302.5575256347656,345.5685119628906,284.921142578125,-403.6661071777344,-18.641124725341797,64.18992614746094,23.2287540435791,76.81321716308594,16383.5,65535.0
14956.090184208631,301.7057189941406,347.5539855957031,306.5465087890625,-397.95953369140625,-14.938446998596191,72.16690063476562,28.74835777282715,82.85822296142578,16383.5,65535.0
14956.090584217261,294.6876220703125,343.6432189941406,324.4638671875,-408.0653381347656,-5.928360462188721,85.1927719116211,35.16279602050781,88.8757095336914,16383.5,65535.0
14956.090984225892,285.3047180175781,346.4453430175781,343.18182373046875,-416.9779357910156,-21.161121368408203,67.9966812133789,22.873502731323242,77.00167846679688,16383.5,65535.0
14956.09138423452,290.5704345703125,346.9110107421875,349.6956481933594,-413.6215515136719,-11.596688270568848,74.43576049804688,31.032236099243164,87.36503601074219,16383.5,65535.0
14956.09178424315,310.965087890625,353.3609313964844,340.7191162109375,-416.7256774902344,-6.388767242431641,84.43193054199219,36.73211669921875,93.90755462646484,16383.5,65535.0
14956.09218425178,300.7840270996094,351.55499267578125,303.0540466308594,-416.6446838378906,-9.626724243164062,82.98250579833984,34.15038299560547,89.66102600097656,16383.5,65535.0
14956.092584260408,294.42529296875,354.749267578125,278.5166931152344,-408.57415771484375,-10.882755279541016,74.09720611572266,29.375137329101562,85.32488250732422,16383.5,65535.0
14956.092984269038,297.3399963378906,362.63104248046875,300.308349609375,-398.4729309082031,-6.855487823486328,81.48081970214844,34.24672317504883,88.7381820678711,16383.5,65535.0
14956.093384277669,294.4576110839844,359.32330322265625,330.78826904296875,-389.8567199707031,-3.145256280899048,84.83403778076172,38.45161819458008,90.8614501953125,16383.5,65535.0
14956.093784286299,297.37335205078125,352.3702392578125,345.2134704589844,-397.5589904785156,-10.874358177185059,73.49513244628906,27.692827224731445,84.71665954589844,16383.5,65535.0
14956.094184294929,297.559326171875,350.1420593261719,364.795166015625,-395.71856689453125,-8.228678703308105,80.22843170166016,36.28242874145508,91.54660034179688,16383.5,65535.0
14956.094584303557,312.8392333984375,361.5711975097656,358.62420654296875,-387.0892333984375,-8.39937973022461,79.60701751708984,36.250484466552734,91.83641815185547,16383.5,65535.0
14956.094984312187,336.6480712890625,370.08917236328125,361.7142333984375,-390.0606384277344,-6.125371932983398,78.1097412109375,34.41263198852539,91.34469604492188,16383.5,65535.0
14956.095384320817,352.86151123046875,369.604736328125,366.68548583984375,-385.6849060058594,-4.403713703155518,81.41791534423828,38.10295104980469,92.12953186035156,16383.5,65535.0
14956.095784329445,382.3210754394531,361.6872253417969,358.381103515625,-392.0528564453125,-3.5040383338928223,82.27674865722656,38.985782623291016,91.1419906616211,16383.5,65535.0
14956.096184338076,414.318115234375,359.490966796875,346.1087646484375,-411.13446044921875,-13.435175895690918,69.48933410644531,30.415834426879883,83.70914459228516,16383.5,65535.0
14956.096584346706,441.119873046875,363.92596435546875,338.1952819824219,-418.94970703125,-14.642647743225098,65.40338134765625,27.852413177490234,80.56793975830078,16383.5,65535.0
14956.096984355336,442.91265869140625,368.5346374511719,304.2662658691406,-419.2515869140625,-12.144502639770508,67.2884750366211,31.098628997802734,83.95625305175781,16383.5,65535.0
14956.097384363966,425.9569091796875,373.58099365234375,263.76153564453125,-425.51678466796875,-18.354625701904297,57.73847198486328,25.632694244384766,79.44457244873047,16383.5,65535.0
14956.097784372594,429.1183166503906,376.248046875,283.20263671875,-421.3680419921875,-18.390308380126953,56.99788284301758,24.685583114624023,80.83338928222656,16383.5,65535.0
14956.098184381224,428.8543395996094,377.804931640625,309.9674377441406,-422.7972106933594,-22.081008911132812,53.876373291015625,21.358707427978516,77.04808807373047,16383.5,65535.0
14956.098584389854,444.5746154785156,375.7388000488281,305.9812927246094,-406.72723388671875,-21.659433364868164,50.33180618286133,22.86839485168457,76.18629455566406,16383.5,65535.0
14956.098984398483,452.8604736328125,374.1396484375,325.28302001953125,-398.5592956542969,-20.783432006835938,51.22105407714844,21.289901733398438,75.04312133789062,16383.5,65535.0
14956.099384407113,452.59130859375,373.47283935546875,298.79931640625,-400.2200012207031,-29.209623336791992,41.970054626464844,12.0982027053833,67.05145263671875,16383.5,65535.0
14956.099784415743,442.9927673339844,373.7011413574219,255.4587860107422,-416.66876220703125,-31.467239379882812,39.229759216308594,11.988608360290527,65.4023666381836,16383.5,65535.0
14956.100184424373,438.88250732421875,369.2569885253906,249.53021240234375,-413.31298828125,-30.265361785888672,37.94837951660156,15.883480072021484,68.27045440673828,16383.5,65535.0
14956.100584433003,409.0163269042969,371.9799499511719,227.87725830078125,-408.0381774902344,-31.052478790283203,35.128726959228516,12.367935180664062,70.94598388671875,16383.5,65535.0
14956.100984441631,393.8292541503906,360.7742004394531,190.5386199951172,-411.9366455078125,-33.11223220825195,33.48857498168945,14.380558967590332,67.0737075805664,16383.5,65535.0
14956.101384450261,374.8789978027344,368.9171142578125,176.468505859375,-406.91534423828125,-32.54717254638672,31.658695220947266,9.959395408630371,61.104007720947266,16383.5,65535.0
14956.101784458891,340.0744323730469,366.1484680175781,180.45907592773438,-405.734130859375,-38.050655364990234,24.655738830566406,5.528736591339111,60.941078186035156,16383.5,65535.0
14956.10218446752,323.8221130371094,355.849365234375,184.07354736328125,-410.087158203125,-40.64341354370117,25.460102081298828,4.452367782592773,58.05859375,16383.5,65535.0
14956.10258447615,288.2679138183594,357.9650573730469,184.75848388671875,-402.639404296875,-34.3341178894043,33.18888473510742,11.653216361999512,64.33353424072266,16383.5,65535.0
14956.10298448478,260.47900390625,361.1360778808594,173.9925537109375,-404.4441223144531,-24.51593017578125,42.153602600097656,18.640644073486328,71.7502212524414,16383.5,65535.0
14956.10338449341,215.47105407714844,354.9825134277344,159.2508087158203,-399.6332092285156,-29.941482543945312,31.99814224243164,11.027079582214355,64.03544616699219,16383.5,65535.0
14956.10378450204,207.5590057373047,362.7204284667969,154.13650512695312,-392.26031494140625,-28.568937301635742,40.42378234863281,14.93052864074707,66.93929290771484,16383.5,65535.0
14956.104184510668,228.7067413330078,368.0819091796875,149.58038330078125,-387.0706481933594,-33.98661804199219,33.6225471496582,8.05388069152832,63.50545883178711,16383.5,65535.0
14956.104584519298,227.6184844970703,364.76043701171875,145.8174285888672,-389.1292724609375,-34.517215728759766,32.442169189453125,5.519692420959473,62.80720520019531,16383.5,65535.0
14956.104984527929,227.72433471679688,365.51190185546875,127.57935333251953,-387.94281005859375,-35.04378890991211,33.82424545288086,7.270597457885742,61.76955795288086,16383.5,65535.0
14956.105384536557,240.4232635498047,365.9767150878906,131.84219360351562,-395.835693359375,-30.128223419189453,40.9105110168457,13.99455738067627,66.18122100830078,16383.5,65535.0
14956.105784545187,237.06671142578125,362.8381042480469,126.80476379394531,-401.1639709472656,-28.106891632080078,44.45386505126953,16.53072166442871,71.6882095336914,16383.5,65535.0
14956.106184553817,229.703369140625,372.837890625,127.21942901611328,-399.4306640625,-31.150165557861328,41.798553466796875,10.875309944152832,66.10658264160156,16383.5,65535.0
14956.106584562447,233.94564819335938,369.8043518066406,131.31390380859375,-411.6035461425781,-33.21536636352539,35.281471252441406,6.795527935028076,60.39585494995117,16383.5,65535.0
14956.106984571077,234.06019592285156,371.92413330078125,168.94911193847656,-420.25537109375,-19.499935150146484,56.61550521850586,24.46576690673828,77.24607849121094,16383.5,65535.0
14956.107384579705,220.83956909179688,368.0465087890625,216.0882568359375,-415.0497741699219,-25.873172760009766,52.4298210144043,16.149314880371094,71.12201690673828,16383.5,65535.0
14956.107784588336,228.00570678710938,370.3384094238281,225.96554565429688,-385.36297607421875,-33.030948638916016,40.74750900268555,6.493906021118164,65.19915008544922,16383.5,65535.0
14956.108184596966,237.98904418945312,368.0902099609375,224.59446716308594,-379.05267333984375,-16.295839309692383,59.477691650390625,22.717844009399414,75.90935516357422,16383.5,65535.0
14956.108584605594,231.79051208496094,369.295654296875,229.83509826660156,-390.7147216796875,-2.685558557510376,77.90693664550781,38.019840240478516,90.84732818603516,16383.5,65535.0
14956.108984614224,228.79476928710938,371.5771484375,248.5727081298828,-385.2832946777344,-11.340972900390625,73.72421264648438,32.18579864501953,84.62495422363281,16383.5,65535.0
14956.109384622854,239.48623657226562,368.9603576660156,265.3052062988281,-374.33819580078125,-16.154294967651367,69.32416534423828,27.698301315307617,82.87664794921875,16383.5,65535.0
14956.109784631484,249.0355224609375,373.95599365234375,267.8328552246094,-390.2355041503906,-18.965299606323242,63.95805358886719,23.961225509643555,76.14669799804688,16383.5,65535.0
14956.110184640112,265.3727111816406,374.050048828125,271.819580078125,-396.5090637207031,-20.083560943603516,65.11974334716797,22.584735870361328,75.75325012207031,16383.5,65535.0
14956.110584648743,272.6559753417969,376.41400146484375,303.10992431640625,-404.56292724609375,-22.840557098388672,62.02436828613281,21.86008644104004,75.63021850585938,16383.5,65535.0
14956.110984657373,276.1063232421875,379.6634216308594,314.6963806152344,-392.3031311035156,-18.719764709472656,64.84190368652344,22.040563583374023,77.13963317871094,16383.5,65535.0
14956.111384666003,269.2748718261719,371.6655578613281,313.8182373046875,-389.85382080078125,-18.531389236450195,68.39318084716797,20.870872497558594,77.10900115966797,16383.5,65535.0
14956.111784674631,266.9069519042969,375.0528869628906,311.9183654785156,-392.19708251953125,-23.984573364257812,61.06147766113281,20.434284210205078,73.7171401977539,16383.5,65535.0
14956.112184683261,249.77239990234375,380.35693359375,291.6082763671875,-386.80450439453125,-26.250328063964844,60.81051254272461,19.28860092163086,72.88809967041016,16383.5,65535.0
14956.112584691891,245.71514892578125,378.1521911621094,297.4825439453125,-380.4750061035156,-20.962793350219727,64.45620727539062,20.651226043701172,76.05004119873047,16383.5,65535.0
14956.112984700521,252.5004425048828,388.2672119140625,311.986328125,-368.1855773925781,-28.96550178527832,57.03836441040039,13.036364555358887,68.06470489501953,16383.5,65535.0
14956.11338470915,269.69482421875,390.0976867675781,310.3035888671875,-382.7603759765625,-19.974462509155273,63.84980773925781,23.21017074584961,77.1474380493164,16383.5,65535.0
14956.11378471778,276.1109313964844,385.9441833496094,294.2956237792969,-388.3358154296875,-13.982206344604492,71.17753601074219,29.64523696899414,82.67215728759766,16383.5,65535.0
14956.11418472641,293.4210205078125,385.1304626464844,280.5287170410156,-396.3616638183594,-22.503578186035156,62.18079376220703,21.27454948425293,73.13396453857422,16383.5,65535.0
14956.11458473504,312.46173095703125,379.59661865234375,256.51617431640625,-402.04656982421875,-22.050220489501953,61.98662567138672,18.532577514648438,75.18130493164062,16383.5,65535.0
14956.114984743668,354.805419921875,384.40484619140625,243.14077758789062,-403.6348876953125,-21.882720947265625,63.14527893066406,22.50839614868164,77.67324829101562,16383.5,65535.0
14956.115384752298,419.35601806640625,384.21075439453125,260.3055419921875,-392.17755126953125,-21.073406219482422,60.127540588378906,24.575233459472656,77.71244812011719,16383.5,65535.0
14956.115784760928,438.1490173339844,374.9962158203125,312.26519775390625,-396.0358581542969,-24.052955627441406,56.27803039550781,16.668149948120117,73.30009460449219,16383.5,65535.0
14956.116184769558,437.4770812988281,367.4471740722656,324.75286865234375,-388.8786315917969,-31.14963722229004,46.585716247558594,8.747048377990723,67.49834442138672,16383.5,65535.0
14956.116584778187,421.3504333496094,377.1187744140625,279.9464111328125,-392.2852478027344,-38.58959197998047,37.63977813720703,3.4757299423217773,57.72529220581055,16383.5,65535.0
14956.116984786817,388.7353515625,375.7977294921875,282.51141357421875,-389.6121520996094,-31.60047149658203,40.671287536621094,9.910735130310059,62.32157897949219,16383.5,65535.0
14956.117384795447,386.539306640625,380.0132141113281,368.33563232421875,-399.4595642089844,-27.2229061126709,44.904232025146484,14.739824295043945,70.8404769897461,16383.5,65535.0
14956.117784804077,388.05023193359375,383.6030578613281,482.5422058105469,-396.705078125,-29.84658432006836,45.39078903198242,14.35495376586914,69.4271469116211,16383.5,65535.0
14956.118184812705,387.2872009277344,381.49505615234375,544.3143310546875,-375.2273254394531,-34.63689041137695,36.63443374633789,7.907435894012451,62.33340835571289,16383.5,65535.0
14956.118584821335,385.30615234375,387.21514892578125,573.7158813476562,-363.77685546875,-27.258955001831055,39.33892059326172,16.266603469848633,69.15975189208984,16383.5,65535.0
14956.118984829965,379.2159729003906,386.58245849609375,577.8471069335938,-379.3672790527344,-17.004281997680664,54.5367317199707,25.51342010498047,82.56562042236328,16383.5,65535.0
14956.119384838596,364.4948425292969,387.6385498046875,580.3544921875,-378.24920654296875,-27.420085906982422,41.88627624511719,14.630949974060059,69.13632202148438,16383.5,65535.0
14956.119784847224,352.06085205078125,392.50469970703125,609.2216186523438,-372.5940856933594,-22.60979461669922,44.467552185058594,18.806886672973633,73.30623626708984,16383.5,65535.0
14956.120184855854,351.7646484375,398.3356628417969,644.3143920898438,-371.86627197265625,-23.178041458129883,44.86102294921875,16.1760311126709,72.2869873046875,16383.5,65535.0
14956.120584864484,335.8662109375,386.4687194824219,674.9312133789062,-376.9435119628906,-33.06235122680664,34.035579681396484,9.387328147888184,66.84540557861328,16383.5,65535.0
14956.120984873114,336.3968200683594,381.8975524902344,767.1385498046875,-371.5896911621094,-36.49476623535156,29.49143409729004,5.669684410095215,62.59012222290039,16383.5,65535.0
14956.121384881742,331.25,384.96826171875,821.0068359375,-380.5871887207031,-34.365989685058594,32.22746658325195,7.850364685058594,62.08821105957031,16383.5,65535.0
14956.121784890373,312.7781066894531,386.8708801269531,776.1770629882812,-387.11932373046875,-26.16366195678711,42.930362701416016,16.090858459472656,70.83491516113281,16383.5,65535.0
14956.122184899003,312.398193359375,383.35595703125,746.548583984375,-393.0425109863281,-29.410505294799805,37.57856369018555,13.623263359069824,65.97089385986328,16383.5,65535.0
14956.122584907633,312.6521301269531,377.9396057128906,781.6250610351562,-405.4799499511719,-26.052427291870117,38.69053268432617,14.808892250061035,69.80830383300781,16383.5,65535.0
14956.122984916261,306.77496337890625,380.83038330078125,813.5709838867188,-397.21722412109375,-22.18644142150879,43.96821594238281,19.311325073242188,74.15996551513672,16383.5,65535.0
14956.123384924891,321.88714599609375,392.6151428222656,792.0361328125,-399.6806640625,-34.89617156982422,33.93267822265625,6.596921920776367,64.014404296875,16383.5,65535.0
14956.123784933521,342.4559020996094,385.9677429199219,761.5941772460938,-404.0456848144531,-37.06763458251953,31.95966339111328,5.876120567321777,61.703346252441406,16383.5,65535.0
14956.124184942151,365.0075378417969,379.69287109375,734.0531616210938,-395.236083984375,-18.452848434448242,50.49525451660156,22.505176544189453,79.29095458984375,16383.5,65535.0
14956.12458495078,382.2742614746094,377.6982421875,680.3046875,-392.8800354003906,-15.114584922790527,56.83687210083008,27.38487434387207,79.16202545166016,16383.5,65535.0
14956.12498495941,376.69329833984375,381.06390380859375,590.2570190429688,-399.6612548828125,-25.22727394104004,46.27983474731445,14.87369155883789,69.32266235351562,16383.5,65535.0
14956.12538496804,354.41314697265625,390.8376770019531,536.4813842773438,-389.4551086425781,-25.066085815429688,48.517635345458984,18.342159271240234,70.8271484375,16383.5,65535.0
14956.12578497667,325.6951904296875,387.66290283203125,503.9368896484375,-389.34149169921875,-18.30272674560547,54.028438568115234,23.72872543334961,75.69568634033203,16383.5,65535.0
14956.126184985298,300.0512390136719,393.2726745605469,449.6119689941406,-404.546875,-25.239791870117188,48.57772445678711,19.04337501525879,73.48165893554688,16383.5,65535.0
14956.126584993928,279.7070007324219,388.6057434082031,400.7789001464844,-411.57952880859375,-19.644453048706055,55.20729064941406,21.870361328125,75.79399871826172,16383.5,65535.0
14956.126985002558,281.2580261230469,385.00830078125,322.2213134765625,-420.5953369140625,-18.769495010375977,58.404258728027344,23.058218002319336,77.00819396972656,16383.5,65535.0
14956.127385011188,276.8072509765625,381.9624328613281,231.0800018310547,-424.78582763671875,-31.47674560546875,45.013309478759766,9.566128730773926,66.44435119628906,16383.5,65535.0
14956.127785019817,250.48049926757812,387.80621337890625,170.26104736328125,-413.4593811035156,-25.053815841674805,48.13943099975586,14.759703636169434,71.45602416992188,16383.5,65535.0
14956.128185028447,248.05628967285156,387.859130859375,124.19349670410156,-400.70172119140625,-27.50290870666504,54.96989440917969,16.130783081054688,70.10777282714844,16383.5,65535.0
14956.128585037077,254.2792205810547,391.9691162109375,97.63872528076172,-395.7465515136719,-28.74727439880371,49.46437072753906,10.972580909729004,67.49063873291016,16383.5,65535.0
14956.128985045707,274.382568359375,393.8208923339844,85.08818054199219,-382.6531677246094,-26.336055755615234,53.22225570678711,15.803377151489258,71.7835693359375,16383.5,65535.0
14956.129385054335,282.49664306640625,390.665283203125,75.05921173095703,-378.8416748046875,-9.419525146484375,73.66097259521484,30.78586769104004,85.23845672607422,16383.5,65535.0
14956.129785062965,276.6112976074219,389.411376953125,49.679264068603516,-392.3992614746094,-10.308274269104004,75.37103271484375,30.69297981262207,87.23184204101562,16383.5,65535.0
14956.130185071595,268.3667297363281,393.8288879394531,5.1376214027404785,-422.9197692871094,-14.186529159545898,71.99617767333984,26.433670043945312,84.50322723388672,16383.5,65535.0
14956.130585080224,230.44479370117188,392.4551696777344,-44.2775764465332,-427.647705078125,-10.833252906799316,74.68988037109375,30.137149810791016,84.6678695678711,16383.5,65535.0
14956.130985088854,213.986572265625,403.9598388671875,-60.69269943237305,-415.827392578125,-18.368900299072266,68.13766479492188,22.601240158081055,78.49990844726562,16383.5,65535.0
14956.131385097484,221.49696350097656,402.9667053222656,-62.778961181640625,-407.55535888671875,-19.626863479614258,68.56739044189453,23.122705459594727,78.6637191772461,16383.5,65535.0
14956.131785106114,220.06663513183594,408.2462158203125,-88.681884765625,-410.3694763183594,-18.68512535095215,67.9301528930664,22.39785385131836,77.31359100341797,16383.5,65535.0
14956.132185114744,199.7384490966797,413.9710998535156,-114.29029083251953,-411.1719970703125,-13.502901077270508,72.99961853027344,27.556604385375977,83.10913848876953,16383.5,65535.0
14956.132585123372,185.48655700683594,407.2983093261719,-112.57241821289062,-399.724365234375,-22.542930603027344,64.94436645507812,19.411937713623047,73.9610595703125,16383.5,65535.0
14956.132985132002,179.6192626953125,408.7933349609375,-105.20830535888672,-397.6623840332031,-17.33092498779297,70.14911651611328,24.166109085083008,84.22651672363281,16383.5,65535.0
14956.133385140633,169.9415740966797,413.36175537109375,-90.14781951904297,-414.44268798828125,-15.779895782470703,70.70003509521484,23.638269424438477,79.78128814697266,16383.5,65535.0
14956.13378514926,175.63034057617188,401.1471862792969,-90.5007553100586,-399.05108642578125,-22.568225860595703,62.456390380859375,17.938583374023438,74.80584716796875,16383.5,65535.0
14956.13418515789,195.464599609375,400.1913757324219,-96.39618682861328,-388.3863220214844,-13.796365737915039,71.6777114868164,26.54486083984375,84.50941467285156,16383.5,65535.0
14956.134585166521,200.88665771484375,415.12030029296875,-94.90721130371094,-391.3249206542969,-26.53660774230957,56.11269760131836,16.902069091796875,69.72891235351562,16383.5,65535.0
14956.134985175151,215.2896728515625,409.0899963378906,-83.09228515625,-400.0075378417969,-26.56636619567871,48.83797836303711,13.4384765625,68.6685562133789,16383.5,65535.0
14956.135385183781,217.5419921875,409.2242736816406,-107.00141906738281,-403.5010986328125,-14.982914924621582,63.50859451293945,25.400907516479492,79.394775390625,16383.5,65535.0
14956.13578519241,226.23989868164062,408.7799377441406,-141.23081970214844,-398.3213195800781,-13.675103187561035,65.89550018310547,27.19070053100586,82.11099243164062,16383.5,65535.0
14956.13618520104,243.8233184814453,402.28143310546875,-137.3971710205078,-394.34375,-21.17536163330078,60.29286575317383,20.09659767150879,77.48979187011719,16383.5,65535.0
14956.13658520967,257.7012939453125,411.0038757324219,-95.8919448852539,-416.5089111328125,-17.58733558654785,60.438419342041016,24.730180740356445,78.08537292480469,16383.5,65535.0
14956.136985218298,278.1980895996094,405.19891357421875,-85.26045227050781,-424.6783752441406,-12.66055679321289,65.73701477050781,30.15878677368164,85.54409790039062,16383.5,65535.0
14956.137385226928,294.1713562011719,401.77911376953125,-82.21028137207031,-422.65753173828125,-23.830291748046875,52.136375427246094,17.9580135345459,72.00353240966797,16383.5,65535.0
14956.137785235558,300.138427734375,413.404296875,-62.88279724121094,-412.9115905761719,-23.247631072998047,47.290557861328125,15.525899887084961,73.18336486816406,16383.5,65535.0
14956.138185244188,303.059326171875,413.1834716796875,-97.03597259521484,-406.6170654296875,-17.54742431640625,56.89310073852539,24.733142852783203,78.46528625488281,16383.5,65535.0
14956.138585252818,322.8057861328125,414.11212158203125,-107.62491607666016,-410.5758972167969,-21.676546096801758,51.48615264892578,20.368839263916016,71.98892974853516,16383.5,65535.0
14956.138985261447,349.06475830078125,411.94818115234375,-74.63783264160156,-413.3800048828125,-40.21954345703125,26.85887336730957,1.8380239009857178,55.34664535522461,16383.5,65535.0
14956.139385270077,367.7672424316406,411.05133056640625,-51.04502868652344,-424.9696350097656,-41.06319808959961,26.59393882751465,4.364474773406982,56.952880859375,16383.5,65535.0
14956.139785278707,359.11029052734375,404.1588134765625,-63.877986907958984,-424.1006774902344,-32.180931091308594,35.70338439941406,10.444886207580566,63.471412658691406,16383.5,65535.0
14956.140185287335,345.1048583984375,403.81427001953125,-75.67630004882812,-424.277587890625,-28.929763793945312,38.526702880859375,12.688241004943848,68.23605346679688,16383.5,65535.0
14956.140585295965,360.6942138671875,406.54705810546875,-57.826656341552734,-407.8840637207031,-32.774925231933594,31.710872650146484,8.371126174926758,66.05863189697266,16383.5,65535.0
14956.140985304595,363.59307861328125,403.8519287109375,-42.92274856567383,-398.03021240234375,-25.96273422241211,33.01714324951172,11.17559814453125,66.20894622802734,16383.5,65535.0
14956.141385313225,350.9445495605469,406.57879638671875,-43.95888137817383,-395.1805725097656,-28.98287010192871,39.89252471923828,16.019323348999023,72.03388977050781,16383.5,65535.0
14956.141785321855,339.8741760253906,398.84552001953125,-10.24709701538086,-404.2968444824219,-38.69459533691406,28.99917984008789,5.091597557067871,58.56419372558594,16383.5,65535.0
14956.142185330484,345.5746765136719,398.4642028808594,18.478317260742188,-401.0623779296875,-32.983619689941406,30.37261962890625,9.210148811340332,62.97712707519531,16383.5,65535.0
14956.142585339114,338.5029602050781,404.52789306640625,24.28277015686035,-403.5155944824219,-35.35975646972656,30.477680206298828,5.792705535888672,62.66830825805664,16383.5,65535.0
14956.142985347744,328.916748046875,399.3250427246094,9.83189582824707,-397.7084655761719,-39.83082580566406,21.143516540527344,3.3551416397094727,56.269493103027344,16383.5,65535.0
14956.143385356372,318.141845703125,397.8099670410156,-9.445731163024902,-388.1771240234375,-36.28700637817383,26.237791061401367,5.558862686157227,59.94752883911133,16383.5,65535.0
14956.143785365002,283.9933776855469,397.1252136230469,-40.258644104003906,-378.7314453125,-31.851360321044922,34.661991119384766,8.675058364868164,63.25189208984375,16383.5,65535.0
14956.144185373632,249.8538360595703,403.3612365722656,-46.87978744506836,-386.7178955078125,-36.0288200378418,33.39388656616211,9.372448921203613,61.329490661621094,16383.5,65535.0
14956.144585382262,239.68101501464844,411.0444641113281,-17.09196662902832,-383.0576171875,-30.965368270874023,37.101524353027344,9.240408897399902,67.18721771240234,16383.5,65535.0
14956.144985390893,244.18157958984375,413.4710388183594,6.538176536560059,-375.876708984375,-34.208499908447266,32.77281188964844,3.2542312145233154,59.46428298950195,16383.5,65535.0
14956.14538539952,234.3521270751953,411.0122375488281,17.84587287902832,-380.1248474121094,-33.55276870727539,35.58906555175781,9.128159523010254,61.31819152832031,16383.5,65535.0
14956.145785408151,234.34181213378906,415.0651550292969,-18.752927780151367,-377.3254089355469,-24.73872184753418,40.607666015625,11.75692081451416,66.3615493774414,16383.5,65535.0
14956.146185416781,234.47744750976562,408.9842529296875,-23.708740234375,-369.87347412109375,-23.67075538635254,47.843360900878906,17.094141006469727,72.91355895996094,16383.5,65535.0
14956.14658542541,233.36203002929688,408.1459655761719,18.549360275268555,-366.7101745605469,-37.37976837158203,35.2901725769043,7.188026428222656,60.62358856201172,16383.5,65535.0
14956.14698543404,241.13226318359375,408.3272399902344,40.821468353271484,-375.51336669921875,-28.464391708374023,42.475860595703125,12.476214408874512,67.98540496826172,16383.5,65535.0
14956.14738544267,247.6646728515625,403.6959533691406,43.92348861694336,-376.8833923339844,-22.457836151123047,54.70998764038086,20.18589210510254,75.97906494140625,16383.5,65535.0
14956.1477854513,269.8703918457031,403.30517578125,55.94432067871094,-376.90435791015625,-19.58527946472168,57.088504791259766,19.744144439697266,75.02930450439453,16383.5,65535.0
14956.14818545993,264.30712890625,415.33270263671875,55.941558837890625,-373.3972473144531,-13.307549476623535,68.30632019042969,28.32386589050293,81.57408142089844,16383.5,65535.0
14956.148585468558,253.2032012939453,413.0010070800781,39.39196014404297,-371.9685363769531,-19.340116500854492,61.32443618774414,19.42816162109375,76.7138442993164,16383.5,65535.0
14956.148985477188,234.3128662109375,413.0914001464844,29.578489303588867,-367.3780517578125,-20.479537963867188,64.12554931640625,21.83447265625,75.02076721191406,16383.5,65535.0
14956.149385485818,213.87411499023438,412.6245422363281,33.4693489074707,-378.1241760253906,-23.324739456176758,58.41802978515625,17.082529067993164,74.24378204345703,16383.5,65535.0
14956.149785494446,189.52479553222656,414.5169372558594,40.5269889831543,-388.69927978515625,-24.918651580810547,60.585914611816406,18.674699783325195,73.54663848876953,16383.5,65535.0
14956.150185503077,169.18760681152344,414.21868896484375,33.57387161254883,-397.3510437011719,-21.336496353149414,63.771175384521484,19.842578887939453,75.67530059814453,16383.5,65535.0
14956.150585511707,160.27438354492188,416.0074462890625,29.28936195373535,-403.7396545410156,-12.67288589477539,75.01006317138672,28.905630111694336,84.95256805419922,16383.5,65535.0
14956.150985520337,165.31240844726562,425.79876708984375,44.79776382446289,-413.6746826171875,-15.615822792053223,72.71607208251953,26.624176025390625,81.2294692993164,16383.5,65535.0
14956.151385528965,193.57119750976562,429.5153503417969,51.256858825683594,-414.3094482421875,-19.40000343322754,67.85431671142578,22.31468391418457,77.67000579833984,16383.5,65535.0
14956.151785537595,209.04710388183594,429.9637756347656,74.1216049194336,-408.1241760253906,-21.259851455688477,66.38136291503906,23.002296447753906,78.02003479003906,16383.5,65535.0
14956.152185546225,227.842041015625,436.56103515625,91.56859588623047,-414.3787841796875,-15.759119033813477,70.9156723022461,28.589677810668945,81.83912658691406,16383.5,65535.0
14956.152585554855,239.95628356933594,432.3954162597656,116.53822326660156,-411.89910888671875,-14.995055198669434,71.08480072021484,25.194808959960938,81.0336685180664,16383.5,65535.0
14956.152985563484,278.8204650878906,436.39398193359375,130.12673950195312,-400.1695251464844,-18.96285629272461,68.1559829711914,22.077430725097656,79.57621002197266,16383.5,65535.0
14956.153385572114,293.6111145019531,433.5835266113281,137.73727416992188,-409.9363708496094,-23.3950252532959,62.76475143432617,19.224685668945312,76.73793029785156,16383.5,65535.0
14956.153785580744,288.311279296875,431.95220947265625,154.78610229492188,-417.77508544921875,-13.762918472290039,70.81179809570312,30.261993408203125,81.80817413330078,16383.5,65535.0
14956.154185589374,276.37847900390625,437.47943115234375,156.04977416992188,-418.0083312988281,-12.144132614135742,72.31571197509766,30.021114349365234,85.23138427734375,16383.5,65535.0
14956.154585598002,276.7330627441406,435.9460144042969,156.1641082763672,-428.78662109375,-24.102678298950195,62.33881378173828,17.767629623413086,75.35684204101562,16383.5,65535.0
14956.154985606632,283.0736083984375,441.23095703125,157.78224182128906,-446.1181640625,-11.7474946975708,72.69754028320312,32.73843002319336,85.79960632324219,16383.5,65535.0
14956.155385615262,283.215576171875,442.97613525390625,174.60324096679688,-446.6567077636719,-10.00295639038086,73.9845199584961,30.485471725463867,85.4564208984375,16383.5,65535.0
14956.155785623892,275.73785400390625,439.2945861816406,202.91879272460938,-437.4917297363281,-14.97736930847168,70.00130462646484,27.49464225769043,84.17413330078125,16383.5,65535.0
14956.15618563252,271.2445983886719,442.7321472167969,190.67703247070312,-433.5032653808594,-15.461007118225098,67.523193359375,27.00645637512207,80.8310317993164,16383.5,65535.0
14956.15658564115,249.3054656982422,440.45989990234375,200.20004272460938,-419.42205810546875,-11.598185539245605,70.92777252197266,30.867816925048828,86.38176727294922,16383.5,65535.0
14956.15698564978,223.3069305419922,440.6315612792969,191.26084899902344,-412.1841125488281,-19.158912658691406,59.99501419067383,23.470096588134766,77.97856140136719,16383.5,65535.0
14956.157385658411,213.66021728515625,445.589599609375,172.78724670410156,-414.3970642089844,-12.677803039550781,65.36908721923828,28.0118408203125,85.0440444946289,16383.5,65535.0
14956.15778566704,215.2112579345703,445.8124694824219,194.9099884033203,-408.6072692871094,-23.505699157714844,53.53272247314453,18.758852005004883,72.08981323242188,16383.5,65535.0
14956.15818567567,244.89585876464844,436.45928955078125,234.6812286376953,-409.43060302734375,-28.920644760131836,47.64958190917969,12.827211380004883,68.47358703613281,16383.5,65535.0
14956.1585856843,257.9707946777344,448.25152587890625,265.1787109375,-407.6189880371094,-35.05295181274414,37.516212463378906,5.638679504394531,60.05958557128906,16383.5,65535.0
14956.15898569293,268.92535400390625,448.15460205078125,262.8800354003906,-405.07275390625,-26.75965690612793,43.72086715698242,18.402605056762695,68.24231719970703,16383.5,65535.0
14956.159385701558,276.4387512207031,447.5835876464844,262.69000244140625,-419.4370422363281,-25.83479118347168,45.643104553222656,15.373449325561523,69.61492156982422,16383.5,65535.0
14956.159785710188,303.0078125,452.9998474121094,267.69085693359375,-440.8607177734375,-20.81744384765625,49.74755096435547,20.414289474487305,74.79583740234375,16383.5,65535.0
14956.160185718818,325.0721435546875,446.5042419433594,202.78419494628906,-443.1187438964844,-21.260007858276367,48.753395080566406,18.45447540283203,73.70648193359375,16383.5,65535.0
14956.160585727448,353.0226135253906,421.6356506347656,162.85443115234375,-430.1461181640625,-37.39149856567383,30.249053955078125,5.869452953338623,60.72478103637695,16383.5,65535.0
14956.160985736076,367.81695556640625,430.92034912109375,162.669677734375,-429.5833435058594,-39.17551040649414,26.283679962158203,4.845818996429443,60.60898971557617,16383.5,65535.0
14956.161385744706,376.5565490722656,439.3131103515625,188.1582794189453,-401.4111328125,-38.969627380371094,28.1917667388916,3.5675113201141357,57.4686393737793,16383.5,65535.0
