time,X_NOSE,Y_NOSE,Z_NOSE,visibility_NOSE,X_LEFT_EYE_INNER,Y_LEFT_EYE_INNER,Z_LEFT_EYE_INNER,visibility_LEFT_EYE_INNER,X_LEFT_EYE,Y_LEFT_EYE,Z_LEFT_EYE,visibility_LEFT_EYE,X_LEFT_EYE_OUTER,Y_LEFT_EYE_OUTER,Z_LEFT_EYE_OUTER,visibility_LEFT_EYE_OUTER,X_RIGHT_EYE_OUTER,Y_RIGHT_EYE_OUTER,Z_RIGHT_EYE_OUTER,visibility_RIGHT_EYE_OUTER,X_RIGHT_EYE,Y_RIGHT_EYE,Z_RIGHT_EYE,visibility_RIGHT_EYE,X_RIGHT_EYE_OUTER,Y_RIGHT_EYE_OUTER,Z_RIGHT_EYE_OUTER,visibility_RIGHT_EYE_OUTER,X_LEFT_EAR,Y_LEFT_EAR,Z_LEFT_EAR,visibility_LEFT_EAR,X_RIGHT_EAR,Y_RIGHT_EAR,Z_RIGHT_EAR,visibility_RIGHT_EAR,X_MOUTH_LEFT,Y_MOUTH_LEFT,Z_MOUTH_LEFT,visibility_MOUTH_LEFT,X_MOUTH_RIGHT,Y_MOUTH_RIGHT,Z_MOUTH_RIGHT,visibility_MOUTH_RIGHT,X_LEFT_SHOULDER,Y_LEFT_SHOULDER,Z_LEFT_SHOULDER,visibility_LEFT_SHOULDER,X_RIGHT_SHOULDER,Y_RIGHT_SHOULDER,Z_RIGHT_SHOULDER,visibility_RIGHT_SHOULDER,X_LEFT_ELBOW,Y_LEFT_ELBOW,Z_LEFT_ELBOW,visibility_LEFT_ELBOW,X_RIGHT_ELBOW,Y_RIGHT_ELBOW,Z_RIGHT_ELBOW,visibility_RIGHT_ELBOW,X_LEFT_WRIST,Y_LEFT_WRIST,Z_LEFT_WRIST,visibility_LEFT_WRIST,X_RIGHT_WRIST,Y_RIGHT_WRIST,Z_RIGHT_WRIST,visibility_RIGHT_WRIST,X_LEFT_PINKY,Y_LEFT_PINKY,Z_LEFT_PINKY,visibility_LEFT_PINKY,X_RIGHT_PINKY,Y_RIGHT_PINKY,Z_RIGHT_PINKY,visibility_RIGHT_PINKY,X_LEFT_INDEX,Y_LEFT_INDEX,Z_LEFT_INDEX,visibility_LEFT_INDEX,X_RIGHT_INDEX,Y_RIGHT_INDEX,Z_RIGHT_INDEX,visibility_RIGHT_INDEX,X_LEFT_THUMB,Y_LEFT_THUMB,Z_LEFT_THUMB,visibility_LEFT_THUMB,X_RIGHT_THUMB,Y_RIGHT_THUMB,Z_RIGHT_THUMB,visibility_RIGHT_THUMB,X_LEFT_HIP,Y_LEFT_HIP,Z_LEFT_HIP,visibility_LEFT_HIP,X_RIGHT_HIP,Y_RIGHT_HIP,Z_RIGHT_HIP,visibility_RIGHT_HIP,X_LEFT_KNEE,Y_LEFT_KNEE,Z_LEFT_KNEE,visibility_LEFT_KNEE,X_RIGHT_KNEE,Y_RIGHT_KNEE,Z_RIGHT_KNEE,visibility_RIGHT_KNEE,X_LEFT_ANKLE,Y_LEFT_ANKLE,Z_LEFT_ANKLE,visibility_LEFT_ANKLE,X_RIGHT_ANKLE,Y_RIGHT_ANKLE,Z_RIGHT_ANKLE,visibility_RIGHT_ANKLE,X_LEFT_HEEL,Y_LEFT_HEEL,Z_LEFT_HEEL,visibility_LEFT_HEEL,X_RIGHT_HEEL,Y_RIGHT_HEEL,Z_RIGHT_HEEL,visibility_RIGHT_HEEL,X_LEFT_FOOT_INDEX,Y_LEFT_FOOT_INDEX,Z_LEFT_FOOT_INDEX,visibility_LEFT_FOOT_INDEX,X_RIGHT_FOOT_INDEX,Y_RIGHT_FOOT_INDEX,Z_RIGHT_FOOT_INDEX,visibility_RIGHT_FOOT_INDEX
19387.6990750509,0.42450201511383057,0.23451799154281616,-0.9607939720153809,0.9999569654464722,0.4297312796115875,0.21134084463119507,-0.9025563597679138,0.9999122619628906,0.4383560121059418,0.20995691418647766,-0.9027438163757324,0.9998993873596191,0.4463059902191162,0.2087629735469818,-0.9028564095497131,0.9998905658721924,0.39685118198394775,0.21298035979270935,-0.9399880766868591,0.9999163150787354,0.3787258565425873,0.21273425221443176,-0.9401259422302246,0.9999064207077026,0.36141830682754517,0.21290558576583862,-0.9403483867645264,0.9998984336853027,0.4395333230495453,0.21624964475631714,-0.5352447628974915,0.9998980760574341,0.3136064112186432,0.2231273353099823,-0.7135719656944275,0.9999233484268188,0.43433481454849243,0.256501168012619,-0.8191337585449219,0.9999758005142212,0.40012240409851074,0.25893494486808777,-0.8700141906738281,0.9999814033508301,0.5201265215873718,0.34985360503196716,-0.2699225842952728,0.9998881816864014,0.16159303486347198,0.3702528178691864,-0.5493957996368408,0.9996497631072998,0.5700734853744507,0.5080856084823608,-0.03722115978598595,0.9752751588821411,0.16793330013751984,0.5246817469596863,-0.6613845825195312,0.9540783762931824,0.63429856300354,0.637967050075531,-0.3329061269760132,0.9706040024757385,0.27226102352142334,0.5715065598487854,-1.0973014831542969,0.9156531691551208,0.6523836851119995,0.6782323718070984,-0.4300900101661682,0.9504367709159851,0.31666845083236694,0.5818613767623901,-1.2149094343185425,0.8983680605888367,0.6386066675186157,0.6773691773414612,-0.527892529964447,0.9555166959762573,0.32520610094070435,0.5571372509002686,-1.290968418121338,0.9042140245437622,0.6285561919212341,0.6660813093185425,-0.37773972749710083,0.9564133882522583,0.3107854425907135,0.5507632493972778,-1.1332420110702515,0.8866893649101257,0.4836232662200928,0.6278612613677979,0.08395372331142426,0.9965798258781433,0.30728888511657715,0.6480758786201477,-0.08351179212331772,0.9969511032104492,0.4773085117340088,0.8333657383918762,0.1624467670917511,0.9510471820831299,0.340012788772583,0.8645780086517334,0.00014151995128486305,0.9496177434921265,0.4779573678970337,0.9633917808532715,0.9538414478302002,0.8573736548423767,0.35659074783325195,0.9892512559890747,0.6382750868797302,0.8722870945930481,0.45684462785720825,0.973361074924469,1.0106613636016846,0.7767251133918762,0.35630378127098083,0.9908430576324463,0.6844629049301147,0.5924918055534363,0.5284003019332886,1.024001121520996,0.6957412362098694,0.7906864881515503,0.3723803758621216,1.0883694887161255,0.2726174592971802,0.7476711869239807
19404.365741717567,0.4239577651023865,0.23607414960861206,-0.9831981658935547,0.9999769926071167,0.4298200011253357,0.21242645382881165,-0.927922785282135,0.9999505281448364,0.4385106861591339,0.210918128490448,-0.9280562996864319,0.9999445676803589,0.44665828347206116,0.20963171124458313,-0.9281695485115051,0.9999383687973022,0.39663857221603394,0.2143494188785553,-0.9601740837097168,0.9999520778656006,0.37898194789886475,0.2142648994922638,-0.960292398929596,0.9999463558197021,0.3624052405357361,0.21449896693229675,-0.9604401588439941,0.9999387264251709,0.441241055727005,0.21683382987976074,-0.5743677616119385,0.999941349029541,0.31671208143234253,0.22429338097572327,-0.7314842939376831,0.9999516010284424,0.4342426359653473,0.2581470012664795,-0.84731525182724,0.9999858140945435,0.40005505084991455,0.26048171520233154,-0.8918988108634949,0.9999885559082031,0.5213227272033691,0.34927281737327576,-0.3261948227882385,0.9999029636383057,0.16738399863243103,0.36987051367759705,-0.5706697702407837,0.9997040629386902,0.5695028901100159,0.5101238489151001,-0.09975499659776688,0.9770490527153015,0.17014004290103912,0.523432195186615,-0.6668070554733276,0.9507784247398376,0.6371279358863831,0.6386206746101379,-0.35190349817276,0.9711642265319824,0.27175042033195496,0.5729620456695557,-1.0483191013336182,0.8877217173576355,0.6537075638771057,0.6802445650100708,-0.4407602548599243,0.9510190486907959,0.31151944398880005,0.5853762030601501,-1.1571487188339233,0.8675355315208435,0.6400223970413208,0.6785509586334229,-0.5351101756095886,0.95565265417099,0.32364556193351746,0.5639029145240784,-1.2281535863876343,0.8734564185142517,0.6309242248535156,0.6673309206962585,-0.39372140169143677,0.9566901922225952,0.3102792799472809,0.5570788979530334,-1.0821844339370728,0.8567329049110413,0.4828183948993683,0.6277061700820923,0.08269606530666351,0.9970284104347229,0.3076845705509186,0.6471203565597534,-0.08229976147413254,0.997437596321106,0.47863614559173584,0.8286384344100952,0.19918859004974365,0.9532846212387085,0.3390118479728699,0.8645068407058716,0.017019502818584442,0.9683472514152527,0.4778994917869568,0.9603967666625977,0.9254602193832397,0.8909648060798645,0.3546600043773651,0.9895731806755066,0.6102426648139954,0.9162985682487488,0.45416250824928284,0.9710713624954224,0.9769542217254639,0.833110511302948,0.35532838106155396,0.9909551739692688,0.6523764729499817,0.6757937073707581,0.5326608419418335,1.0185645818710327,0.6853808164596558,0.8402990698814392,0.37175291776657104,1.0843605995178223,0.2623975872993469,0.8108943700790405
19421.032408384235,0.42301881313323975,0.2384922206401825,-1.0188491344451904,0.9999672174453735,0.43169108033180237,0.21423286199569702,-0.9655646085739136,0.9999282360076904,0.440908819437027,0.21252605319023132,-0.9656990170478821,0.9999213218688965,0.4492873251438141,0.21111640334129333,-0.9658399820327759,0.9999140501022339,0.39691925048828125,0.21694660186767578,-0.996690571308136,0.9999278783798218,0.37885892391204834,0.21704572439193726,-0.9968021512031555,0.9999204874038696,0.3612386882305145,0.21726524829864502,-0.9969398379325867,0.9999077320098877,0.44468045234680176,0.2179797887802124,-0.6139183640480042,0.9999154806137085,0.3145846128463745,0.226144939661026,-0.7660818696022034,0.9999241828918457,0.4332994222640991,0.26021409034729004,-0.8827317953109741,0.9999792575836182,0.3978551924228668,0.26313307881355286,-0.9259293079376221,0.9999822378158569,0.5177013278007507,0.3488186299800873,-0.36468368768692017,0.9998910427093506,0.1664687693119049,0.3680315613746643,-0.5946295857429504,0.9995602965354919,0.5704120397567749,0.5095590353012085,-0.13269099593162537,0.9749144911766052,0.17340366542339325,0.5219283103942871,-0.6743357181549072,0.9350897669792175,0.6355496048927307,0.6370853185653687,-0.35602477192878723,0.9634807705879211,0.27227503061294556,0.574882984161377,-1.024237036705017,0.8323280215263367,0.6532310247421265,0.6796289682388306,-0.4394485056400299,0.9383310079574585,0.31436970829963684,0.5866379141807556,-1.127329707145691,0.8082371950149536,0.638371467590332,0.6782662868499756,-0.5312294363975525,0.9440898299217224,0.3244134783744812,0.56228107213974,-1.1987732648849487,0.8168225884437561,0.6287215948104858,0.6673279404640198,-0.3960738480091095,0.9466766715049744,0.31060418486595154,0.5558273792266846,-1.0580599308013916,0.8009401559829712,0.4815042316913605,0.6243976950645447,0.07552847266197205,0.9970043301582336,0.3079920709133148,0.6436862349510193,-0.07514211535453796,0.9969616532325745,0.4770042598247528,0.8270475268363953,0.19261959195137024,0.9485228657722473,0.3384082317352295,0.859626054763794,0.0322883240878582,0.9616970419883728,0.4766797423362732,0.9580591320991516,0.9029864072799683,0.8836953639984131,0.352884978055954,0.9828430414199829,0.624607264995575,0.9013197422027588,0.45511412620544434,0.9681732058525085,0.9532088041305542,0.8076132535934448,0.350778728723526,0.9838990569114685,0.6672984957695007,0.6404557228088379,0.5282935500144958,1.0181742906570435,0.6590149402618408,0.8220793604850769,0.37137776613235474,1.079079031944275,0.2814156115055084,0.7831470966339111
19437.699075050903,0.42712241411209106,0.23498529195785522,-0.9934303760528564,0.9999635219573975,0.4324464797973633,0.21116361021995544,-0.9379570484161377,0.9999217987060547,0.4408430755138397,0.2096661925315857,-0.938116192817688,0.999909520149231,0.44839662313461304,0.20841336250305176,-0.9381945729255676,0.9998993873596191,0.3999747335910797,0.21329271793365479,-0.9741937518119812,0.9999293088912964,0.38199150562286377,0.21326705813407898,-0.9743363261222839,0.9999219179153442,0.3641984462738037,0.21358299255371094,-0.9745529294013977,0.9999160766601562,0.4410914480686188,0.21597814559936523,-0.5799704790115356,0.9999047517776489,0.3158831298351288,0.22368180751800537,-0.7532652616500854,0.999937891960144,0.4362218677997589,0.2567361295223236,-0.8551085591316223,0.9999790191650391,0.4016295373439789,0.2596837878227234,-0.904514491558075,0.9999853372573853,0.5208068490028381,0.34812793135643005,-0.3165516257286072,0.9998844861984253,0.16479870676994324,0.3687859773635864,-0.5888832807540894,0.9997350573539734,0.5685819983482361,0.5072157382965088,-0.07142061740159988,0.972374439239502,0.1620563268661499,0.5226678848266602,-0.6836476922035217,0.9635571241378784,0.6330257654190063,0.633694589138031,-0.33946338295936584,0.9672529697418213,0.2753296196460724,0.5710158944129944,-1.0843123197555542,0.931110143661499,0.6519254446029663,0.6758374571800232,-0.4322257936000824,0.9460759162902832,0.3228321671485901,0.5825576782226562,-1.1993043422698975,0.9136530756950378,0.6391656398773193,0.6746855974197388,-0.5295515060424805,0.9512789249420166,0.3305809497833252,0.5586193799972534,-1.271964192390442,0.9182760715484619,0.6297585964202881,0.6635158061981201,-0.38347136974334717,0.953210175037384,0.3153970241546631,0.5520928502082825,-1.118293046951294,0.9028574824333191,0.48317235708236694,0.6242472529411316,0.08094022423028946,0.9970033764839172,0.30794405937194824,0.6452179551124573,-0.08053597062826157,0.9974802136421204,0.47824734449386597,0.8293070793151855,0.21072839200496674,0.9569405913352966,0.343395471572876,0.8612957000732422,0.04345312342047691,0.9624890685081482,0.4787978231906891,0.9613690376281738,0.9990075826644897,0.8852849006652832,0.35853421688079834,0.9881395101547241,0.6849091649055481,0.9021770358085632,0.45890191197395325,0.9729730486869812,1.0564398765563965,0.812861979007721,0.3599252998828888,0.9922675490379333,0.7329087257385254,0.6579851508140564,0.5256209373474121,1.021974802017212,0.7531319260597229,0.8307451009750366,0.37592750787734985,1.080695390701294,0.33616161346435547,0.7971958518028259
19454.36574171757,0.42437082529067993,0.2377699464559555,-0.9909662008285522,0.9999582767486572,0.43073755502700806,0.2129136323928833,-0.9371958374977112,0.9999086856842041,0.43935689330101013,0.21115246415138245,-0.9373524188995361,0.9998974800109863,0.4471372365951538,0.20965635776519775,-0.9374682903289795,0.9998873472213745,0.3974960446357727,0.21583080291748047,-0.969576358795166,0.9999134540557861,0.3792998194694519,0.21601784229278564,-0.9697006344795227,0.9999041557312012,0.36199459433555603,0.21638625860214233,-0.9698697924613953,0.9998942613601685,0.4407094120979309,0.21657928824424744,-0.5853081941604614,0.99988853931427,0.31488344073295593,0.22582769393920898,-0.7408057451248169,0.9999182224273682,0.43457406759262085,0.2595430016517639,-0.8549016714096069,0.9999743700027466,0.3998393714427948,0.26291102170944214,-0.8989771604537964,0.9999809265136719,0.5202414989471436,0.3495946228504181,-0.3268246054649353,0.9998756647109985,0.1696748286485672,0.3693043887615204,-0.5824652910232544,0.999671220779419,0.5674096345901489,0.5081937909126282,-0.09869958460330963,0.9688112139701843,0.17226754128932953,0.5251432061195374,-0.6597408652305603,0.9557228684425354,0.6331583261489868,0.6361638903617859,-0.3472914695739746,0.9561083912849426,0.27868297696113586,0.5721951127052307,-1.0081597566604614,0.883100688457489,0.6510021686553955,0.6773968935012817,-0.43618252873420715,0.9291467070579529,0.3225884437561035,0.5830138325691223,-1.1133617162704468,0.857144296169281,0.6383686065673828,0.6766706109046936,-0.5285573601722717,0.935895562171936,0.3316182792186737,0.5603861212730408,-1.1841942071914673,0.8638032674789429,0.6285868883132935,0.6653268933296204,-0.38903647661209106,0.9391989707946777,0.3179020285606384,0.5544562339782715,-1.040998101234436,0.8467764854431152,0.4833880066871643,0.6275509595870972,0.08651439100503922,0.9967027306556702,0.30752742290496826,0.6470581293106079,-0.08610972762107849,0.9970447421073914,0.47676634788513184,0.8309168815612793,0.21049146354198456,0.9396302103996277,0.3431178629398346,0.858747661113739,0.02713693678379059,0.9597634673118591,0.4755171835422516,0.95881587266922,0.9415437579154968,0.8676369190216064,0.3545597493648529,0.9846711158752441,0.628517746925354,0.8928956389427185,0.45271947979927063,0.9697725772857666,0.9939032196998596,0.8027417063713074,0.35168591141700745,0.9885706901550293,0.6723439693450928,0.6378791928291321,0.5294933319091797,1.0193464756011963,0.7002266049385071,0.8125678896903992,0.37781500816345215,1.079096794128418,0.28452053666114807,0.7780289649963379
19471.03240838424,0.4250530004501343,0.23608562350273132,-1.0043829679489136,0.9999736547470093,0.43114155530929565,0.21198198199272156,-0.9504125714302063,0.9999423027038574,0.4400165379047394,0.21042490005493164,-0.9505336880683899,0.9999353885650635,0.4480340778827667,0.20909196138381958,-0.9506388306617737,0.9999278783798218,0.39829230308532715,0.2140568196773529,-0.983543872833252,0.9999440908432007,0.38047921657562256,0.21401509642601013,-0.9836633801460266,0.9999383687973022,0.3634439706802368,0.21424853801727295,-0.9838206768035889,0.9999303817749023,0.4426509439945221,0.21617183089256287,-0.5967134237289429,0.9999305009841919,0.3172970414161682,0.2239057719707489,-0.7572752833366394,0.9999452829360962,0.43504223227500916,0.25854766368865967,-0.8673905730247498,0.9999837875366211,0.4010801613330841,0.2609798312187195,-0.9130831360816956,0.9999873638153076,0.5226256847381592,0.34884539246559143,-0.34326377511024475,0.999907374382019,0.17067117989063263,0.3681025207042694,-0.589177668094635,0.9996943473815918,0.5695294141769409,0.5102764964103699,-0.10640615969896317,0.9772905707359314,0.17126771807670593,0.5236607789993286,-0.6753544211387634,0.9539211392402649,0.6349143981933594,0.6370308995246887,-0.3514690697193146,0.970176100730896,0.2764013707637787,0.57436203956604,-1.0421757698059082,0.8925791382789612,0.6522620916366577,0.6796695590019226,-0.43964025378227234,0.9491936564445496,0.3195498287677765,0.5862082839012146,-1.1495758295059204,0.8705599904060364,0.6382299661636353,0.6780529022216797,-0.5332084894180298,0.9538578987121582,0.32958418130874634,0.5634990334510803,-1.2203798294067383,0.8763512969017029,0.6287209987640381,0.6667677164077759,-0.39284443855285645,0.9551941752433777,0.3155577778816223,0.5566858649253845,-1.075181007385254,0.859498918056488,0.48256564140319824,0.6263647079467773,0.07651449739933014,0.997282862663269,0.3078090250492096,0.6456614136695862,-0.07612086832523346,0.9974604845046997,0.4787410795688629,0.8270538449287415,0.18182851374149323,0.9588139653205872,0.3411422371864319,0.8594715595245361,0.022698482498526573,0.9663164019584656,0.47923821210861206,0.9601932168006897,0.9275446534156799,0.8976162672042847,0.35558435320854187,0.9902684092521667,0.633487343788147,0.9130643606185913,0.4582397937774658,0.9709812998771667,0.9807747006416321,0.8240534067153931,0.35609036684036255,0.9929938316345215,0.6778865456581116,0.6660763621330261,0.5257577896118164,1.0210355520248413,0.6818128824234009,0.8421729207038879,0.3713340163230896,1.0819323062896729,0.2868293225765228,0.809220016002655
19487.699075050907,0.4271528720855713,0.2353247106075287,-0.9751302003860474,0.9999788999557495,0.432609498500824,0.2116815447807312,-0.9223403930664062,0.9999548196792603,0.44124212861061096,0.21016797423362732,-0.9224696159362793,0.9999492168426514,0.4491353929042816,0.20887768268585205,-0.9225748777389526,0.9999444484710693,0.4000648856163025,0.21382057666778564,-0.954393208026886,0.9999570846557617,0.3820728063583374,0.2137654423713684,-0.954513430595398,0.9999525547027588,0.3644203543663025,0.21405130624771118,-0.9546535611152649,0.9999464750289917,0.44285860657691956,0.21617507934570312,-0.5752073526382446,0.9999476671218872,0.31627893447875977,0.22409215569496155,-0.7306286692619324,0.9999567270278931,0.43756112456321716,0.2571389973163605,-0.8407431840896606,0.9999868869781494,0.40297865867614746,0.2604755759239197,-0.8848699331283569,0.99998939037323,0.5226935148239136,0.34684857726097107,-0.33224061131477356,0.999914288520813,0.16938212513923645,0.3680870234966278,-0.5667440295219421,0.9997021555900574,0.5726761817932129,0.5073199272155762,-0.09508087486028671,0.9770725965499878,0.17203153669834137,0.5232483744621277,-0.6616166830062866,0.9496691226959229,0.6343750953674316,0.6342774033546448,-0.32592353224754333,0.9709521532058716,0.2729683220386505,0.5734938383102417,-1.0389200448989868,0.8818860650062561,0.6524912118911743,0.677322506904602,-0.4103509783744812,0.9506536722183228,0.31761592626571655,0.5847278833389282,-1.1442205905914307,0.8618724346160889,0.6375431418418884,0.6757590174674988,-0.5017743706703186,0.955180823802948,0.32547298073768616,0.5616869330406189,-1.2155965566635132,0.8683578968048096,0.628029465675354,0.6648385524749756,-0.365817129611969,0.9566583633422852,0.3100306987762451,0.555341362953186,-1.07277250289917,0.8523873090744019,0.48317477107048035,0.625344455242157,0.07215143740177155,0.9971613883972168,0.3099031448364258,0.645382285118103,-0.07176368683576584,0.9974240064620972,0.47826215624809265,0.8263355493545532,0.1916448473930359,0.9578700065612793,0.3381906747817993,0.8611447811126709,0.0370723158121109,0.9670788049697876,0.47813138365745544,0.9601553678512573,0.9087417721748352,0.8976730108261108,0.35524091124534607,0.98878014087677,0.6169008016586304,0.914602518081665,0.4566318094730377,0.9694111943244934,0.9602043032646179,0.8299269676208496,0.35497674345970154,0.9911268353462219,0.6587690114974976,0.6763458251953125,0.5292374491691589,1.0221796035766602,0.6737186908721924,0.846490204334259,0.38043177127838135,1.0857455730438232,0.27762097120285034,0.8111523985862732
19504.365741717575,0.4278506338596344,0.23541560769081116,-0.9600009918212891,0.9999778270721436,0.4330504536628723,0.21167698502540588,-0.9082080721855164,0.999951958656311,0.4416087865829468,0.21013754606246948,-0.9083396792411804,0.9999465942382812,0.4493967294692993,0.20881682634353638,-0.9084582328796387,0.9999421834945679,0.4004499912261963,0.21386414766311646,-0.9401437044143677,0.999954104423523,0.38236719369888306,0.21383094787597656,-0.9402543902397156,0.9999490976333618,0.3645021915435791,0.21414172649383545,-0.9403898119926453,0.9999425411224365,0.4427736699581146,0.21617653965950012,-0.5660247802734375,0.9999451637268066,0.3162284195423126,0.22428694367408752,-0.720795750617981,0.9999525547027588,0.43807992339134216,0.2572704553604126,-0.8272058367729187,0.999985933303833,0.4033321440219879,0.2606757581233978,-0.8711468577384949,0.999988317489624,0.5220494866371155,0.3465343117713928,-0.32936379313468933,0.9999125003814697,0.16965769231319427,0.3679257333278656,-0.5573553442955017,0.999667763710022,0.5723272562026978,0.5073726177215576,-0.09428977966308594,0.9769299030303955,0.17356371879577637,0.5232371687889099,-0.6454304456710815,0.9445831775665283,0.6348645687103271,0.6347346305847168,-0.31714168190956116,0.9698504209518433,0.27342718839645386,0.5737429857254028,-1.0078113079071045,0.8660767674446106,0.652966320514679,0.677407443523407,-0.40015023946762085,0.9487834572792053,0.31782782077789307,0.5845328569412231,-1.1097930669784546,0.8451575636863708,0.638125479221344,0.675922691822052,-0.4906213581562042,0.9535367488861084,0.32539886236190796,0.5615623593330383,-1.18143630027771,0.852432370185852,0.6287146806716919,0.6651247143745422,-0.3565545678138733,0.9552667140960693,0.3099943697452545,0.5554042458534241,-1.0416114330291748,0.8367018699645996,0.4831272065639496,0.6248953938484192,0.06864757090806961,0.9969852566719055,0.30972880125045776,0.644899845123291,-0.06825289875268936,0.9972149133682251,0.47786691784858704,0.8266492486000061,0.18205396831035614,0.9590145945549011,0.3384759724140167,0.861038327217102,0.034969594329595566,0.9663569331169128,0.47776082158088684,0.9604658484458923,0.8852260708808899,0.8988262414932251,0.35548579692840576,0.9888845086097717,0.6020115613937378,0.9132065176963806,0.45628687739372253,0.9696161150932312,0.9353645443916321,0.8246246576309204,0.355043888092041,0.9911255836486816,0.6425785422325134,0.6678532361984253,0.5278182029724121,1.0226712226867676,0.6496007442474365,0.8445168733596802,0.3786112368106842,1.085998296737671,0.26353687047958374,0.8075230717658997
19521.032408384242,0.42762795090675354,0.23329290747642517,-0.983237087726593,0.9999810457229614,0.4326077401638031,0.209133118391037,-0.9292033314704895,0.9999597072601318,0.4413704574108124,0.2077256739139557,-0.9293230175971985,0.9999544620513916,0.449241042137146,0.20654743909835815,-0.9294015765190125,0.9999493360519409,0.3997577428817749,0.2110227644443512,-0.9631356596946716,0.9999614953994751,0.38174453377723694,0.2108386754989624,-0.9632503390312195,0.9999573230743408,0.36435168981552124,0.21110716462135315,-0.9633987545967102,0.9999514818191528,0.44228553771972656,0.21470361948013306,-0.5812109708786011,0.9999533891677856,0.31578442454338074,0.2215762734413147,-0.745048999786377,0.9999618530273438,0.437246710062027,0.25525614619255066,-0.8491835594177246,0.9999885559082031,0.403108149766922,0.25820064544677734,-0.8956831693649292,0.999990701675415,0.5222005844116211,0.34809985756874084,-0.33881619572639465,0.9999192953109741,0.16825713217258453,0.3675954341888428,-0.5865637063980103,0.9997348189353943,0.5704163908958435,0.5090711116790771,-0.10268156230449677,0.9775949120521545,0.17438609898090363,0.5225955843925476,-0.6891179084777832,0.9549353718757629,0.6328904628753662,0.6345266699790955,-0.3471861779689789,0.9736456871032715,0.2772880494594574,0.5737142562866211,-1.076820731163025,0.9016749262809753,0.6516222953796387,0.6773702502250671,-0.435253381729126,0.9550188779830933,0.31932908296585083,0.5862176418304443,-1.1861917972564697,0.8839921355247498,0.6350932717323303,0.6759695410728455,-0.5275440812110901,0.9591009616851807,0.32921525835990906,0.5635706186294556,-1.2585868835449219,0.8893990516662598,0.6244590282440186,0.6651338338851929,-0.38797086477279663,0.9603148102760315,0.3145158290863037,0.5566628575325012,-1.1112128496170044,0.8744657039642334,0.48228102922439575,0.6252199411392212,0.07300922274589539,0.9975816011428833,0.3100382089614868,0.6444129943847656,-0.0725836381316185,0.9978740215301514,0.4791695475578308,0.8269031643867493,0.20047704875469208,0.9587918519973755,0.3389590084552765,0.8601931929588318,0.04717863351106644,0.966587483882904,0.47711554169654846,0.9591913223266602,0.941969096660614,0.8974316716194153,0.35396888852119446,0.9872319102287292,0.6514374017715454,0.9133592247962952,0.45479878783226013,0.9687542915344238,0.9955356121063232,0.8357253074645996,0.35335367918014526,0.9889746904373169,0.6956989765167236,0.6856340765953064,0.5284665822982788,1.0217068195343018,0.7074128985404968,0.8454523682594299,0.37414300441741943,1.0829426050186157,0.3139250576496124,0.8076728582382202
19537.69907505091,0.42443883419036865,0.2355262041091919,-1.0066310167312622,0.9999775886535645,0.4300537705421448,0.21133345365524292,-0.9528077840805054,0.9999507665634155,0.4390096664428711,0.2098313271999359,-0.9529245495796204,0.9999449253082275,0.44719189405441284,0.20856454968452454,-0.9530155062675476,0.999937891960144,0.3969258666038513,0.2135666012763977,-0.9849708676338196,0.9999523162841797,0.37895625829696655,0.21370387077331543,-0.9850977063179016,0.9999477863311768,0.3622313439846039,0.21417787671089172,-0.9852573275566101,0.9999406337738037,0.44167935848236084,0.2163514792919159,-0.6003056168556213,0.9999401569366455,0.31685030460357666,0.22454577684402466,-0.7567958235740662,0.9999531507492065,0.4352527856826782,0.257841020822525,-0.8703618049621582,0.999985933303833,0.40056169033050537,0.2606261670589447,-0.9148511290550232,0.9999889135360718,0.5237424969673157,0.34864532947540283,-0.3491145074367523,0.9999123811721802,0.16844449937343597,0.3684564232826233,-0.5917516350746155,0.9997319579124451,0.5709133148193359,0.5095833539962769,-0.11660847812891006,0.9775271415710449,0.1735590398311615,0.5235778093338013,-0.681355893611908,0.9558364748954773,0.6339644193649292,0.6373071074485779,-0.3628823459148407,0.9705760478973389,0.2753051221370697,0.5743463635444641,-1.0518617630004883,0.8948831558227539,0.6515729427337646,0.6795646548271179,-0.4511077404022217,0.949616551399231,0.3179801106452942,0.5864487886428833,-1.159341812133789,0.8733615279197693,0.6380645036697388,0.6780219674110413,-0.5437609553337097,0.9542916417121887,0.32814985513687134,0.5638502240180969,-1.2315715551376343,0.8791753649711609,0.6285519599914551,0.6667772531509399,-0.40392839908599854,0.9554899334907532,0.3132914900779724,0.5571102499961853,-1.0857347249984741,0.8632715940475464,0.48205462098121643,0.6250972151756287,0.07532268762588501,0.997309684753418,0.3077491819858551,0.64433354139328,-0.07491803169250488,0.9975576400756836,0.47803622484207153,0.8231933116912842,0.1889202892780304,0.9566158056259155,0.3401845693588257,0.8576837182044983,0.028520025312900543,0.9665822982788086,0.4776447117328644,0.9581465125083923,0.9262868762016296,0.897188663482666,0.35416078567504883,0.9862499237060547,0.6354267597198486,0.9134343862533569,0.45605432987213135,0.9685959219932556,0.9788651466369629,0.8327949047088623,0.35530444979667664,0.9882933497428894,0.6794283986091614,0.6732619404792786,0.5264912843704224,1.0180119276046753,0.6831385493278503,0.8449953198432922,0.37270286679267883,1.080658197402954,0.2900520861148834,0.8084741234779358
19554.36574171758,0.42817842960357666,0.23415499925613403,-0.9997646808624268,0.9999818801879883,0.4326373040676117,0.21007609367370605,-0.9447401165962219,0.9999599456787109,0.4412248134613037,0.20864468812942505,-0.9448466300964355,0.9999549388885498,0.44887101650238037,0.20745667815208435,-0.9449195861816406,0.9999492168426514,0.4003879427909851,0.2120642066001892,-0.979057788848877,0.9999617338180542,0.38238978385925293,0.21201416850090027,-0.9791887402534485,0.9999583959579468,0.36493322253227234,0.21241283416748047,-0.9793416857719421,0.9999520778656006,0.44168972969055176,0.21493160724639893,-0.5881969332695007,0.9999518394470215,0.31791505217552185,0.22260209918022156,-0.7542808651924133,0.9999629259109497,0.4383847117424011,0.255939245223999,-0.8622695803642273,0.9999887943267822,0.40408745408058167,0.2586411237716675,-0.9094732403755188,0.9999910593032837,0.5215257406234741,0.347947359085083,-0.32839837670326233,0.9999264478683472,0.1678764820098877,0.3679158091545105,-0.599331259727478,0.9997747540473938,0.5694057941436768,0.5091499090194702,-0.08785069733858109,0.9789978861808777,0.17278797924518585,0.5224920511245728,-0.7019973397254944,0.9609943628311157,0.6338536739349365,0.6360320448875427,-0.33281221985816956,0.9752766489982605,0.27713990211486816,0.5747891664505005,-1.0879300832748413,0.9068467617034912,0.6515932679176331,0.678982675075531,-0.41870179772377014,0.9570151567459106,0.3194447159767151,0.5869830846786499,-1.1983433961868286,0.8875189423561096,0.636055588722229,0.6772835850715637,-0.512690007686615,0.9610633850097656,0.3292088508605957,0.5642942786216736,-1.2729161977767944,0.8929383754730225,0.6257799863815308,0.6659332513809204,-0.3742718994617462,0.9616258144378662,0.31438589096069336,0.5578126907348633,-1.123123049736023,0.8778213262557983,0.48260408639907837,0.6245535612106323,0.08412081748247147,0.9975861310958862,0.3084527254104614,0.6448050737380981,-0.08370603621006012,0.9978244304656982,0.47834673523902893,0.8214444518089294,0.19941692054271698,0.9541137218475342,0.34066519141197205,0.8577550649642944,0.02513989433646202,0.9651139974594116,0.47699758410453796,0.95707768201828,0.9257464408874512,0.8912945985794067,0.35301119089126587,0.9869551062583923,0.6274580359458923,0.9087546467781067,0.4532102346420288,0.9680371284484863,0.9774184823036194,0.8347975015640259,0.3523337244987488,0.9891589283943176,0.6706918478012085,0.6729949712753296,0.5289617776870728,1.0178313255310059,0.6837091445922852,0.8421348333358765,0.37650561332702637,1.0820722579956055,0.28051355481147766,0.8002223968505859
19571.032408384246,0.4319566786289215,0.23202583193778992,-0.9014608263969421,0.9999727010726929,0.435695081949234,0.20783770084381104,-0.8483354449272156,0.999944806098938,0.44391316175460815,0.20646986365318298,-0.8484839200973511,0.99993896484375,0.4512605667114258,0.20536038279533386,-0.8486161231994629,0.9999349117279053,0.40372589230537415,0.20977303385734558,-0.8848734498023987,0.9999454021453857,0.3859831690788269,0.2097906470298767,-0.8849450349807739,0.9999386072158813,0.36797407269477844,0.21026691794395447,-0.8850853443145752,0.9999312162399292,0.44256868958473206,0.21365106105804443,-0.5153316855430603,0.9999418258666992,0.31746435165405273,0.22166171669960022,-0.6902053356170654,0.9999467134475708,0.442201167345047,0.25368940830230713,-0.772849440574646,0.9999855756759644,0.4085840582847595,0.25720784068107605,-0.8224978446960449,0.9999876022338867,0.5244044661521912,0.34779947996139526,-0.3004520535469055,0.9999258518218994,0.16345016658306122,0.36863985657691956,-0.5351787805557251,0.9996378421783447,0.5734580755233765,0.506164014339447,-0.07820315659046173,0.9831717014312744,0.167403906583786,0.5252799391746521,-0.630064070224762,0.952166736125946,0.6345916986465454,0.6340271830558777,-0.32713782787323,0.9803091287612915,0.2754155695438385,0.5767022967338562,-0.9997588992118835,0.9006515145301819,0.6525261402130127,0.6769120693206787,-0.42140695452690125,0.9647645950317383,0.3243948519229889,0.5849872827529907,-1.1056408882141113,0.8830172419548035,0.6346409320831299,0.6758012175559998,-0.5099661946296692,0.9681513905525208,0.33383527398109436,0.5608649849891663,-1.1785836219787598,0.8886384963989258,0.6237666606903076,0.6652732491493225,-0.366877019405365,0.9687604308128357,0.3178141117095947,0.5551100969314575,-1.033661961555481,0.8738799691200256,0.48495733737945557,0.6261857151985168,0.06281493604183197,0.9974103569984436,0.3072981536388397,0.6454936265945435,-0.062338341027498245,0.9974180459976196,0.4770973026752472,0.8355031609535217,0.1628168225288391,0.9601313471794128,0.33394408226013184,0.860264003276825,0.04451857879757881,0.9548145532608032,0.48054224252700806,0.9628818035125732,0.9014586210250854,0.8766459226608276,0.3507899045944214,0.9862543344497681,0.639332115650177,0.8721060156822205,0.4617038071155548,0.9701769948005676,0.9551098346710205,0.7884988188743591,0.34905925393104553,0.9870691299438477,0.6832694411277771,0.6046789288520813,0.5255650281906128,1.0276844501495361,0.665431797504425,0.7978283166885376,0.36626169085502625,1.082762360572815,0.30543312430381775,0.731255829334259
19587.699075050914,0.4299030303955078,0.23569923639297485,-0.9964372515678406,0.9999792575836182,0.43391045928001404,0.21142354607582092,-0.9432628750801086,0.9999551773071289,0.44226476550102234,0.2098200023174286,-0.9433832764625549,0.9999494552612305,0.44966939091682434,0.20841118693351746,-0.9434899687767029,0.9999444484710693,0.4017767906188965,0.2137642502784729,-0.9773533344268799,0.9999569654464722,0.38389045000076294,0.213777095079422,-0.9774696826934814,0.999951958656311,0.36595618724823,0.21409615874290466,-0.9776087403297424,0.9999450445175171,0.44153374433517456,0.21539929509162903,-0.5900352597236633,0.9999490976333618,0.3180356025695801,0.22387021780014038,-0.7549428939819336,0.9999574422836304,0.43961355090141296,0.257282018661499,-0.8592121601104736,0.9999873638153076,0.40591108798980713,0.2607942819595337,-0.9061298370361328,0.9999897480010986,0.5215020179748535,0.3474070727825165,-0.3359892666339874,0.9999221563339233,0.1683492511510849,0.3677816092967987,-0.5918574333190918,0.999733030796051,0.5726078152656555,0.5085918307304382,-0.09811706840991974,0.9790408611297607,0.17204730212688446,0.5227775573730469,-0.6887545585632324,0.9532959461212158,0.6350680589675903,0.6368007063865662,-0.33707869052886963,0.9733189940452576,0.27428799867630005,0.5730899572372437,-1.0640385150909424,0.8918554782867432,0.6512725353240967,0.6794267892837524,-0.42330285906791687,0.954025387763977,0.3191581666469574,0.5852661728858948,-1.1724368333816528,0.8724314570426941,0.6372178792953491,0.6776854395866394,-0.5174288749694824,0.9582957625389099,0.32825398445129395,0.5624876022338867,-1.2448838949203491,0.8783593773841858,0.628240168094635,0.6667271256446838,-0.3783379793167114,0.9592466354370117,0.3132234811782837,0.555550754070282,-1.098395586013794,0.861513078212738,0.4837645888328552,0.6247321367263794,0.07971677929162979,0.9974122643470764,0.3092297613620758,0.6442004442214966,-0.07930659502744675,0.9976632595062256,0.48093950748443604,0.8261210918426514,0.2071225792169571,0.9594683647155762,0.3405265510082245,0.8585553765296936,0.03549147769808769,0.9701160192489624,0.4789535701274872,0.9595253467559814,0.9344140887260437,0.9011012315750122,0.357427179813385,0.9891499876976013,0.6277897953987122,0.9214202165603638,0.45710429549217224,0.9700922966003418,0.9862993359565735,0.8442181944847107,0.35804685950279236,0.991147518157959,0.6706863045692444,0.69612056016922,0.530707836151123,1.020920991897583,0.6964347958564758,0.8522120714187622,0.3773020803928375,1.0818119049072266,0.2877380847930908,0.8227433562278748
19604.365741717582,0.42783188819885254,0.23504173755645752,-0.9509899020195007,0.9999734163284302,0.4324977397918701,0.21078431606292725,-0.8984407186508179,0.9999433755874634,0.4412815272808075,0.20910868048667908,-0.8985838890075684,0.9999370574951172,0.4492207467556,0.20762473344802856,-0.8987155556678772,0.999931812286377,0.4001067578792572,0.21334585547447205,-0.9306185841560364,0.9999454021453857,0.3820095956325531,0.21341800689697266,-0.9307186603546143,0.9999390840530396,0.36475086212158203,0.21380096673965454,-0.9308581948280334,0.9999309778213501,0.4428021311759949,0.21516919136047363,-0.5542855858802795,0.9999372959136963,0.3173137307167053,0.22370153665542603,-0.7096999883651733,0.9999462366104126,0.4389053285121918,0.2565065324306488,-0.817626416683197,0.9999842643737793,0.4046463072299957,0.25989097356796265,-0.8616949319839478,0.999987006187439,0.5222800374031067,0.3467617630958557,-0.3130394220352173,0.9999077320098877,0.17142896354198456,0.3671617805957794,-0.5507794618606567,0.9996618032455444,0.5730517506599426,0.5079653263092041,-0.0799851194024086,0.9760313630104065,0.17464196681976318,0.5244109630584717,-0.6345499157905579,0.9453733563423157,0.6346771717071533,0.6348933577537537,-0.3113346993923187,0.9682285189628601,0.273881196975708,0.5732147693634033,-0.9918581247329712,0.8630773425102234,0.6510566473007202,0.6777123212814331,-0.39697277545928955,0.9467127919197083,0.3215925097465515,0.5847444534301758,-1.0943635702133179,0.8410609364509583,0.6360592246055603,0.6761248111724854,-0.4878353774547577,0.9516981244087219,0.32944461703300476,0.5624591708183289,-1.166806697845459,0.848528265953064,0.6270961165428162,0.6652272343635559,-0.35144108533859253,0.9535580277442932,0.31324130296707153,0.5558099150657654,-1.0258996486663818,0.8333513736724854,0.48337259888648987,0.6258793473243713,0.07526935636997223,0.9968796968460083,0.31091779470443726,0.6455257534980774,-0.0748274102807045,0.99714595079422,0.47950297594070435,0.8287522792816162,0.18004009127616882,0.9544752240180969,0.3399437367916107,0.8625852465629578,0.023846223950386047,0.9639126658439636,0.4776637852191925,0.9622585773468018,0.8901684284210205,0.8822108507156372,0.3546849191188812,0.989531934261322,0.5951003432273865,0.9014267325401306,0.45439594984054565,0.9714175462722778,0.9405900239944458,0.809512734413147,0.3547418713569641,0.9908602237701416,0.6358380317687988,0.6509343385696411,0.5273414254188538,1.023594856262207,0.6525346636772156,0.8180606961250305,0.373501718044281,1.0865169763565063,0.2536930739879608,0.7835447192192078
19621.03240838425,0.42520472407341003,0.2384331375360489,-0.9643166065216064,0.9999767541885376,0.43149009346961975,0.21414455771446228,-0.9155818819999695,0.9999499320983887,0.44027796387672424,0.21256980299949646,-0.9156972169876099,0.9999440908432007,0.4483058750629425,0.21113818883895874,-0.9158401489257812,0.9999390840530396,0.3980254828929901,0.2164108157157898,-0.9461286664009094,0.9999505281448364,0.37966734170913696,0.21640601754188538,-0.9462119936943054,0.9999449253082275,0.36241739988327026,0.21661680936813354,-0.9463241696357727,0.9999375343322754,0.4434673488140106,0.21763163805007935,-0.5813379883766174,0.9999420642852783,0.31628233194351196,0.225926011800766,-0.73043292760849,0.999950647354126,0.4355729818344116,0.260048508644104,-0.8334152698516846,0.9999852180480957,0.40081292390823364,0.26328206062316895,-0.8755981922149658,0.9999876022338867,0.5214288234710693,0.34686943888664246,-0.3452949821949005,0.999919056892395,0.16866128146648407,0.3685514032840729,-0.5656442642211914,0.9996603727340698,0.5731161236763,0.5076853036880493,-0.11202739179134369,0.9751570224761963,0.17550835013389587,0.5222381353378296,-0.6485751867294312,0.9408181309700012,0.6325875520706177,0.633451521396637,-0.32707464694976807,0.9665423035621643,0.2820436954498291,0.5751624703407288,-0.9874505400657654,0.846957802772522,0.6508411169052124,0.6761922240257263,-0.4094250500202179,0.9444082379341125,0.3275544345378876,0.5856587886810303,-1.0862339735031128,0.8245323896408081,0.6360206007957458,0.6751020550727844,-0.4989530146121979,0.9495061039924622,0.33700183033943176,0.5628524422645569,-1.1541428565979004,0.8319249749183655,0.6262063384056091,0.6648002862930298,-0.3661000728607178,0.951945960521698,0.323566734790802,0.5565986633300781,-1.0192477703094482,0.8180628418922424,0.48303529620170593,0.6231005787849426,0.06592627614736557,0.9972723126411438,0.31036800146102905,0.6418680548667908,-0.06549081206321716,0.9973158240318298,0.4777316451072693,0.8272479176521301,0.1577509492635727,0.9549984335899353,0.335040420293808,0.8580309748649597,0.02549193799495697,0.9641923904418945,0.47736939787864685,0.9597412347793579,0.8515825867652893,0.8884157538414001,0.35260576009750366,0.9846541881561279,0.5903516411781311,0.9058701992034912,0.4546288847923279,0.9684857130050659,0.9007188081741333,0.8110321760177612,0.353085458278656,0.9871498346328735,0.6312404274940491,0.6600198149681091,0.5287147760391235,1.0216046571731567,0.6177399158477783,0.8174565434455872,0.36263778805732727,1.0777478218078613,0.26033440232276917,0.7847003936767578
19637.699075050918,0.4244541823863983,0.2344619333744049,-0.9535221457481384,0.999957799911499,0.4303284287452698,0.21129879355430603,-0.8938618898391724,0.99991774559021,0.43906283378601074,0.21026024222373962,-0.894058346748352,0.9999089241027832,0.4472539722919464,0.20937111973762512,-0.8942049741744995,0.9999024868011475,0.3975117802619934,0.2121674120426178,-0.9315710663795471,0.9999164342880249,0.38005000352859497,0.21175557374954224,-0.9316701292991638,0.9999047517776489,0.3632829189300537,0.21176975965499878,-0.9318451881408691,0.9998921155929565,0.44080638885498047,0.21660074591636658,-0.5231332182884216,0.9999138116836548,0.317137211561203,0.22187495231628418,-0.703324556350708,0.9999114274978638,0.433361291885376,0.25690555572509766,-0.8112056255340576,0.9999780654907227,0.4000043570995331,0.2585499584674835,-0.8626355528831482,0.9999804496765137,0.5200493335723877,0.3490400016307831,-0.2775580585002899,0.9998974800109863,0.1686503291130066,0.36995136737823486,-0.5248767137527466,0.9994620680809021,0.5710613131523132,0.5078790783882141,-0.048500966280698776,0.9763132929801941,0.1743314564228058,0.5263030529022217,-0.6420639753341675,0.9234187006950378,0.6331512928009033,0.6355137228965759,-0.33823665976524353,0.9672092795372009,0.26772165298461914,0.571882963180542,-1.0942085981369019,0.8475177884101868,0.6507279872894287,0.6767564415931702,-0.43701574206352234,0.9445847868919373,0.3087191581726074,0.5822311639785767,-1.212490200996399,0.8320749998092651,0.6345615386962891,0.6754983067512512,-0.5327418446540833,0.9500709772109985,0.3183791935443878,0.5587865710258484,-1.2866275310516357,0.8401845693588257,0.6242842674255371,0.66501384973526,-0.381686270236969,0.9509108066558838,0.30463480949401855,0.5526694059371948,-1.1305845975875854,0.8161984086036682,0.4855675995349884,0.6282240152359009,0.07439056783914566,0.9969895482063293,0.31061458587646484,0.6470818519592285,-0.07390835881233215,0.9969094395637512,0.47891339659690857,0.8314787149429321,0.13052257895469666,0.9581098556518555,0.3391578793525696,0.866125762462616,0.0004935199394822121,0.9501374959945679,0.47896385192871094,0.9620541334152222,0.9532201886177063,0.8752757906913757,0.3557177782058716,0.9895921349525452,0.6661429405212402,0.8779628872871399,0.45911577343940735,0.9701559543609619,1.0140180587768555,0.7897068858146667,0.35770559310913086,0.9913644194602966,0.7148192524909973,0.5901246070861816,0.5268704891204834,1.022615909576416,0.6954061388969421,0.8122657537460327,0.3731513023376465,1.08658766746521,0.2986304461956024,0.7538498044013977
19654.365741717585,0.4259798228740692,0.23632779717445374,-0.9929938316345215,0.9999557733535767,0.4316960871219635,0.21300536394119263,-0.9396938681602478,0.9999071359634399,0.44059446454048157,0.2117307484149933,-0.9398530721664429,0.9999020099639893,0.4486353099346161,0.2105514109134674,-0.9400162696838379,0.9998942613601685,0.39929601550102234,0.2142854630947113,-0.9731417298316956,0.9999011754989624,0.38180631399154663,0.21401050686836243,-0.9732315540313721,0.9998888969421387,0.3645051121711731,0.21405398845672607,-0.9733892679214478,0.999868631362915,0.4425160884857178,0.21695879101753235,-0.58440762758255,0.9998990297317505,0.31781092286109924,0.2236725389957428,-0.7462081909179688,0.9998946189880371,0.4353567063808441,0.25839677453041077,-0.8544806241989136,0.9999734163284302,0.4024673104286194,0.26041358709335327,-0.900458574295044,0.9999752044677734,0.5221953392028809,0.3462388813495636,-0.3335541784763336,0.9999091625213623,0.17223496735095978,0.3665580451488495,-0.56642746925354,0.9994331002235413,0.5701541900634766,0.5081287622451782,-0.10590692609548569,0.9783037304878235,0.17901721596717834,0.5247162580490112,-0.6420096158981323,0.9219763278961182,0.6308493614196777,0.6364632248878479,-0.3495507538318634,0.9693237543106079,0.28113430738449097,0.5756024718284607,-0.998491108417511,0.7897164821624756,0.650524377822876,0.6792340874671936,-0.4401209354400635,0.946437418460846,0.3256503939628601,0.5864205360412598,-1.101139783859253,0.7651465535163879,0.6352068185806274,0.6777949929237366,-0.5324956178665161,0.9516757726669312,0.3356360197067261,0.5647097826004028,-1.1780757904052734,0.7754878997802734,0.6241458654403687,0.6670829653739929,-0.39065325260162354,0.9527782201766968,0.3221611976623535,0.5592287182807922,-1.0341378450393677,0.760359525680542,0.48549628257751465,0.6242008805274963,0.0696522668004036,0.9964537620544434,0.3099863529205322,0.6415161490440369,-0.06907624751329422,0.9962180256843567,0.4759501814842224,0.8327462673187256,0.13614606857299805,0.947163999080658,0.33775854110717773,0.8571630120277405,0.0031497874297201633,0.9431295990943909,0.47855502367019653,0.9605116248130798,0.8411375880241394,0.8542664051055908,0.3508378267288208,0.9850929379463196,0.5918729305267334,0.8499273061752319,0.45803385972976685,0.9687661528587341,0.8897114992141724,0.7575438022613525,0.34978336095809937,0.9858406186103821,0.6327137351036072,0.5462648272514343,0.5269508361816406,1.0249072313308716,0.5753514766693115,0.7647140026092529,0.3615475296974182,1.085572600364685,0.2265920341014862,0.6927660703659058
19671.032408384253,0.4237598478794098,0.2389581799507141,-0.9835503101348877,0.9999648332595825,0.4319339692592621,0.21490484476089478,-0.9307990074157715,0.9999244213104248,0.44124823808670044,0.2136891782283783,-0.930916965007782,0.9999160766601562,0.449643075466156,0.21264243125915527,-0.9310161471366882,0.9999055862426758,0.3981526792049408,0.21623557806015015,-0.9648372530937195,0.999925971031189,0.38015758991241455,0.21600854396820068,-0.9649383425712585,0.9999198913574219,0.36282166838645935,0.2159898579120636,-0.9651081562042236,0.9999079704284668,0.4458802342414856,0.21937531232833862,-0.5813976526260376,0.999910831451416,0.31574517488479614,0.22495603561401367,-0.745835542678833,0.9999332427978516,0.4332691431045532,0.261478990316391,-0.8478883504867554,0.9999796152114868,0.39879104495048523,0.2635716497898102,-0.8944966197013855,0.9999836683273315,0.5211738348007202,0.34757429361343384,-0.3230344355106354,0.9999016523361206,0.1686452031135559,0.3690330684185028,-0.5895620584487915,0.9996527433395386,0.5721128582954407,0.5090447664260864,-0.07408427447080612,0.9716448187828064,0.17787708342075348,0.5245828032493591,-0.6917797327041626,0.9531535506248474,0.6315112709999084,0.6350343227386475,-0.3036900758743286,0.966156542301178,0.27929916977882385,0.5754421353340149,-1.0673902034759521,0.8809407949447632,0.6528863906860352,0.6771871447563171,-0.38705068826675415,0.9440873861312866,0.32341262698173523,0.5849535465240479,-1.1738075017929077,0.860195517539978,0.63645339012146,0.6764267086982727,-0.47857531905174255,0.9495655298233032,0.3348761796951294,0.5602055788040161,-1.2475579977035522,0.8677783012390137,0.6248694658279419,0.6667699813842773,-0.3444635570049286,0.9518898129463196,0.32069143652915955,0.5539549589157104,-1.1020517349243164,0.8546885848045349,0.4871167242527008,0.6227450966835022,0.08108716458082199,0.9973769187927246,0.31277474761009216,0.6446752548217773,-0.0805472731590271,0.9972962737083435,0.47764691710472107,0.8271568417549133,0.15642452239990234,0.9463979005813599,0.33980292081832886,0.8610991835594177,0.029666272923350334,0.9492266178131104,0.47788354754447937,0.9590433835983276,0.8795199394226074,0.8551368117332458,0.3545866012573242,0.9810653328895569,0.657112181186676,0.8524673581123352,0.45765164494514465,0.9680573344230652,0.9309597015380859,0.7757968902587891,0.35165590047836304,0.9829609990119934,0.7037556171417236,0.5794699192047119,0.5259960889816284,1.0220941305160522,0.6272975206375122,0.7727590203285217,0.3780675530433655,1.0794737339019775,0.3122657835483551,0.697791576385498
19687.69907505092,0.42547282576560974,0.2385162115097046,-0.9214085936546326,0.9999792575836182,0.4327167570590973,0.21483179926872253,-0.8730747699737549,0.9999536275863647,0.4417722523212433,0.2135046422481537,-0.8731720447540283,0.9999488592147827,0.4497925639152527,0.2122856080532074,-0.8732616901397705,0.999943733215332,0.3994086682796478,0.2161511480808258,-0.9051817059516907,0.9999552965164185,0.3817611634731293,0.21577826142311096,-0.905259370803833,0.9999508857727051,0.3646121621131897,0.21564283967018127,-0.905383288860321,0.9999443292617798,0.44413691759109497,0.21848168969154358,-0.5490372776985168,0.999944806098938,0.31707602739334106,0.22460290789604187,-0.7046692967414856,0.9999570846557617,0.4350825250148773,0.2605943977832794,-0.7949206829071045,0.9999872446060181,0.40050292015075684,0.26259809732437134,-0.8389435410499573,0.9999896287918091,0.5222172141075134,0.3473215103149414,-0.32475683093070984,0.9999309778213501,0.16880366206169128,0.3679305613040924,-0.5565742254257202,0.9997424483299255,0.5720033645629883,0.5081804990768433,-0.09353392571210861,0.9784874320030212,0.17248938977718353,0.5185574889183044,-0.6279190182685852,0.9561923146247864,0.6306211948394775,0.6340423822402954,-0.30564919114112854,0.9729342460632324,0.28687939047813416,0.5767900943756104,-0.936418354511261,0.8795099258422852,0.6511582136154175,0.6766436100006104,-0.3890165090560913,0.9537917375564575,0.3351784348487854,0.5881462097167969,-1.0317673683166504,0.8554739356040955,0.6342564821243286,0.6756939888000488,-0.47578108310699463,0.9580099582672119,0.34819820523262024,0.5659583210945129,-1.1025046110153198,0.8617531061172485,0.6227490901947021,0.6656715273857117,-0.3438012897968292,0.9596379399299622,0.3344712257385254,0.5598734021186829,-0.9681703448295593,0.8502454161643982,0.48424720764160156,0.6227812170982361,0.06661685556173325,0.9972350001335144,0.31158724427223206,0.6420103907585144,-0.06611470878124237,0.9973000884056091,0.4779775142669678,0.8254467844963074,0.15601934492588043,0.9531244039535522,0.336611807346344,0.8562742471694946,0.034647002816200256,0.9595211744308472,0.477431058883667,0.9626045227050781,0.8101160526275635,0.8815274238586426,0.3528701663017273,0.9839351177215576,0.5837932229042053,0.8856180906295776,0.45495229959487915,0.9711679816246033,0.8551336526870728,0.7986751198768616,0.35127896070480347,0.9860984683036804,0.6231589317321777,0.6377740502357483,0.5271252393722534,1.0223699808120728,0.5717868804931641,0.8031559586524963,0.36953458189964294,1.0781301259994507,0.2574658691883087,0.7472965121269226
19704.36574171759,0.42356395721435547,0.24012772738933563,-0.9198054075241089,0.9999794960021973,0.4320865571498871,0.21591705083847046,-0.8705891966819763,0.9999548196792603,0.44107723236083984,0.21443095803260803,-0.8706865906715393,0.9999486207962036,0.44907182455062866,0.21311649680137634,-0.8707806468009949,0.9999426603317261,0.39748287200927734,0.21787628531455994,-0.9032981395721436,0.9999581575393677,0.37874069809913635,0.21772778034210205,-0.9033930897712708,0.9999544620513916,0.36149388551712036,0.2176443636417389,-0.9035387635231018,0.9999496936798096,0.4435456395149231,0.21947318315505981,-0.5400557518005371,0.9999462366104126,0.315801739692688,0.22583308815956116,-0.6978607177734375,0.9999628067016602,0.43328365683555603,0.26220375299453735,-0.7906128168106079,0.9999879598617554,0.3981444537639618,0.2643442153930664,-0.8353460431098938,0.999990701675415,0.5229691863059998,0.34894949197769165,-0.3044118881225586,0.9999247789382935,0.16769160330295563,0.3693593740463257,-0.5462248921394348,0.9997730851173401,0.5721651911735535,0.5091336965560913,-0.06459750980138779,0.9770143628120422,0.17473119497299194,0.5229887366294861,-0.6374955773353577,0.9608544111251831,0.6315456628799438,0.6348555684089661,-0.2887716591358185,0.9717526435852051,0.28055331110954285,0.576198399066925,-0.9926949739456177,0.9089486598968506,0.6507374048233032,0.6769569516181946,-0.3717575669288635,0.9525763988494873,0.3225710391998291,0.5884571075439453,-1.092779517173767,0.8900430798530579,0.6343002319335938,0.6761796474456787,-0.45944204926490784,0.9569547772407532,0.3363286852836609,0.5643683075904846,-1.1653492450714111,0.8960156440734863,0.6234533786773682,0.6663975715637207,-0.3276994228363037,0.9588047862052917,0.3225184679031372,0.5574679970741272,-1.0258188247680664,0.8846380710601807,0.48662179708480835,0.6239432096481323,0.06494971364736557,0.997297465801239,0.3117769658565521,0.6449936628341675,-0.06445207446813583,0.9974390268325806,0.4785749614238739,0.8269041776657104,0.127228781580925,0.9561998248100281,0.33802932500839233,0.860431969165802,0.02543661929666996,0.9539855718612671,0.478480726480484,0.9611650109291077,0.8104297518730164,0.8694881796836853,0.3538246154785156,0.9831057190895081,0.5997258424758911,0.8675494194030762,0.45730724930763245,0.9700512886047363,0.8581085205078125,0.7731818556785583,0.3517999053001404,0.9850447177886963,0.6415541172027588,0.6031920909881592,0.5256718397140503,1.0227872133255005,0.5669663548469543,0.7824707627296448,0.3692243695259094,1.0821828842163086,0.26672878861427307,0.7214257121086121
19721.032408384257,0.42488187551498413,0.2381553053855896,-0.9046307802200317,0.9999804496765137,0.43287909030914307,0.2139476239681244,-0.8571603894233704,0.9999567270278931,0.4418871998786926,0.21247616410255432,-0.8572509288787842,0.9999504089355469,0.4499453604221344,0.21131137013435364,-0.8573281168937683,0.9999443292617798,0.3984338343143463,0.21602001786231995,-0.8882374167442322,0.9999606609344482,0.37995675206184387,0.2160630226135254,-0.8883193135261536,0.9999570846557617,0.36275583505630493,0.21633169054985046,-0.8884689807891846,0.9999527931213379,0.44431039690971375,0.21826580166816711,-0.5350005030632019,0.9999465942382812,0.31698358058929443,0.22520118951797485,-0.6861584782600403,0.9999650716781616,0.4350990056991577,0.2602287828922272,-0.7786752581596375,0.9999879598617554,0.39964595437049866,0.2624937891960144,-0.8214472532272339,0.9999912977218628,0.5234217643737793,0.34832537174224854,-0.30748409032821655,0.9999234676361084,0.1705625057220459,0.366788387298584,-0.5361770987510681,0.9998006224632263,0.5719748735427856,0.5089818239212036,-0.06802017241716385,0.9766947031021118,0.17149098217487335,0.5215864777565002,-0.623217761516571,0.9631345272064209,0.6320931315422058,0.6339346170425415,-0.2821270227432251,0.9730861783027649,0.278546541929245,0.5765466690063477,-0.9676200747489929,0.9140934348106384,0.6511542797088623,0.6764530539512634,-0.3639451563358307,0.9548158049583435,0.3206002712249756,0.5889934301376343,-1.0652656555175781,0.8944312930107117,0.63407301902771,0.6753562688827515,-0.4514934718608856,0.959010660648346,0.3340534567832947,0.5650246739387512,-1.136479377746582,0.8999607563018799,0.6231120824813843,0.6659842729568481,-0.32071033120155334,0.9607928991317749,0.31958967447280884,0.5582111477851868,-0.9999638795852661,0.8895196318626404,0.487175852060318,0.622306764125824,0.06202031299471855,0.9973875880241394,0.31335920095443726,0.6432076096534729,-0.06152701377868652,0.9976950287818909,0.4791799485683441,0.8259507417678833,0.14469726383686066,0.9580017328262329,0.33905234932899475,0.8618853688240051,0.0339847207069397,0.9592523574829102,0.47782525420188904,0.9602620601654053,0.8207119107246399,0.8764848709106445,0.35369622707366943,0.9846705794334412,0.5923020839691162,0.8804983496665955,0.45662498474121094,0.9699262976646423,0.868183434009552,0.7876787185668945,0.35229986906051636,0.9868229627609253,0.6331026554107666,0.6281372308731079,0.526201069355011,1.0221437215805054,0.5856894254684448,0.7926568388938904,0.36667561531066895,1.0795400142669678,0.2666190266609192,0.7403243780136108
19737.699075050925,0.42358359694480896,0.23954524099826813,-0.970589816570282,0.9999696016311646,0.4319017231464386,0.2149660587310791,-0.9211640357971191,0.9999340772628784,0.4411490559577942,0.2134753167629242,-0.9212794303894043,0.9999251365661621,0.4495236277580261,0.2122597098350525,-0.9213741421699524,0.9999148845672607,0.3969648480415344,0.21717554330825806,-0.9527378082275391,0.99993896484375,0.3782429099082947,0.21728265285491943,-0.9528319835662842,0.9999339580535889,0.361002653837204,0.21758493781089783,-0.9530138969421387,0.999925971031189,0.4450533092021942,0.21915248036384583,-0.5810024738311768,0.9999220371246338,0.315225750207901,0.22692963480949402,-0.7336813807487488,0.9999480247497559,0.4341195821762085,0.2619311809539795,-0.8373141288757324,0.9999823570251465,0.3983345031738281,0.2642116844654083,-0.8805603384971619,0.9999866485595703,0.5229878425598145,0.3491709232330322,-0.32332301139831543,0.9999061822891235,0.17103059589862823,0.36899542808532715,-0.5744526386260986,0.9997462630271912,0.5728468894958496,0.5101901292800903,-0.0704963356256485,0.9728684425354004,0.17509818077087402,0.5240527987480164,-0.6689738631248474,0.9585944414138794,0.6295883655548096,0.6341855525970459,-0.2950790822505951,0.9675837755203247,0.27915164828300476,0.5765336155891418,-1.0420119762420654,0.9036023616790771,0.65016770362854,0.6764929890632629,-0.3777124583721161,0.9468816518783569,0.320427805185318,0.5875133275985718,-1.1460480690002441,0.8850676417350769,0.6342195868492126,0.6756795048713684,-0.46759137511253357,0.9519187808036804,0.33269572257995605,0.5627845525741577,-1.221213698387146,0.8915486335754395,0.6230888366699219,0.6660454273223877,-0.33470451831817627,0.9540930986404419,0.3190115690231323,0.5562546253204346,-1.0765689611434937,0.879623532295227,0.48616066575050354,0.6243141889572144,0.07210490107536316,0.9973536729812622,0.311615914106369,0.6454499959945679,-0.07159098982810974,0.9975599050521851,0.4778830409049988,0.8308000564575195,0.16824427247047424,0.9505741596221924,0.34103766083717346,0.8609949350357056,0.038194384425878525,0.9533641338348389,0.47740158438682556,0.9595034122467041,0.8809845447540283,0.8576085567474365,0.35411536693573,0.9831159710884094,0.6337648034095764,0.8616946935653687,0.45568713545799255,0.9684547781944275,0.9317287802696228,0.7785977721214294,0.35287928581237793,0.9842926263809204,0.6780609488487244,0.6000969409942627,0.5276556611061096,1.0196149349212646,0.6384255886077881,0.768894612789154,0.3699754774570465,1.082237720489502,0.29686614871025085,0.708946168422699
19754.365741717593,0.4268842935562134,0.2380094677209854,-0.9289523959159851,0.9999816417694092,0.4334005117416382,0.21355661749839783,-0.8825856447219849,0.9999597072601318,0.44223061203956604,0.21218904852867126,-0.8826538920402527,0.9999535083770752,0.45031699538230896,0.21110719442367554,-0.8827144503593445,0.999948263168335,0.3991507291793823,0.21542274951934814,-0.9145152568817139,0.9999635219573975,0.38098040223121643,0.21539226174354553,-0.914625346660614,0.9999606609344482,0.363582581281662,0.21578481793403625,-0.914773166179657,0.9999568462371826,0.4441491663455963,0.21832957863807678,-0.5650511384010315,0.9999494552612305,0.3161419928073883,0.22610098123550415,-0.7203416228294373,0.9999678134918213,0.43722930550575256,0.26017916202545166,-0.8047729730606079,0.9999886751174927,0.40157049894332886,0.2626338601112366,-0.848626971244812,0.9999918937683105,0.5225403308868408,0.34843599796295166,-0.33054885268211365,0.9999227523803711,0.16750288009643555,0.3683571219444275,-0.58359694480896,0.9998185038566589,0.5709169507026672,0.5099267363548279,-0.0903969258069992,0.9780343174934387,0.17072714865207672,0.5251041650772095,-0.6696727871894836,0.9704861640930176,0.6304957866668701,0.6335012316703796,-0.2934144139289856,0.9769036173820496,0.2826900780200958,0.5780712366104126,-0.992999255657196,0.9262365698814392,0.6500765085220337,0.6765784621238708,-0.37264543771743774,0.9600914716720581,0.3283140957355499,0.588587760925293,-1.089882731437683,0.9073482751846313,0.6336348056793213,0.675654411315918,-0.4592304825782776,0.9636912941932678,0.3398064970970154,0.5650163888931274,-1.1594219207763672,0.9119717478752136,0.6227320432662964,0.6660899519920349,-0.3311085104942322,0.9650691747665405,0.3256472051143646,0.5584244728088379,-1.0242185592651367,0.9025459885597229,0.4834125339984894,0.621911346912384,0.07540041208267212,0.9972986578941345,0.31152957677841187,0.6423191428184509,-0.07493821531534195,0.9977651834487915,0.4772634506225586,0.8255783319473267,0.1812947541475296,0.9474455714225769,0.3390499949455261,0.858440101146698,0.03069903887808323,0.9618939757347107,0.47538384795188904,0.9573895335197449,0.8395652174949646,0.8626097440719604,0.35204389691352844,0.9814156889915466,0.5716677904129028,0.8834469318389893,0.4528869390487671,0.9676952362060547,0.8860753774642944,0.7967124581336975,0.3469083309173584,0.9841182231903076,0.6111940741539001,0.6422961950302124,0.5281299948692322,1.0183900594711304,0.618587076663971,0.7858476638793945,0.3739072382450104,1.0773845911026,0.2520809471607208,0.7388580441474915
19771.03240838426,0.4276762008666992,0.23927900195121765,-0.8472872376441956,0.999976396560669,0.43461573123931885,0.21509703993797302,-0.8018322587013245,0.9999485015869141,0.4433494508266449,0.21361809968948364,-0.8019279837608337,0.999941349029541,0.4513727128505707,0.21236789226531982,-0.80203777551651,0.9999366998672485,0.4004300832748413,0.21700990200042725,-0.8345898389816284,0.9999525547027588,0.38225483894348145,0.21696344017982483,-0.8346638083457947,0.9999475479125977,0.36472150683403015,0.21721917390823364,-0.8348034024238586,0.999942421913147,0.4444262385368347,0.21887081861495972,-0.4932720363140106,0.999940037727356,0.3173545300960541,0.2266184389591217,-0.6511178612709045,0.9999562501907349,0.4374231994152069,0.2613195776939392,-0.7258555889129639,0.9999861717224121,0.40206480026245117,0.2637443542480469,-0.7705652713775635,0.9999892711639404,0.5240889191627502,0.347780704498291,-0.2804935574531555,0.9999196529388428,0.16895341873168945,0.3681871294975281,-0.5164543390274048,0.9997480511665344,0.5728849172592163,0.5092549324035645,-0.05039190128445625,0.9767879247665405,0.17218343913555145,0.5206025838851929,-0.6005433201789856,0.9567105174064636,0.6331348419189453,0.6353148818016052,-0.24705064296722412,0.9734642505645752,0.28100788593292236,0.5758894085884094,-0.9153978228569031,0.89918053150177,0.6532890796661377,0.6773415207862854,-0.32517901062965393,0.9554275274276733,0.3220677673816681,0.5893147587776184,-1.0070810317993164,0.8802738785743713,0.6377492547035217,0.6765950322151184,-0.4088538587093353,0.9594910740852356,0.3361336588859558,0.565117597579956,-1.0766366720199585,0.8864498734474182,0.6277601718902588,0.6670370101928711,-0.2836565673351288,0.9614611268043518,0.322833389043808,0.5582315921783447,-0.9467000365257263,0.8762691020965576,0.48539772629737854,0.6233682036399841,0.06446489691734314,0.9971569776535034,0.31214264035224915,0.6439284682273865,-0.06401655077934265,0.9973894953727722,0.4781931936740875,0.827462375164032,0.12739872932434082,0.9545667171478271,0.3375580906867981,0.8605908751487732,0.02364194393157959,0.9550196528434753,0.4782520532608032,0.9591682553291321,0.7850889563560486,0.862331211566925,0.3535534143447876,0.9826374053955078,0.5636101365089417,0.8694815039634705,0.4552324712276459,0.9687784910202026,0.831563413143158,0.7651689648628235,0.35092875361442566,0.9843328595161438,0.6031378507614136,0.6042150259017944,0.5275594592094421,1.0223617553710938,0.5616113543510437,0.7716049551963806,0.3672468364238739,1.0794613361358643,0.24891427159309387,0.7217740416526794
19787.69907505093,0.43132665753364563,0.23622673749923706,-0.9364396333694458,0.999962329864502,0.43603429198265076,0.21220752596855164,-0.8829368948936462,0.9999216794967651,0.44435763359069824,0.21069279313087463,-0.8830935955047607,0.9999144077301025,0.4516656696796417,0.20938441157341003,-0.8832438588142395,0.9999078512191772,0.4037024974822998,0.21438145637512207,-0.9201476573944092,0.9999203681945801,0.38561615347862244,0.2144254744052887,-0.9202466011047363,0.9999120235443115,0.3678068220615387,0.21481847763061523,-0.9203988313674927,0.9998981952667236,0.44337329268455505,0.2164609730243683,-0.5351444482803345,0.9999171495437622,0.319976806640625,0.22479289770126343,-0.712810754776001,0.9999212026596069,0.44085070490837097,0.25785812735557556,-0.8010508418083191,0.9999784231185913,0.4072124660015106,0.26115739345550537,-0.8516204357147217,0.9999805688858032,0.5190074443817139,0.3472423553466797,-0.28752943873405457,0.9999104738235474,0.16967283189296722,0.3698248267173767,-0.5590015053749084,0.9995319843292236,0.5686854124069214,0.5091878175735474,-0.04342593625187874,0.974351167678833,0.18109306693077087,0.5281150937080383,-0.6645313501358032,0.9336464405059814,0.6316022276878357,0.6348945498466492,-0.2712928354740143,0.9686356782913208,0.28044137358665466,0.5731936097145081,-1.0429052114486694,0.8491819500923157,0.6502710580825806,0.6776570081710815,-0.3544149100780487,0.9475075006484985,0.327299028635025,0.5825388431549072,-1.1491690874099731,0.8315691947937012,0.6355046033859253,0.6765955090522766,-0.4458899199962616,0.9527034163475037,0.3328072428703308,0.5605902075767517,-1.2215923070907593,0.8398277759552002,0.6253660917282104,0.6663052439689636,-0.31171032786369324,0.9542553424835205,0.31798532605171204,0.5549677610397339,-1.0773245096206665,0.8215042352676392,0.4838971197605133,0.6264128088951111,0.07928846776485443,0.9972437620162964,0.3108079433441162,0.6452081203460693,-0.07884389162063599,0.9970049262046814,0.4776725172996521,0.8325656652450562,0.14404717087745667,0.954594612121582,0.337680846452713,0.8624013662338257,0.01079178974032402,0.9513587951660156,0.4781162738800049,0.96226966381073,0.8954968452453613,0.8731299042701721,0.35571664571762085,0.9861230850219727,0.6290851831436157,0.8770875334739685,0.4562307596206665,0.9704268574714661,0.9499256014823914,0.7887629866600037,0.35421857237815857,0.9879864454269409,0.6743758320808411,0.5992002487182617,0.5296919345855713,1.021775484085083,0.6507910490036011,0.8000773787498474,0.374082088470459,1.0863770246505737,0.28191226720809937,0.7448980212211609
19804.365741717596,0.43103960156440735,0.23831024765968323,-0.9313800930976868,0.9999608993530273,0.4365454316139221,0.21445703506469727,-0.8800044059753418,0.9999203681945801,0.44457927346229553,0.21288836002349854,-0.8801777362823486,0.999915599822998,0.4519595205783844,0.21151572465896606,-0.8803724050521851,0.9999104738235474,0.4041244387626648,0.2168118953704834,-0.9152242541313171,0.9999134540557861,0.38644087314605713,0.21679067611694336,-0.9153034090995789,0.9999023675918579,0.36829280853271484,0.21687468886375427,-0.9154260754585266,0.9998841285705566,0.44239526987075806,0.21798807382583618,-0.5379046201705933,0.9999186992645264,0.31975656747817993,0.2256939709186554,-0.7069387435913086,0.9999055862426758,0.43888893723487854,0.26031190156936646,-0.7971506714820862,0.9999774694442749,0.4053298234939575,0.263438880443573,-0.845289409160614,0.9999778270721436,0.5189007520675659,0.3484674394130707,-0.308829665184021,0.9999215602874756,0.16655173897743225,0.3695472478866577,-0.5374670624732971,0.999427318572998,0.5707265734672546,0.5091123580932617,-0.0887683853507042,0.9764871001243591,0.18038533627986908,0.5259934067726135,-0.6139983534812927,0.9029012322425842,0.6342567801475525,0.6361731886863708,-0.3193202316761017,0.9658198356628418,0.2816559374332428,0.5745312571525574,-0.9551845192909241,0.7748480439186096,0.6503728628158569,0.6783784627914429,-0.40552520751953125,0.9424629211425781,0.3207165002822876,0.5843982696533203,-1.053632140159607,0.7603246569633484,0.6376265287399292,0.6769133806228638,-0.49479764699935913,0.9482657313346863,0.33024197816848755,0.5614352226257324,-1.128395915031433,0.7716802954673767,0.6292040348052979,0.6663638353347778,-0.35889866948127747,0.9501218795776367,0.3185681998729706,0.556053102016449,-0.990278422832489,0.7562385201454163,0.4839595854282379,0.6247430443763733,0.06856328994035721,0.9968420267105103,0.30985844135284424,0.6439910531044006,-0.06810380518436432,0.9963669776916504,0.47680628299713135,0.8343138694763184,0.1339929848909378,0.9535818696022034,0.3424115777015686,0.8615257740020752,0.007115317042917013,0.9511005282402039,0.48105600476264954,0.961830198764801,0.852085292339325,0.8774491548538208,0.35538220405578613,0.9838564395904541,0.59454345703125,0.8802274465560913,0.4618111252784729,0.9702364206314087,0.9030089974403381,0.7801626920700073,0.3536885976791382,0.9839332699775696,0.6368663311004639,0.5978612303733826,0.5330687761306763,1.0251188278198242,0.6085590720176697,0.7976479530334473,0.36442938446998596,1.0812236070632935,0.2554478347301483,0.7477110624313354
19821.032408384264,0.43184858560562134,0.23305466771125793,-0.8630509376525879,0.9999732971191406,0.4369547367095947,0.20906922221183777,-0.8073314428329468,0.9999481439590454,0.4453991949558258,0.2078535258769989,-0.8074939250946045,0.9999428987503052,0.4528501331806183,0.20681574940681458,-0.8076274991035461,0.9999393224716187,0.4055987000465393,0.2107493281364441,-0.8461105227470398,0.9999465942382812,0.3878910541534424,0.21070942282676697,-0.846166729927063,0.9999396800994873,0.37015870213508606,0.21107670664787292,-0.8462888598442078,0.9999305009841919,0.44390082359313965,0.21493619680404663,-0.46972185373306274,0.9999475479125977,0.31994903087615967,0.2217179834842682,-0.6552610993385315,0.9999440908432007,0.4406527578830719,0.25528407096862793,-0.7336599826812744,0.9999860525131226,0.4077334702014923,0.25797200202941895,-0.7864044308662415,0.9999876022338867,0.5222588181495667,0.3493422567844391,-0.26029476523399353,0.9999276399612427,0.17009571194648743,0.37044182419776917,-0.5014050602912903,0.9995303153991699,0.5715500712394714,0.5100586414337158,-0.024378813803195953,0.9801207184791565,0.17207321524620056,0.5263786911964417,-0.6152587532997131,0.9305701851844788,0.6342143416404724,0.6359782814979553,-0.2609066069126129,0.9771446585655212,0.2752646505832672,0.5722103118896484,-1.014419436454773,0.8634203672409058,0.651018500328064,0.6779710054397583,-0.34989964962005615,0.9607512950897217,0.3205395042896271,0.5821171402931213,-1.1218304634094238,0.8495307564735413,0.6367710828781128,0.6769230961799622,-0.4396771788597107,0.9647630453109741,0.3273196816444397,0.5603818297386169,-1.1909863948822021,0.8568974733352661,0.6276346445083618,0.6665849089622498,-0.300794392824173,0.9656600952148438,0.3123047947883606,0.5543001890182495,-1.047904372215271,0.8394438624382019,0.48509979248046875,0.6295851469039917,0.06787997484207153,0.9977411031723022,0.3127191960811615,0.6471948027610779,-0.06738335639238358,0.9975778460502625,0.48090243339538574,0.835050106048584,0.1410938948392868,0.9639725685119629,0.3408815860748291,0.8638779520988464,0.023870697245001793,0.9564647674560547,0.4807210862636566,0.9606272578239441,0.9224013090133667,0.8860836625099182,0.3536039888858795,0.9864063262939453,0.647583544254303,0.8861217498779297,0.46041226387023926,0.9679092764854431,0.9804037809371948,0.7937319278717041,0.3537628948688507,0.9872757792472839,0.6942614912986755,0.6206099987030029,0.5274852514266968,1.0232981443405151,0.6909047365188599,0.8112812042236328,0.3672488331794739,1.0816049575805664,0.3148442208766937,0.7566102743148804
19837.699075050932,0.42980319261550903,0.23441344499588013,-0.9242584109306335,0.9999643564224243,0.4344477355480194,0.21006715297698975,-0.8708409667015076,0.9999279975891113,0.4432394206523895,0.20861315727233887,-0.8710020780563354,0.9999232292175293,0.4511515498161316,0.2073459029197693,-0.8711508512496948,0.9999164342880249,0.4018450379371643,0.21221235394477844,-0.9058761596679688,0.9999243021011353,0.3833836615085602,0.2123054563999176,-0.9059552550315857,0.9999164342880249,0.3655911386013031,0.21276214718818665,-0.906075119972229,0.9999009370803833,0.4433545470237732,0.21510520577430725,-0.5298164486885071,0.9999240636825562,0.3162170648574829,0.22301903367042542,-0.6983197331428528,0.9999217987060547,0.4401405155658722,0.256243497133255,-0.7923038005828857,0.9999791383743286,0.4060969352722168,0.25930190086364746,-0.8400817513465881,0.9999806880950928,0.5210332870483398,0.34765389561653137,-0.30074238777160645,0.9999088048934937,0.16688472032546997,0.3701692819595337,-0.5420109629631042,0.9994756579399109,0.5685524940490723,0.5104354619979858,-0.06377279758453369,0.9723355174064636,0.18046216666698456,0.5269507765769958,-0.6342601776123047,0.916563093662262,0.6326484680175781,0.6362265944480896,-0.29048535227775574,0.9636225700378418,0.2821277379989624,0.5745952725410461,-0.9925745129585266,0.7990818619728088,0.6518495082855225,0.6773752570152283,-0.37419334053993225,0.9411492347717285,0.3244541585445404,0.5860541462898254,-1.0954365730285645,0.7845731377601624,0.6370141506195068,0.6767632961273193,-0.4649994373321533,0.94701087474823,0.33321037888526917,0.5628119707107544,-1.1652169227600098,0.7943015098571777,0.6264069080352783,0.6673616766929626,-0.33066272735595703,0.9495821595191956,0.32013851404190063,0.5562348961830139,-1.026159644126892,0.7787590026855469,0.4834204316139221,0.6275259852409363,0.07510503381490707,0.9973005652427673,0.31046971678733826,0.6465772986412048,-0.07462035119533539,0.9971133470535278,0.48058152198791504,0.8325652480125427,0.17902246117591858,0.9529438018798828,0.34081247448921204,0.8637145757675171,0.03446487709879875,0.9588508009910583,0.48109379410743713,0.9611584544181824,0.9233698844909668,0.8778894543647766,0.3539867103099823,0.9850572347640991,0.6403509974479675,0.8907719850540161,0.46011582016944885,0.9689169526100159,0.9777418375015259,0.7930917143821716,0.35124048590660095,0.9867509603500366,0.6853134632110596,0.6299762725830078,0.5333505272865295,1.0232107639312744,0.6917863488197327,0.8038897514343262,0.3710238039493561,1.0815290212631226,0.3093956708908081,0.7607458829879761
19854.3657417176,0.42927947640419006,0.23235446214675903,-0.8132351636886597,0.9999707937240601,0.434583455324173,0.2081088423728943,-0.7609598636627197,0.9999403953552246,0.4434795379638672,0.20681554079055786,-0.7610976696014404,0.999935507774353,0.45155400037765503,0.20571067929267883,-0.7612084746360779,0.9999306201934814,0.4014507830142975,0.20991000533103943,-0.7970516681671143,0.9999412298202515,0.38311317563056946,0.2098899483680725,-0.7971123456954956,0.999936580657959,0.3657030463218689,0.21039578318595886,-0.7972325086593628,0.999927282333374,0.4446070194244385,0.21409666538238525,-0.4396015405654907,0.9999330043792725,0.31597626209259033,0.22142484784126282,-0.6126636862754822,0.9999408721923828,0.4399459660053253,0.2546572685241699,-0.6892131567001343,0.9999819993972778,0.4052162170410156,0.257272332906723,-0.7383096218109131,0.999984622001648,0.5218576192855835,0.3475427031517029,-0.24026620388031006,0.9999128580093384,0.16510134935379028,0.3706485331058502,-0.47685644030570984,0.999491810798645,0.5681307315826416,0.5087698698043823,-0.002151395659893751,0.9729024171829224,0.17835868895053864,0.5269827246665955,-0.5816918611526489,0.9291535019874573,0.6299065351486206,0.6331337690353394,-0.2014428675174713,0.9674930572509766,0.28170907497406006,0.5742562413215637,-0.9332378506660461,0.8261444568634033,0.6488109827041626,0.675973653793335,-0.2795394957065582,0.9472399353981018,0.3339557349681854,0.586192786693573,-1.0302680730819702,0.8080788254737854,0.6346701383590698,0.6755262613296509,-0.36306649446487427,0.9522427320480347,0.34107738733291626,0.5637177228927612,-1.0957461595535278,0.8165028095245361,0.6238166689872742,0.6661339402198792,-0.23797626793384552,0.9543040990829468,0.32522645592689514,0.5568617582321167,-0.9642221331596375,0.8024562001228333,0.4862583577632904,0.6268879771232605,0.061038803309202194,0.9977843165397644,0.31119751930236816,0.646849513053894,-0.060549020767211914,0.9974114298820496,0.4807860255241394,0.8324925899505615,0.11517243832349777,0.9629858136177063,0.34125879406929016,0.8645706176757812,0.045789677649736404,0.9518464803695679,0.4805724620819092,0.9617778658866882,0.8166384100914001,0.8912384510040283,0.3512856960296631,0.9836211204528809,0.6395536065101624,0.8755708336830139,0.45987963676452637,0.9696956872940063,0.8669743537902832,0.7876880168914795,0.3487987220287323,0.9852277040481567,0.6839331388473511,0.6065115332603455,0.5250458717346191,1.0278891324996948,0.5797172784805298,0.8106680512428284,0.36854851245880127,1.0794897079467773,0.31911951303482056,0.7393513917922974
19871.032408384268,0.4299578368663788,0.23272258043289185,-0.9943810701370239,0.9999847412109375,0.43655118346214294,0.20935919880867004,-0.9376187324523926,0.9999691247940063,0.44533705711364746,0.20827922224998474,-0.9377023577690125,0.9999665021896362,0.45337480306625366,0.20728015899658203,-0.9377135038375854,0.9999624490737915,0.40302371978759766,0.21054980158805847,-0.975680410861969,0.9999680519104004,0.3846825957298279,0.21020808815956116,-0.9757437705993652,0.999964714050293,0.3661017119884491,0.21008479595184326,-0.975814700126648,0.9999572038650513,0.44647085666656494,0.2152223289012909,-0.5929478406906128,0.9999611377716064,0.3155447840690613,0.22041937708854675,-0.77762770652771,0.9999644756317139,0.43822991847991943,0.25612133741378784,-0.8637404441833496,0.9999895095825195,0.40390798449516296,0.25851622223854065,-0.9159001708030701,0.9999909400939941,0.5239207744598389,0.350209504365921,-0.3728126287460327,0.9999315738677979,0.16429580748081207,0.3719199299812317,-0.6285132765769958,0.9996340274810791,0.5688735842704773,0.5096320509910583,-0.1508435308933258,0.9787611961364746,0.17637470364570618,0.5308910012245178,-0.738871693611145,0.9441717267036438,0.6321731805801392,0.6356599926948547,-0.4011208117008209,0.9781277179718018,0.2904697060585022,0.5757936835289001,-1.102787733078003,0.8631311058998108,0.6515598297119141,0.6772492527961731,-0.49177390336990356,0.9614543914794922,0.3420765697956085,0.5866309404373169,-1.2129156589508057,0.8436334133148193,0.6351941823959351,0.6768054366111755,-0.5853702425956726,0.9653587937355042,0.354245662689209,0.5653783082962036,-1.2791416645050049,0.8502238988876343,0.6237813234329224,0.6674844622612,-0.4434286057949066,0.9666836261749268,0.3394474685192108,0.5591618418693542,-1.1351696252822876,0.8370401263237,0.48704156279563904,0.6266032457351685,0.07913430780172348,0.9981303811073303,0.3129700720310211,0.6459873914718628,-0.07865740358829498,0.9981474876403809,0.4769168794155121,0.8304761052131653,0.27337467670440674,0.9599429368972778,0.33743545413017273,0.8557819724082947,0.09070638567209244,0.9722857475280762,0.47930583357810974,0.9536420106887817,1.002657175064087,0.9151449203491211,0.34835755825042725,0.9832005500793457,0.7019652724266052,0.9247416257858276,0.4587676525115967,0.9663503170013428,1.0551661252975464,0.8598571419715881,0.3442544937133789,0.9859273433685303,0.7471763491630554,0.7230828404426575,0.5349341630935669,1.0181905031204224,0.7707743644714355,0.8665096759796143,0.3719598352909088,1.07161545753479,0.3775043487548828,0.8210492730140686
19887.699075050936,0.43254441022872925,0.23535200953483582,-0.9333557486534119,0.9999756813049316,0.43663445115089417,0.21231970191001892,-0.880709171295166,0.99994957447052,0.4448355734348297,0.21098768711090088,-0.8808203339576721,0.9999444484710693,0.4521816670894623,0.20977908372879028,-0.8809227347373962,0.9999390840530396,0.4044726490974426,0.21390974521636963,-0.9169220924377441,0.9999507665634155,0.38725578784942627,0.21372273564338684,-0.9169918894767761,0.9999454021453857,0.368765264749527,0.2137940227985382,-0.9171018004417419,0.9999361038208008,0.44299793243408203,0.21669164299964905,-0.5434439778327942,0.9999393224716187,0.31916144490242004,0.2234610915184021,-0.7193061113357544,0.9999499320983887,0.4413754940032959,0.2568451166152954,-0.8031410574913025,0.9999843835830688,0.40881475806236267,0.25998327136039734,-0.8528825640678406,0.9999868869781494,0.5213285088539124,0.3466167151927948,-0.3174811005592346,0.9999185800552368,0.1689179688692093,0.37030041217803955,-0.5684722065925598,0.9996217489242554,0.5716455578804016,0.5096521973609924,-0.07530973851680756,0.9776477813720703,0.1790485680103302,0.5257831811904907,-0.658622145652771,0.9462819695472717,0.6315906643867493,0.634168267250061,-0.28969642519950867,0.9748750925064087,0.2883777916431427,0.576298177242279,-0.9921002388000488,0.8611441254615784,0.6508769989013672,0.6758646368980408,-0.3726072311401367,0.9565520882606506,0.34060174226760864,0.5848842263221741,-1.0923717021942139,0.8395698070526123,0.6337382197380066,0.6751614212989807,-0.4623539447784424,0.9607865214347839,0.35226547718048096,0.5636483430862427,-1.1611392498016357,0.846393883228302,0.622063159942627,0.6658702492713928,-0.3290835916996002,0.9621788263320923,0.33707618713378906,0.5580602884292603,-1.0239006280899048,0.8316356539726257,0.48915570974349976,0.6238654255867004,0.07417523115873337,0.9975371360778809,0.315864235162735,0.6458547711372375,-0.07367003709077835,0.997503936290741,0.47762414813041687,0.8267346024513245,0.19100207090377808,0.9492877125740051,0.33789747953414917,0.8621891736984253,0.04062751680612564,0.9587839841842651,0.4748205244541168,0.9559734463691711,0.8883908987045288,0.8750818371772766,0.34965628385543823,0.9826353788375854,0.6184849739074707,0.8897015452384949,0.45202818512916565,0.9673290252685547,0.9382790923118591,0.8185895681381226,0.347160279750824,0.98524010181427,0.6607134938240051,0.6487919092178345,0.5271266102790833,1.0193781852722168,0.6602689027786255,0.805029034614563,0.36639153957366943,1.075709342956543,0.29115739464759827,0.7554802298545837
19904.365741717604,0.4317615330219269,0.2344943881034851,-0.915435791015625,0.9999686479568481,0.43713417649269104,0.2105828821659088,-0.8603596091270447,0.9999380111694336,0.44535255432128906,0.2093294858932495,-0.8605127930641174,0.999933123588562,0.4530869424343109,0.208167165517807,-0.8606070280075073,0.9999277591705322,0.40435001254081726,0.21227344870567322,-0.8987113833427429,0.9999356269836426,0.38632825016975403,0.2121148407459259,-0.8987800478935242,0.9999291896820068,0.3677486479282379,0.2121318280696869,-0.8989062905311584,0.9999165534973145,0.44421541690826416,0.21600615978240967,-0.5200389623641968,0.9999345541000366,0.3179440498352051,0.22223219275474548,-0.703158974647522,0.9999336004257202,0.4393405020236969,0.257668137550354,-0.7847280502319336,0.9999825954437256,0.4053546190261841,0.2604508697986603,-0.8366551995277405,0.9999842643737793,0.5230666399002075,0.3489779829978943,-0.30194157361984253,0.9999209642410278,0.16723398864269257,0.37217244505882263,-0.5515825152397156,0.9994292855262756,0.5695013403892517,0.5099258422851562,-0.05679822713136673,0.9751821160316467,0.1847468465566635,0.5321899056434631,-0.6630315780639648,0.9258540272712708,0.6318917274475098,0.6338844895362854,-0.2820473909378052,0.9720755815505981,0.28536462783813477,0.5757048726081848,-1.0473278760910034,0.8347456455230713,0.6510090231895447,0.675870954990387,-0.3683190941810608,0.9538364410400391,0.3389964699745178,0.584434986114502,-1.1552250385284424,0.8202369809150696,0.6344281435012817,0.6750297546386719,-0.45750272274017334,0.958437442779541,0.3468305170536041,0.5621367692947388,-1.2250398397445679,0.8287346363067627,0.6235978603363037,0.6655444502830505,-0.321437269449234,0.9600145220756531,0.3313790559768677,0.5564337372779846,-1.081138014793396,0.8126481771469116,0.49037066102027893,0.6291514039039612,0.06794621050357819,0.9980227947235107,0.313924640417099,0.6491294503211975,-0.06744357943534851,0.9975850582122803,0.4772888123989105,0.8355331420898438,0.18198524415493011,0.9611353874206543,0.33867210149765015,0.8633420467376709,0.08192130923271179,0.9522063136100769,0.48074063658714294,0.9600082039833069,0.9434342384338379,0.8914020657539368,0.35042229294776917,0.9849395751953125,0.7240524888038635,0.8773176670074463,0.46205610036849976,0.9689710736274719,0.9997085928916931,0.8016282320022583,0.34886834025382996,0.9872356057167053,0.7732589840888977,0.6271376013755798,0.5253491401672363,1.0257740020751953,0.7053977847099304,0.8196489810943604,0.37330934405326843,1.0813682079315186,0.3989887237548828,0.7458310723304749
19921.03240838427,0.4353758692741394,0.23425093293190002,-0.9608134031295776,0.9999802112579346,0.4392213225364685,0.21090930700302124,-0.9025623798370361,0.9999575614929199,0.4470396935939789,0.20965245366096497,-0.9026589393615723,0.9999523162841797,0.4541308283805847,0.2084411382675171,-0.9026610851287842,0.999946117401123,0.4075627326965332,0.2124122977256775,-0.9432560801506042,0.9999593496322632,0.3909134268760681,0.21214953064918518,-0.9433210492134094,0.999955415725708,0.37162524461746216,0.21219339966773987,-0.9434110522270203,0.9999476671218872,0.44294747710227966,0.21540799736976624,-0.5554128885269165,0.9999421834945679,0.3193947374820709,0.22245454788208008,-0.7513584494590759,0.999957799911499,0.4425482451915741,0.2564579248428345,-0.8296186327934265,0.9999864101409912,0.4100402593612671,0.25969037413597107,-0.8850703835487366,0.99998939037323,0.5237301588058472,0.3492835760116577,-0.33018195629119873,0.9999228715896606,0.16688576340675354,0.3724431097507477,-0.6116076707839966,0.9997114539146423,0.5701521635055542,0.5091761350631714,-0.10210700333118439,0.978488028049469,0.1751786768436432,0.5284658670425415,-0.719561755657196,0.9631950259208679,0.6307404041290283,0.6353610754013062,-0.36440449953079224,0.9793405532836914,0.28223055601119995,0.5785712599754333,-1.085992693901062,0.9163632392883301,0.6506694555282593,0.6772861480712891,-0.4564692974090576,0.9627985954284668,0.33010387420654297,0.5870438814163208,-1.1988515853881836,0.8972809910774231,0.6342297792434692,0.6767672896385193,-0.5504871010780334,0.9665738344192505,0.3413338363170624,0.5640721321105957,-1.2684955596923828,0.9024567604064941,0.6224960088729858,0.6677387952804565,-0.4076184034347534,0.9677616357803345,0.32577481865882874,0.5581261515617371,-1.119376540184021,0.8897565007209778,0.4851157069206238,0.6258188486099243,0.08667661249637604,0.9982472658157349,0.3106640875339508,0.6480598449707031,-0.08622556924819946,0.9983355402946472,0.4797841012477875,0.8278962969779968,0.2848578691482544,0.9598353505134583,0.3372490406036377,0.8565016388893127,0.08728610724210739,0.9730825424194336,0.48163390159606934,0.9526480436325073,1.0367741584777832,0.9074709415435791,0.3484351336956024,0.9834483861923218,0.7170312404632568,0.9233239889144897,0.4604036509990692,0.9661325812339783,1.0918298959732056,0.8584265112876892,0.34854480624198914,0.9875125288963318,0.7643665075302124,0.7272530198097229,0.5369981527328491,1.0200015306472778,0.8101990818977356,0.8621710538864136,0.3762306571006775,1.069054126739502,0.3922730088233948,0.8249152898788452
19937.69907505094,0.4335993826389313,0.23420560359954834,-0.9571112394332886,0.9999697208404541,0.43733763694763184,0.2111894190311432,-0.900824785232544,0.999937891960144,0.4454871714115143,0.20987054705619812,-0.9009605050086975,0.9999300241470337,0.4527817666530609,0.20865070819854736,-0.9010139107704163,0.9999219179153442,0.40462160110473633,0.21248158812522888,-0.9381179809570312,0.9999407529830933,0.38732659816741943,0.21203908324241638,-0.9382086396217346,0.9999344348907471,0.3682985305786133,0.21187832951545715,-0.9383111000061035,0.9999243021011353,0.44200536608695984,0.21511417627334595,-0.5584173798561096,0.9999202489852905,0.3179231584072113,0.22149798274040222,-0.7378534078598022,0.9999415874481201,0.44179967045783997,0.25534605979919434,-0.8270046710968018,0.9999804496765137,0.40875035524368286,0.25856199860572815,-0.8776780962944031,0.9999841451644897,0.522467315196991,0.34781527519226074,-0.3328820765018463,0.9998903274536133,0.168073832988739,0.371307373046875,-0.5980606079101562,0.9996641874313354,0.5686556100845337,0.5093057155609131,-0.11114238202571869,0.9724472165107727,0.17900411784648895,0.5296041369438171,-0.6868332624435425,0.9568471312522888,0.6290963888168335,0.6336344480514526,-0.3633873462677002,0.9688559770584106,0.28179749846458435,0.5771375894546509,-1.031985878944397,0.898894190788269,0.6500568389892578,0.6760782599449158,-0.45306646823883057,0.9472185373306274,0.3311445116996765,0.5852673053741455,-1.1403865814208984,0.8795315623283386,0.634447455406189,0.6758245229721069,-0.5447296500205994,0.9521857500076294,0.33945080637931824,0.5624294877052307,-1.211222529411316,0.8855016827583313,0.6223409175872803,0.6666446924209595,-0.4052404463291168,0.9548376798629761,0.3233277201652527,0.5565240979194641,-1.0657920837402344,0.8721032738685608,0.48506855964660645,0.6258697509765625,0.08261997252702713,0.997829258441925,0.3109194040298462,0.6457324624061584,-0.08218063414096832,0.9979883432388306,0.4791264235973358,0.8274553418159485,0.28509360551834106,0.9485183358192444,0.33791738748550415,0.8555822372436523,0.09497944265604019,0.9690342545509338,0.4791647791862488,0.955744206905365,1.0142987966537476,0.887747049331665,0.3497193157672882,0.9823105335235596,0.705409824848175,0.9129820466041565,0.4563964903354645,0.9675266742706299,1.0674725770950317,0.8486949801445007,0.34671035408973694,0.98666912317276,0.7513172030448914,0.7125621438026428,0.5363287329673767,1.0200010538101196,0.7945865392684937,0.8386009931564331,0.3721298575401306,1.0716475248336792,0.38647621870040894,0.8054060339927673
19954.365741717607,0.43330147862434387,0.23651286959648132,-0.9756492972373962,0.9999836683273315,0.4380595088005066,0.21312040090560913,-0.9237729907035828,0.9999632835388184,0.44609346985816956,0.21183642745018005,-0.9238382577896118,0.9999579191207886,0.4531993269920349,0.21062207221984863,-0.9238253235816956,0.9999516010284424,0.40599799156188965,0.21446546912193298,-0.9591677784919739,0.9999663829803467,0.3894690275192261,0.2141222059726715,-0.9592487215995789,0.9999631643295288,0.37057211995124817,0.21405291557312012,-0.9593373537063599,0.9999569654464722,0.4432264566421509,0.21663710474967957,-0.5891520977020264,0.9999469518661499,0.3201149106025696,0.22277706861495972,-0.7624432444572449,0.9999661445617676,0.4411652088165283,0.25735485553741455,-0.8473635315895081,0.9999873638153076,0.40858572721481323,0.2605532109737396,-0.8962451815605164,0.9999904632568359,0.5226600766181946,0.3485235869884491,-0.3602221608161926,0.999925971031189,0.1673835664987564,0.3679640293121338,-0.6173479557037354,0.9998236298561096,0.5685436129570007,0.5114392638206482,-0.12584087252616882,0.9761625528335571,0.1742127239704132,0.5223323106765747,-0.7076963186264038,0.9670211672782898,0.6303621530532837,0.633289098739624,-0.35564538836479187,0.9776495099067688,0.2813936173915863,0.5812675356864929,-1.0410503149032593,0.9189752340316772,0.65103679895401,0.6761525273323059,-0.43711531162261963,0.9607982039451599,0.32511666417121887,0.5908335447311401,-1.1448367834091187,0.8989991545677185,0.6363357305526733,0.675933301448822,-0.5327221751213074,0.9645519256591797,0.3381674289703369,0.5682557821273804,-1.2170382738113403,0.9040101170539856,0.6248022317886353,0.666807234287262,-0.39820289611816406,0.9661721587181091,0.32348114252090454,0.5620438456535339,-1.0750236511230469,0.8942533731460571,0.4859969913959503,0.6251501441001892,0.07721108943223953,0.9982590079307556,0.3111627399921417,0.6449530720710754,-0.07676766067743301,0.9985613226890564,0.4797312617301941,0.8238742351531982,0.2969649136066437,0.9598509669303894,0.33707955479621887,0.853690505027771,0.10046760737895966,0.9787761569023132,0.4799889028072357,0.9542841911315918,0.9662438631057739,0.9181297421455383,0.35010841488838196,0.9826047420501709,0.6670887470245361,0.9397226572036743,0.4576069116592407,0.9689798951148987,1.013166904449463,0.8800113797187805,0.35015323758125305,0.9871084690093994,0.7083328366279602,0.7704145312309265,0.5400626063346863,1.0209741592407227,0.7456621527671814,0.8778432011604309,0.36280593276023865,1.0694690942764282,0.3544974625110626,0.8542376756668091
19971.032408384275,0.4326932430267334,0.23199990391731262,-0.9859127402305603,0.999968409538269,0.43697643280029297,0.20841535925865173,-0.9278903603553772,0.9999369382858276,0.44489455223083496,0.20708337426185608,-0.9280321002006531,0.9999303817749023,0.45240965485572815,0.205911785364151,-0.9281010627746582,0.9999228715896606,0.4043770432472229,0.21027669310569763,-0.9645858407020569,0.999936580657959,0.3867810368537903,0.21025675535202026,-0.9646986722946167,0.9999294281005859,0.36819151043891907,0.21054458618164062,-0.9648639559745789,0.9999183416366577,0.4425278306007385,0.21373844146728516,-0.5722983479499817,0.9999265670776367,0.3185224235057831,0.22143036127090454,-0.7491776347160339,0.9999345541000366,0.440320760011673,0.25503915548324585,-0.8508719205856323,0.999981164932251,0.4068315327167511,0.25805434584617615,-0.9009636044502258,0.9999840259552002,0.5260457992553711,0.3500754237174988,-0.3326702117919922,0.9998937845230103,0.1702699214220047,0.37002938985824585,-0.5968726277351379,0.999581515789032,0.5693426132202148,0.5128601789474487,-0.10265955328941345,0.9748868346214294,0.17577581107616425,0.5255996584892273,-0.7180154323577881,0.948432207107544,0.6313825845718384,0.6357616186141968,-0.3628581166267395,0.9735739231109619,0.27940797805786133,0.575558066368103,-1.126603126525879,0.8832492828369141,0.6519414186477661,0.6779928207397461,-0.4546331465244293,0.9547224640846252,0.32660746574401855,0.5857146978378296,-1.2414982318878174,0.8642300367355347,0.6364257335662842,0.6771647334098816,-0.5490586757659912,0.9590826630592346,0.336142361164093,0.5632709860801697,-1.3126461505889893,0.8707300424575806,0.6248520612716675,0.6677016615867615,-0.4053500294685364,0.9603593945503235,0.3203239440917969,0.5570273399353027,-1.1614339351654053,0.8554778695106506,0.4863014221191406,0.6284918785095215,0.0811643898487091,0.9974886178970337,0.3108177185058594,0.648222804069519,-0.08066504448652267,0.9976819753646851,0.4805091619491577,0.8303841352462769,0.22114510834217072,0.9542002081871033,0.33869922161102295,0.8634973168373108,0.05416112020611763,0.9616010785102844,0.4830699861049652,0.9573277235031128,0.9983947277069092,0.8836541175842285,0.3512742519378662,0.9873789548873901,0.6985296607017517,0.8933360576629639,0.46298813819885254,0.9661725163459778,1.0555626153945923,0.8221627473831177,0.3475402295589447,0.988387405872345,0.7464756369590759,0.6421394944190979,0.5346712470054626,1.0253962278366089,0.7583091855049133,0.8262090086936951,0.3764468729496002,1.0846328735351562,0.3515039086341858,0.7670141458511353
19987.699075050943,0.4322766661643982,0.23376071453094482,-1.007778286933899,0.9999754428863525,0.43830379843711853,0.21018922328948975,-0.9512094259262085,0.999950647354126,0.44667550921440125,0.20894625782966614,-0.9513428211212158,0.9999457597732544,0.454231321811676,0.20774981379508972,-0.9514142274856567,0.9999401569366455,0.4049127697944641,0.21178403496742249,-0.9892877340316772,0.9999512434005737,0.3870561420917511,0.21157649159431458,-0.989416241645813,0.9999457597732544,0.3679248094558716,0.21155738830566406,-0.9895508289337158,0.9999372959136963,0.4453534185886383,0.21484097838401794,-0.5973719954490662,0.9999397993087769,0.3174533247947693,0.22164598107337952,-0.7809691429138184,0.9999496936798096,0.4401036202907562,0.2567268908023834,-0.8724508881568909,0.9999841451644897,0.4057554006576538,0.25939711928367615,-0.9244887828826904,0.9999872446060181,0.524983286857605,0.35001340508461,-0.3570824861526489,0.9998996257781982,0.16529680788516998,0.37215566635131836,-0.6288679838180542,0.9996022582054138,0.5680181980133057,0.5126237869262695,-0.12900382280349731,0.9751362800598145,0.1827625185251236,0.5313257575035095,-0.7339856028556824,0.9498591423034668,0.6330176591873169,0.6378204226493835,-0.3844817280769348,0.973402202129364,0.2865588963031769,0.5781416296958923,-1.1044493913650513,0.8791822791099548,0.6508529782295227,0.678615927696228,-0.47606584429740906,0.9545755982398987,0.3427906334400177,0.5854941606521606,-1.2168935537338257,0.8594205379486084,0.6360008120536804,0.6778579354286194,-0.571089506149292,0.9589428901672363,0.3499234616756439,0.5637878179550171,-1.2847440242767334,0.8659796714782715,0.6253628730773926,0.6685869097709656,-0.4273611307144165,0.9603453278541565,0.3329339027404785,0.558334469795227,-1.1371949911117554,0.8502984046936035,0.48501962423324585,0.6280372142791748,0.08688812702894211,0.9969891905784607,0.3114301860332489,0.6475441455841064,-0.08643331378698349,0.9972690939903259,0.48056355118751526,0.8303360939025879,0.27015769481658936,0.9527300596237183,0.3402906358242035,0.8661158084869385,0.06419283896684647,0.9670765995979309,0.48294398188591003,0.9561532735824585,1.0199089050292969,0.8857718110084534,0.3520069122314453,0.9908450841903687,0.6742831468582153,0.9064638614654541,0.46190959215164185,0.9660031795501709,1.0750532150268555,0.8273147940635681,0.3491957187652588,0.9911695718765259,0.7194706201553345,0.6679711937904358,0.5352796316146851,1.0222405195236206,0.7894448637962341,0.8342582583427429,0.3871786892414093,1.0869427919387817,0.33191588521003723,0.7879346013069153
20004.36574171761,0.4323733448982239,0.2341862916946411,-0.9942640066146851,0.999982476234436,0.43795982003211975,0.21081596612930298,-0.9372581839561462,0.9999628067016602,0.4461077153682709,0.2096482217311859,-0.9373481273651123,0.999958872795105,0.45350053906440735,0.20850643515586853,-0.9373590350151062,0.9999537467956543,0.40552547574043274,0.2122282087802887,-0.9713346362113953,0.9999637603759766,0.3881874084472656,0.2119620144367218,-0.9714109301567078,0.9999595880508423,0.36918947100639343,0.21192440390586853,-0.9714747071266174,0.9999518394470215,0.4438876509666443,0.21522274613380432,-0.595405638217926,0.9999487400054932,0.3189067840576172,0.22142964601516724,-0.7629342675209045,0.9999591112136841,0.43969130516052246,0.2568168044090271,-0.8658429980278015,0.9999861717224121,0.40660029649734497,0.25937896966934204,-0.9130778908729553,0.9999884366989136,0.526237964630127,0.35070061683654785,-0.3848196268081665,0.9999113082885742,0.16898874938488007,0.3700226843357086,-0.6060844659805298,0.9996778964996338,0.5719252228736877,0.5112922191619873,-0.16927826404571533,0.9788008332252502,0.1733170449733734,0.5236061811447144,-0.7029387950897217,0.9533425569534302,0.6305927038192749,0.6355212330818176,-0.4113004207611084,0.9789345860481262,0.28047215938568115,0.5772305727005005,-1.061847448348999,0.8916221857070923,0.6510595679283142,0.677804708480835,-0.4999934732913971,0.9620979428291321,0.32859551906585693,0.58742755651474,-1.170014500617981,0.8697336316108704,0.634183406829834,0.6774501204490662,-0.5956979393959045,0.9655874967575073,0.34101808071136475,0.565361738204956,-1.240300178527832,0.8751766681671143,0.6219710111618042,0.6680694222450256,-0.45395761728286743,0.9667461514472961,0.32598677277565,0.558877170085907,-1.096166729927063,0.8633859753608704,0.4844627380371094,0.6261759400367737,0.06670494377613068,0.9983446598052979,0.31108808517456055,0.6461828351020813,-0.06629853695631027,0.998512327671051,0.4776902496814728,0.8278316855430603,0.30797895789146423,0.9670612215995789,0.3374709486961365,0.8531011939048767,0.1297987401485443,0.9806473255157471,0.48129725456237793,0.9582158923149109,0.9813793301582336,0.9345672130584717,0.3484160006046295,0.983268141746521,0.7134295105934143,0.9463575482368469,0.4597793519496918,0.9719566106796265,1.0272961854934692,0.887153148651123,0.34955471754074097,0.9883972406387329,0.7551513910293579,0.7712394595146179,0.5364844799041748,1.023803472518921,0.7426505088806152,0.8969916105270386,0.35290759801864624,1.0665415525436401,0.3921908140182495,0.8700925707817078
20021.03240838428,0.43625810742378235,0.2336200773715973,-0.971407413482666,0.9999780654907227,0.43976300954818726,0.21034985780715942,-0.9137386679649353,0.9999551773071289,0.44723138213157654,0.20914232730865479,-0.9138407707214355,0.9999508857727051,0.4542054235935211,0.2079710066318512,-0.9138708710670471,0.9999454021453857,0.40838539600372314,0.2121080458164215,-0.953484296798706,0.999956488609314,0.39172330498695374,0.2119835615158081,-0.9535706043243408,0.9999517202377319,0.3724347651004791,0.21214157342910767,-0.9536740183830261,0.9999418258666992,0.4418954849243164,0.21495026350021362,-0.5667527914047241,0.9999451637268066,0.3209418058395386,0.2221566140651703,-0.7588454484939575,0.9999525547027588,0.4426572620868683,0.2559131979942322,-0.8400961756706238,0.999984860420227,0.4107344448566437,0.25930583477020264,-0.8945072293281555,0.999987006187439,0.5233856439590454,0.3494316041469574,-0.3461761176586151,0.9999113082885742,0.16678449511528015,0.3719794750213623,-0.6144639253616333,0.9996064305305481,0.5698496103286743,0.5099007487297058,-0.11490475386381149,0.9785735011100769,0.17566828429698944,0.5255587100982666,-0.7367193698883057,0.9514529705047607,0.6289989948272705,0.6349508762359619,-0.35029053688049316,0.9788534045219421,0.2805785536766052,0.57562655210495,-1.1131128072738647,0.8868483304977417,0.6498127579689026,0.6768798828125,-0.4368547201156616,0.9622008204460144,0.3284590542316437,0.5851267576217651,-1.223305583000183,0.8679209351539612,0.6341042518615723,0.6765789985656738,-0.5292302966117859,0.965852677822113,0.3383415639400482,0.5629900097846985,-1.2936773300170898,0.8737008571624756,0.6219855546951294,0.6674969792366028,-0.3913484215736389,0.9669299721717834,0.3231326937675476,0.55638587474823,-1.147337555885315,0.8593539595603943,0.48357972502708435,0.6284765601158142,0.07898544520139694,0.9980483055114746,0.3095856010913849,0.6479513645172119,-0.07854851335287094,0.9981437921524048,0.47905561327934265,0.8286111950874329,0.28179746866226196,0.9605104923248291,0.3384706377983093,0.8566835522651672,0.09782789647579193,0.9714235663414001,0.48220258951187134,0.9583427309989929,1.0010225772857666,0.913178563117981,0.3521158993244171,0.9858428835868835,0.7042873501777649,0.9242553114891052,0.4605575501918793,0.9704333543777466,1.0524675846099854,0.8661997318267822,0.350943922996521,0.9882035851478577,0.7487897872924805,0.7234407663345337,0.5382266044616699,1.024078369140625,0.7702541947364807,0.8677279353141785,0.36953940987586975,1.076084017753601,0.3769763708114624,0.8247793316841125
20037.699075050947,0.42863625288009644,0.2335369884967804,-0.9396424293518066,0.9999654293060303,0.4362682104110718,0.20979776978492737,-0.8825815320014954,0.9999299049377441,0.4453049600124359,0.2087346613407135,-0.8827253580093384,0.9999252557754517,0.4534359872341156,0.2077586054801941,-0.8828281760215759,0.9999173879623413,0.402395635843277,0.2113005518913269,-0.9214252829551697,0.999925971031189,0.38366174697875977,0.21149611473083496,-0.921490490436554,0.9999181032180786,0.36527201533317566,0.21181130409240723,-0.9216280579566956,0.9999008178710938,0.447270005941391,0.21497878432273865,-0.5291515588760376,0.999922513961792,0.3175738453865051,0.22161659598350525,-0.715686023235321,0.9999208450317383,0.43739715218544006,0.2568875551223755,-0.8040501475334167,0.9999799728393555,0.40261173248291016,0.2587774991989136,-0.8569992184638977,0.999981164932251,0.5233665108680725,0.3488619029521942,-0.29396122694015503,0.9999184608459473,0.17147144675254822,0.3702108860015869,-0.5591946244239807,0.9994366765022278,0.5674352049827576,0.5093457102775574,-0.04664798080921173,0.9739195704460144,0.18145553767681122,0.528497040271759,-0.6775205731391907,0.922692596912384,0.6305851936340332,0.634908139705658,-0.28488096594810486,0.9699127078056335,0.2871456742286682,0.5727965831756592,-1.075797438621521,0.8182021975517273,0.6499767899513245,0.676490843296051,-0.3712139129638672,0.9498282670974731,0.3362572193145752,0.5827329158782959,-1.1865249872207642,0.8020874261856079,0.6348740458488464,0.6758516430854797,-0.4640638828277588,0.9549832344055176,0.3471854031085968,0.5611345171928406,-1.2576377391815186,0.8108476996421814,0.623582661151886,0.6662963032722473,-0.3263642191886902,0.9565971493721008,0.33203840255737305,0.5550710558891296,-1.1105599403381348,0.7936832308769226,0.489998459815979,0.6281734704971313,0.07574852555990219,0.9980483055114746,0.3142267167568207,0.6481596231460571,-0.07518036663532257,0.9976112842559814,0.47772160172462463,0.8326046466827393,0.15369804203510284,0.9579972624778748,0.33680757880210876,0.8602908253669739,0.047140542417764664,0.9504736661911011,0.4795682728290558,0.9568988084793091,0.926682710647583,0.882387101650238,0.3494718074798584,0.9841728806495667,0.7146008014678955,0.8735598921775818,0.4597055912017822,0.9670178294181824,0.98312908411026,0.799010157585144,0.3488927483558655,0.9865440130233765,0.7646092176437378,0.6079975366592407,0.5296218395233154,1.0245561599731445,0.6747927069664001,0.8102462291717529,0.3684232532978058,1.0810123682022095,0.37022683024406433,0.7378608584403992
20054.365741717615,0.4306442439556122,0.23349380493164062,-1.0653010606765747,0.9999843835830688,0.4368106424808502,0.21002662181854248,-1.0097192525863647,0.9999672174453735,0.44531527161598206,0.20881956815719604,-1.00978422164917,0.9999641180038452,0.45324045419692993,0.20770081877708435,-1.0098094940185547,0.9999591112136841,0.40349018573760986,0.21140044927597046,-1.0473166704177856,0.9999672174453735,0.3850678503513336,0.21115997433662415,-1.0474162101745605,0.9999645948410034,0.36676734685897827,0.21112501621246338,-1.0475000143051147,0.9999579191207886,0.4448176920413971,0.21487250924110413,-0.6575340628623962,0.9999589920043945,0.3169437348842621,0.22124820947647095,-0.839342474937439,0.9999661445617676,0.4388355016708374,0.25664255023002625,-0.9306350350379944,0.9999889135360718,0.40415987372398376,0.2590903639793396,-0.982112467288971,0.9999908208847046,0.5260659456253052,0.35007017850875854,-0.4098552465438843,0.9999209642410278,0.16464388370513916,0.37267452478408813,-0.6815885901451111,0.9996607303619385,0.570702075958252,0.5120301246643066,-0.16966703534126282,0.9780910015106201,0.1812298446893692,0.5298904180526733,-0.7904913425445557,0.9556680917739868,0.6336241960525513,0.6369951963424683,-0.4099292457103729,0.9754276871681213,0.291281521320343,0.5780724883079529,-1.1590888500213623,0.8907107710838318,0.6520564556121826,0.6786155104637146,-0.4967818558216095,0.9562520384788513,0.34614863991737366,0.5857532620429993,-1.2718992233276367,0.8695499897003174,0.6365410089492798,0.6778557300567627,-0.5915558934211731,0.9605215191841125,0.3540857434272766,0.5653651356697083,-1.3384939432144165,0.8755872845649719,0.6257128715515137,0.6684629917144775,-0.4523371756076813,0.9621715545654297,0.3377930521965027,0.5600507259368896,-1.1915509700775146,0.86150062084198,0.48298805952072144,0.62452632188797,0.07968192547559738,0.998066246509552,0.3100203275680542,0.6441308856010437,-0.07924418151378632,0.9981417655944824,0.47995588183403015,0.8274236917495728,0.27859652042388916,0.9641494154930115,0.33939510583877563,0.853712260723114,0.09132153540849686,0.9744239449501038,0.48168694972991943,0.9528297781944275,1.0203851461410522,0.9196898341178894,0.3498455584049225,0.9834886193275452,0.7140011787414551,0.9296271800994873,0.4617788791656494,0.9640804529190063,1.0737895965576172,0.8591670393943787,0.349145770072937,0.9857139587402344,0.7603793144226074,0.7247347235679626,0.5330438017845154,1.0215322971343994,0.7806352972984314,0.8714326620101929,0.37577271461486816,1.0727965831756592,0.38031479716300964,0.8303457498550415
20071.032408384282,0.43719395995140076,0.2336428165435791,-0.9894740581512451,0.9999754428863525,0.4400174915790558,0.21057993173599243,-0.9347655773162842,0.9999513626098633,0.44776320457458496,0.209318608045578,-0.9348788857460022,0.9999467134475708,0.45474931597709656,0.2081894874572754,-0.9349722862243652,0.9999427795410156,0.40822622179985046,0.212011456489563,-0.975487232208252,0.9999493360519409,0.3915587365627289,0.21166393160820007,-0.9755721688270569,0.9999428987503052,0.37194687128067017,0.2115783393383026,-0.9756680727005005,0.9999332427978516,0.4424060881137848,0.21563470363616943,-0.5893345475196838,0.9999428987503052,0.3187502920627594,0.22216957807540894,-0.7859693765640259,0.9999440908432007,0.44390401244163513,0.2557610273361206,-0.8565547466278076,0.9999847412109375,0.41181954741477966,0.25929370522499084,-0.9123823046684265,0.9999866485595703,0.5249742269515991,0.3494117856025696,-0.3649955093860626,0.9999247789382935,0.1663488894701004,0.3712847828865051,-0.6284290552139282,0.9995556473731995,0.5687519311904907,0.5111197829246521,-0.139998659491539,0.9769704341888428,0.176477313041687,0.5273087620735168,-0.732128381729126,0.9392088651657104,0.6341501474380493,0.639320433139801,-0.38861918449401855,0.9736512303352356,0.28767094016075134,0.5770034790039062,-1.0866035223007202,0.8505842089653015,0.6501773595809937,0.6799094676971436,-0.48016637563705444,0.9539982676506042,0.34012070298194885,0.5855191946029663,-1.1967520713806152,0.8307079076766968,0.6343319416046143,0.6794277429580688,-0.5739970803260803,0.9585716128349304,0.35060861706733704,0.5645541548728943,-1.2612370252609253,0.8373631834983826,0.6240853071212769,0.6699485182762146,-0.43098124861717224,0.9600362777709961,0.3357706367969513,0.5584954023361206,-1.1180121898651123,0.8190181851387024,0.4862617254257202,0.6258893609046936,0.07813413441181183,0.9979506134986877,0.3115370273590088,0.6448107957839966,-0.07767342776060104,0.997793436050415,0.47888365387916565,0.8320345878601074,0.23852264881134033,0.9556566476821899,0.3395908772945404,0.856520414352417,0.07086125761270523,0.9658766984939575,0.47996068000793457,0.9545599818229675,1.012931227684021,0.8931832909584045,0.34959250688552856,0.9830081462860107,0.7109694480895996,0.9087861776351929,0.45918217301368713,0.9652276039123535,1.0710184574127197,0.8304581642150879,0.3466237187385559,0.9854062795639038,0.7599076628684998,0.6706419587135315,0.5336277484893799,1.0196373462677002,0.7870411276817322,0.8424703478813171,0.37404873967170715,1.0734833478927612,0.3849651515483856,0.7975088357925415
20087.69907505095,0.4307173788547516,0.23226481676101685,-0.9988290667533875,0.9999786615371704,0.4363612234592438,0.20879638195037842,-0.9419266581535339,0.9999569654464722,0.4451529383659363,0.20750203728675842,-0.9420660138130188,0.9999533891677856,0.4528869390487671,0.20624664425849915,-0.9421352744102478,0.9999487400054932,0.40231165289878845,0.21068081259727478,-0.9763504862785339,0.9999557733535767,0.3839055001735687,0.21082186698913574,-0.976436197757721,0.9999490976333618,0.36509451270103455,0.21105879545211792,-0.9765203595161438,0.9999383687973022,0.4457145631313324,0.21363726258277893,-0.5929951667785645,0.9999455213546753,0.31684398651123047,0.22081822156906128,-0.7618850469589233,0.999947190284729,0.4401557445526123,0.25458189845085144,-0.8665420413017273,0.9999845027923584,0.40572986006736755,0.257712185382843,-0.9141696095466614,0.9999861717224121,0.5247426629066467,0.34873589873313904,-0.37781819701194763,0.9999083280563354,0.166608065366745,0.3707543611526489,-0.5989733338356018,0.999536395072937,0.5667611360549927,0.5087238550186157,-0.16934731602668762,0.9802355766296387,0.1763903796672821,0.5274921655654907,-0.6867488622665405,0.9389554262161255,0.6313353776931763,0.635750949382782,-0.424471914768219,0.980079710483551,0.2844739258289337,0.5737754106521606,-1.0409808158874512,0.8547019958496094,0.6513329744338989,0.6776849031448364,-0.5191522240638733,0.9640358686447144,0.3265589773654938,0.5851171612739563,-1.1492996215820312,0.8330628275871277,0.635046124458313,0.6778320670127869,-0.6140657067298889,0.9674378633499146,0.3400505781173706,0.5655241012573242,-1.21993887424469,0.8402852416038513,0.6229228973388672,0.6680855751037598,-0.46692636609077454,0.9682685136795044,0.327964723110199,0.5593318939208984,-1.075140118598938,0.8278912305831909,0.4832685887813568,0.6289529204368591,0.07020890712738037,0.9973528385162354,0.3099689185619354,0.6476374268531799,-0.06974209100008011,0.9975370168685913,0.477770060300827,0.8327202796936035,0.2838273346424103,0.9558841586112976,0.3373402953147888,0.8609139919281006,0.10532408952713013,0.970452606678009,0.48182764649391174,0.9579721093177795,1.0040384531021118,0.8992558121681213,0.34904876351356506,0.9886037111282349,0.7062559723854065,0.9180500507354736,0.4604990482330322,0.9708018898963928,1.0557438135147095,0.852816641330719,0.34928569197654724,0.9917094111442566,0.7500306963920593,0.7052590847015381,0.5349564552307129,1.0237098932266235,0.7753114104270935,0.8470667600631714,0.3634383976459503,1.0802018642425537,0.3736918866634369,0.805932879447937
20104.36574171762,0.43200039863586426,0.2336796522140503,-1.0233253240585327,0.9999690055847168,0.4395062327384949,0.20890578627586365,-0.9667134284973145,0.999932050704956,0.44822558760643005,0.20766955614089966,-0.9668245911598206,0.9999278783798218,0.4559572637081146,0.2064293920993805,-0.9668828248977661,0.9999195337295532,0.4060324430465698,0.21099454164505005,-1.003873348236084,0.9999287128448486,0.3881433606147766,0.2114010453224182,-1.0039613246917725,0.9999216794967651,0.3689112067222595,0.2118954062461853,-1.0040640830993652,0.9999041557312012,0.4481969177722931,0.2129543423652649,-0.6097864508628845,0.9999117851257324,0.32015174627304077,0.22137609124183655,-0.7901887893676758,0.9999189376831055,0.4397871196269989,0.2565429210662842,-0.8866508603096008,0.9999780654907227,0.40578001737594604,0.2591010630130768,-0.937786877155304,0.9999806880950928,0.5239450931549072,0.3475962281227112,-0.36518993973731995,0.9999122619628906,0.16860364377498627,0.3689393699169159,-0.6325255632400513,0.9995076656341553,0.5692709684371948,0.5072947144508362,-0.1319863498210907,0.9764801263809204,0.17765432596206665,0.5251574516296387,-0.7247275710105896,0.9425533413887024,0.6295186281204224,0.6365412473678589,-0.36863282322883606,0.9736912250518799,0.2880482077598572,0.5746152400970459,-1.0660488605499268,0.8372087478637695,0.6497689485549927,0.6784579157829285,-0.45464691519737244,0.9532435536384583,0.33180955052375793,0.5856537222862244,-1.1736642122268677,0.8100214600563049,0.6352862119674683,0.6786038875579834,-0.5481460690498352,0.9577355980873108,0.34923508763313293,0.5630544424057007,-1.2417831420898438,0.817795991897583,0.6238671541213989,0.6690711975097656,-0.4101440906524658,0.9589884877204895,0.3353061079978943,0.5573083162307739,-1.0985908508300781,0.8030768036842346,0.4813075363636017,0.6278094053268433,0.08729616552591324,0.9977360963821411,0.3089659810066223,0.6456016898155212,-0.0868581086397171,0.9974930286407471,0.4798584580421448,0.829804003238678,0.25953713059425354,0.9565533995628357,0.34091728925704956,0.8568435907363892,0.07256775349378586,0.9694840312004089,0.48178622126579285,0.9566004872322083,0.9884370565414429,0.9081892371177673,0.35088232159614563,0.9862871170043945,0.7023525834083557,0.9194640517234802,0.46052229404449463,0.9672830104827881,1.0405395030975342,0.8463587760925293,0.34768757224082947,0.9877318143844604,0.748632550239563,0.6938306093215942,0.5372255444526672,1.0221189260482788,0.7456244826316833,0.860754668712616,0.3788585662841797,1.0774307250976562,0.36242973804473877,0.8177629113197327
20121.032408384286,0.4297078847885132,0.23353266716003418,-0.9782729744911194,0.9999760389328003,0.43676677346229553,0.21025550365447998,-0.9235031008720398,0.9999510049819946,0.44572582840919495,0.2091948390007019,-0.9236197471618652,0.9999470710754395,0.4537171721458435,0.2081528902053833,-0.9236778616905212,0.9999433755874634,0.40373823046684265,0.21166479587554932,-0.9587855339050293,0.9999502897262573,0.3859274983406067,0.21191376447677612,-0.9588450193405151,0.9999423027038574,0.3677475154399872,0.21221923828125,-0.9589283466339111,0.9999300241470337,0.4468756318092346,0.21461454033851624,-0.5832526683807373,0.9999387264251709,0.3191088140010834,0.2214764654636383,-0.7564235925674438,0.9999392032623291,0.4375316798686981,0.2563197612762451,-0.8487417101860046,0.9999831914901733,0.40386760234832764,0.2583655118942261,-0.8976718783378601,0.999984622001648,0.5230283737182617,0.34829553961753845,-0.3766382336616516,0.9999130964279175,0.16703811287879944,0.3683831989765167,-0.5932539701461792,0.999543309211731,0.5699900388717651,0.5082280039787292,-0.16113001108169556,0.9801439642906189,0.1695464849472046,0.5194481015205383,-0.666889488697052,0.9345283508300781,0.6309329271316528,0.6363934278488159,-0.38991203904151917,0.9793723225593567,0.2830504775047302,0.5772840976715088,-0.9866105318069458,0.8221975564956665,0.6500232219696045,0.6790151596069336,-0.47928693890571594,0.9624636769294739,0.3261075019836426,0.5903353095054626,-1.0879666805267334,0.7986379861831665,0.632632315158844,0.6791591048240662,-0.5728078484535217,0.9658628702163696,0.340280681848526,0.5687593817710876,-1.1615073680877686,0.8065318465232849,0.6205557584762573,0.6690236926078796,-0.43094930052757263,0.9665995240211487,0.3267660140991211,0.5624955892562866,-1.0213909149169922,0.7963879704475403,0.4840986728668213,0.6271159648895264,0.0674995481967926,0.997570812702179,0.31037434935569763,0.6453807950019836,-0.0670008584856987,0.9977582693099976,0.4777098298072815,0.8314528465270996,0.29034730792045593,0.9620755314826965,0.3357260525226593,0.8566898107528687,0.11429467797279358,0.9741991758346558,0.4807948172092438,0.9569286108016968,0.9853622913360596,0.9120294451713562,0.3491276800632477,0.9871898293495178,0.694674015045166,0.9262219667434692,0.45918551087379456,0.9697498679161072,1.0347418785095215,0.8615787625312805,0.3488583564758301,0.991387128829956,0.7364594340324402,0.7175865173339844,0.5347228050231934,1.0231056213378906,0.7583215832710266,0.8621364235877991,0.3638364374637604,1.0768101215362549,0.36963117122650146,0.8216100335121155
