0,1,2,3,4,5,6,7,8,9,10
18065.760739318623,-906.2025146484375,443.50347900390625,-351.32049560546875,-642.669921875,-38.029518127441406,28.74725341796875,3.41481876373291,60.34357452392578,-25.19170379638672,65535.0
18065.761139327176,-929.0540161132812,455.4956359863281,-351.2882080078125,-660.1163330078125,-46.34495162963867,15.777419090270996,-4.888717174530029,53.2288932800293,-24.61161994934082,65535.0
18065.761539335726,-950.1697998046875,447.61151123046875,-356.8781433105469,-682.2278442382812,-34.99266815185547,30.092721939086914,7.470310688018799,65.20469665527344,-23.667165756225586,65535.0
18065.76193934428,-949.724609375,453.62548828125,-368.380615234375,-709.5821533203125,-38.9718132019043,22.18812370300293,2.6667375564575195,59.20907211303711,-17.48790740966797,65535.0
18065.762339352834,-945.3016967773438,453.8059997558594,-376.9745788574219,-733.1036376953125,-40.50432205200195,21.616657257080078,-1.338171362876892,56.653865814208984,-25.317846298217773,65535.0
18065.762739361388,-956.8396606445312,443.5522766113281,-375.9671936035156,-732.9851684570312,-37.88517379760742,23.909568786621094,2.6231935024261475,59.78458023071289,-7.155670642852783,65535.0
18065.763139369938,-936.5223999023438,451.811767578125,-387.132080078125,-717.7113647460938,-42.50674819946289,19.59950828552246,1.5233341455459595,57.57920455932617,-24.429990768432617,65535.0
18065.76353937849,-916.0323486328125,467.7023620605469,-389.42120361328125,-734.5457763671875,-33.24211883544922,31.441434860229492,9.862268447875977,67.89850616455078,-21.30394172668457,65535.0
18065.763939387045,-917.4931640625,492.4929504394531,-391.3409729003906,-787.2891235351562,-23.53301429748535,39.94172286987305,18.92760467529297,75.50007629394531,-25.13819122314453,65535.0
18065.764339395595,-907.5724487304688,509.8350830078125,-402.2423095703125,-790.693603515625,-32.463905334472656,33.743709564208984,11.370915412902832,65.31501770019531,-29.69754981994629,65535.0
18065.76473940415,-878.5918579101562,528.0023803710938,-411.11651611328125,-743.774169921875,-40.934783935546875,24.316818237304688,1.4729515314102173,57.41716384887695,-26.81318473815918,65535.0
18065.765139412702,-853.968994140625,548.9203491210938,-409.93218994140625,-690.75,-32.524715423583984,30.99012565612793,8.447412490844727,64.61427307128906,-22.506017684936523,65535.0
18065.765539421256,-833.13720703125,582.8565673828125,-426.17218017578125,-668.0109252929688,-25.556655883789062,44.6475830078125,18.950895309448242,74.26493835449219,-17.369600296020508,65535.0
18065.765939429806,-813.3206176757812,628.2057495117188,-432.60418701171875,-683.1544799804688,-21.57254409790039,46.86618423461914,18.49326515197754,75.22218322753906,-24.92861557006836,65535.0
18065.76633943836,-811.9453125,641.40380859375,-432.33526611328125,-699.3836669921875,-16.345125198364258,51.175838470458984,21.85264015197754,77.35082244873047,-26.480546951293945,65535.0
18065.766739446914,-813.6507568359375,664.599365234375,-437.25836181640625,-695.1110229492188,-18.132659912109375,53.558204650878906,23.35603141784668,75.0179672241211,-19.987548828125,65535.0
18065.767139455464,-812.0865478515625,698.7076416015625,-441.5265197753906,-680.4657592773438,-19.99030303955078,50.24443817138672,20.053956985473633,75.15856170654297,-17.13953399658203,65535.0
18065.767539464017,-818.1763305664062,724.0773315429688,-445.8811340332031,-653.48291015625,-24.745153427124023,47.556396484375,14.759072303771973,72.02910614013672,-13.78201961517334,65535.0
18065.76793947257,-836.564208984375,753.9280395507812,-459.8448181152344,-640.2549438476562,-16.163814544677734,56.57692337036133,24.71714210510254,80.9757308959961,-16.33699607849121,65535.0
18065.768339481125,-834.9559936523438,795.9577026367188,-469.66448974609375,-649.7225341796875,-10.980639457702637,68.56362915039062,32.1324348449707,86.71210479736328,-16.51931381225586,65535.0
18065.768739489675,-830.2283935546875,823.824951171875,-472.1978759765625,-655.5887451171875,-15.77900505065918,63.660316467285156,28.56949806213379,81.54512786865234,0.04669830575585365,65535.0
18065.76913949823,-837.1043701171875,842.8814697265625,-467.4743347167969,-664.0950927734375,-16.838590621948242,60.94504165649414,24.480602264404297,83.0824203491211,-14.553730964660645,65535.0
18065.769539506782,-827.4902954101562,866.2921752929688,-479.3482666015625,-675.8359375,-16.353050231933594,60.95988464355469,23.64238166809082,81.3255386352539,-37.1580924987793,65535.0
18065.769939515332,-842.72314453125,891.711669921875,-474.0118713378906,-678.8634643554688,-18.63904571533203,60.729068756103516,22.908937454223633,78.49551391601562,-19.824542999267578,65535.0
18065.770339523886,-840.3421630859375,922.828369140625,-477.4548034667969,-686.9480590820312,-12.037801742553711,70.36970520019531,29.433528900146484,87.08349609375,-18.830137252807617,65535.0
18065.77073953244,-812.089111328125,938.7670288085938,-472.399169921875,-680.8545532226562,-5.533736228942871,80.44134521484375,34.95716857910156,93.20093536376953,-28.28672218322754,65535.0
18065.77113954099,-781.2669067382812,956.5100708007812,-469.350341796875,-665.7752075195312,-3.4719552993774414,83.06605529785156,38.48398208618164,92.69580841064453,-25.825969696044922,65535.0
18065.771539549543,-739.6712036132812,982.6400146484375,-462.03472900390625,-665.0309448242188,-9.22568416595459,77.61711120605469,34.28079605102539,89.82051849365234,-3.8574254512786865,65535.0
18065.771939558097,-717.6947631835938,1026.6318359375,-459.1034851074219,-661.5806274414062,-12.519218444824219,76.5205078125,30.911407470703125,89.66588592529297,-13.112224578857422,65535.0
18065.77233956665,-704.25830078125,1061.360107421875,-461.2099914550781,-674.945068359375,-12.528563499450684,74.52466583251953,30.83932113647461,87.32914733886719,-29.14727783203125,65535.0
18065.7727395752,-683.5958251953125,1106.059326171875,-446.32684326171875,-705.38232421875,-4.1885600090026855,83.86192321777344,40.663780212402344,93.89775848388672,-12.292709350585938,65535.0
18065.773139583755,-698.0157470703125,1140.283447265625,-440.97760009765625,-722.9378662109375,-1.5245634317398071,84.28854370117188,40.2122688293457,94.91670989990234,-15.961814880371094,65535.0
18065.77353959231,-716.4036254882812,1147.3709716796875,-438.5421447753906,-716.3362426757812,-10.586545944213867,77.26036834716797,33.28407287597656,87.3885498046875,-35.61048126220703,65535.0
18065.77393960086,-721.3043823242188,1165.5340576171875,-446.13665771484375,-699.9496459960938,-14.20339298248291,72.14612579345703,26.503074645996094,82.15110778808594,-17.45374298095703,65535.0
18065.774339609412,-744.436279296875,1183.326171875,-429.748779296875,-693.6903686523438,-17.05077362060547,68.42340850830078,22.179479598999023,81.77426147460938,-30.56826400756836,65535.0
18065.774739617966,-748.862548828125,1192.3153076171875,-414.8894348144531,-711.4225463867188,-8.310275077819824,79.0119857788086,35.704593658447266,91.16386413574219,-22.73833465576172,65535.0
18065.77513962652,-739.2424926757812,1214.4700927734375,-407.4657897949219,-723.9580078125,-12.269238471984863,73.10499572753906,31.20469093322754,84.59847259521484,-18.917085647583008,65535.0
18065.77553963507,-739.2864379882812,1239.5384521484375,-387.53173828125,-721.5926513671875,-14.995312690734863,68.42437744140625,26.86806869506836,83.27222442626953,-16.932090759277344,65535.0
18065.775939643623,-760.2837524414062,1267.258544921875,-380.7498474121094,-704.83154296875,-15.891674041748047,65.4853744506836,26.53775405883789,82.42387390136719,-25.824369430541992,65535.0
18065.776339652177,-772.4273681640625,1285.5545654296875,-372.1836242675781,-664.2986450195312,-7.055440902709961,77.348876953125,36.46865463256836,88.8538818359375,-20.575002670288086,65535.0
18065.776739660727,-747.3856811523438,1304.5570068359375,-367.23883056640625,-615.5104370117188,-6.912558555603027,74.15953063964844,34.16183853149414,90.39897918701172,-26.59039878845215,65535.0
18065.77713966928,-727.1475219726562,1326.142578125,-353.3192443847656,-596.1373291015625,-10.26547908782959,69.65070343017578,32.253021240234375,88.25172424316406,-33.8275032043457,65535.0
18065.777539677834,-706.5005493164062,1359.167724609375,-338.93096923828125,-578.4552001953125,-2.10463285446167,76.3861312866211,38.58180618286133,92.81484985351562,-20.036714553833008,65535.0
18065.777939686388,-682.9971923828125,1371.4642333984375,-332.0865173339844,-548.6952514648438,-8.453044891357422,66.98307800292969,29.58814239501953,90.39765167236328,-27.704931259155273,65535.0
18065.778339694938,-685.3295288085938,1375.6776123046875,-321.2655334472656,-518.7117309570312,1.7872189283370972,79.24024963378906,41.11070251464844,98.0645523071289,-7.87420129776001,65535.0
18065.77873970349,-676.0709228515625,1389.01708984375,-310.1730651855469,-481.6817932128906,-5.962390422821045,70.35214233398438,35.841278076171875,90.66552734375,-14.954763412475586,65535.0
18065.779139712045,-686.6973266601562,1384.495361328125,-297.2688293457031,-466.3629150390625,-5.017040252685547,67.1966781616211,34.588409423828125,89.99999237060547,-6.619887828826904,65535.0
18065.779539720595,-703.3912353515625,1400.196044921875,-292.20867919921875,-458.2329406738281,-4.326715469360352,68.03740692138672,35.27771759033203,94.41171264648438,-11.260168075561523,65535.0
18065.77993972915,-719.7221069335938,1406.5506591796875,-302.3833312988281,-467.1109924316406,-9.889805793762207,61.44187545776367,32.87211227416992,88.8443374633789,-13.917769432067871,65535.0
18065.780339737703,-754.6801147460938,1409.52978515625,-302.8091735839844,-478.820556640625,-13.366726875305176,59.46983337402344,28.838830947875977,83.53531646728516,-27.882810592651367,65535.0
18065.780739746257,-809.06005859375,1408.6068115234375,-293.1674499511719,-482.5797424316406,-19.458742141723633,51.1405143737793,24.06277084350586,79.4850082397461,-21.173601150512695,65535.0
18065.781139754807,-852.3649291992188,1411.57275390625,-294.9649963378906,-495.7591247558594,-19.259841918945312,46.818843841552734,22.28896713256836,80.79878997802734,-17.375272750854492,65535.0
18065.78153976336,-881.130859375,1402.293212890625,-286.4880676269531,-496.498291015625,-18.05990982055664,49.55648422241211,26.569332122802734,78.6463851928711,-27.523786544799805,65535.0
18065.781939771914,-896.3618774414062,1393.5670166015625,-269.0580139160156,-482.71478271484375,-16.891277313232422,49.26198196411133,24.820703506469727,82.32697296142578,-8.754911422729492,65535.0
18065.782339780464,-886.4369506835938,1374.197509765625,-267.21636962890625,-476.29901123046875,-17.612659454345703,47.60530471801758,20.543149948120117,78.83040618896484,-28.527013778686523,65535.0
18065.782739789018,-854.553466796875,1357.0289306640625,-266.93133544921875,-478.7908020019531,-18.42742156982422,48.20730972290039,26.057979583740234,79.68675231933594,-19.24315071105957,65535.0
18065.78313979757,-842.305908203125,1352.9051513671875,-258.7559814453125,-487.5583190917969,-26.70382308959961,36.000244140625,16.410045623779297,71.92144012451172,-5.727407455444336,65535.0
18065.783539806125,-849.819580078125,1331.4837646484375,-246.29867553710938,-495.4015197753906,-29.61094856262207,29.36301040649414,9.791947364807129,65.8323974609375,-14.82198715209961,65535.0
18065.783939814675,-874.5506591796875,1295.8192138671875,-232.3805694580078,-497.8799743652344,-20.95159149169922,44.99512481689453,22.452991485595703,78.18385314941406,-22.90427017211914,65535.0
18065.78433982323,-883.7608032226562,1272.4306640625,-218.74281311035156,-494.7096252441406,-13.573280334472656,51.084983825683594,29.391006469726562,81.54521179199219,-39.5300178527832,65535.0
18065.784739831783,-886.1263427734375,1251.50732421875,-207.2838134765625,-491.98944091796875,-8.44308090209961,54.026912689208984,32.079994201660156,88.5573501586914,-32.3719596862793,65535.0
18065.785139840333,-871.4931030273438,1223.5185546875,-196.732666015625,-490.08746337890625,-3.510960340499878,63.939334869384766,35.47664260864258,91.48786926269531,-21.810270309448242,65535.0
18065.785539848886,-830.3060302734375,1201.884765625,-183.0689697265625,-495.730224609375,-14.295256614685059,52.78118133544922,25.236560821533203,82.23171997070312,-10.312167167663574,65535.0
18065.78593985744,-760.4652709960938,1181.5673828125,-158.9776153564453,-495.81121826171875,-16.34212875366211,48.64222717285156,22.72894859313965,78.80087280273438,-27.121257781982422,65535.0
18065.786339865994,-699.3017578125,1166.9932861328125,-151.88865661621094,-477.8299560546875,-11.799275398254395,57.005863189697266,29.628786087036133,86.67618560791016,-20.570859909057617,65535.0
18065.786739874544,-680.369140625,1158.334228515625,-143.80337524414062,-467.7862854003906,-15.05724811553955,56.55339050292969,28.16105079650879,83.7379150390625,-10.859424591064453,65535.0
18065.787139883098,-678.8182983398438,1163.7347412109375,-152.57455444335938,-484.197265625,-4.997702598571777,64.05975341796875,35.3530158996582,91.36590576171875,-24.24114990234375,65535.0
18065.78753989165,-697.2041015625,1160.135986328125,-169.48825073242188,-518.2965087890625,-11.725820541381836,61.597991943359375,29.307924270629883,83.93814086914062,-14.688841819763184,65535.0
18065.7879399002,-723.1890869140625,1143.031982421875,-160.52972412109375,-521.2611083984375,-17.21044158935547,55.683441162109375,27.332517623901367,81.31244659423828,-18.30997085571289,65535.0
18065.788339908755,-745.2889404296875,1127.1904296875,-158.16403198242188,-473.3488464355469,-3.429147958755493,69.64640045166016,34.20217514038086,91.16651153564453,-28.91744041442871,65535.0
18065.78873991731,-776.5350341796875,1103.9744873046875,-159.4321746826172,-422.9056701660156,-3.332279920578003,74.25379943847656,38.25132369995117,93.22267150878906,-22.357078552246094,65535.0
18065.789139925862,-799.1989135742188,1084.82666015625,-163.51246643066406,-412.86328125,-5.3574652671813965,73.66339111328125,38.19137954711914,93.62116241455078,-17.03485679626465,65535.0
18065.789539934412,-835.9000854492188,1063.576416015625,-162.43397521972656,-439.4981689453125,-8.914998054504395,66.73245239257812,30.251663208007812,86.68742370605469,-40.10662841796875,65535.0
18065.789939942966,-852.7223510742188,1050.300048828125,-165.05947875976562,-464.1676940917969,-5.733086585998535,72.70992279052734,35.142032623291016,93.20391845703125,-41.19816589355469,65535.0
18065.79033995152,-861.3590087890625,1031.8194580078125,-161.8988494873047,-499.1829833984375,2.8106870651245117,87.85357666015625,47.84370803833008,102.82366180419922,-22.48029327392578,65535.0
18065.79073996007,-861.0073852539062,1022.2294921875,-165.28375244140625,-517.7490234375,-2.7301888465881348,82.13420867919922,38.67901611328125,96.48828125,-14.85659408569336,65535.0
18065.791139968624,-860.3070068359375,1012.0113525390625,-172.379638671875,-522.2721557617188,-9.536870002746582,78.17134857177734,33.71251678466797,91.17982482910156,-18.32865333557129,65535.0
18065.791539977177,-865.8640747070312,1003.002685546875,-168.66351318359375,-506.6153259277344,-1.7237032651901245,82.21235656738281,41.19178009033203,97.83457946777344,-25.79173469543457,65535.0
18065.79193998573,-866.0254516601562,994.1934814453125,-174.82992553710938,-477.24517822265625,7.27957820892334,93.51947021484375,48.59700393676758,104.30179595947266,-17.97300910949707,65535.0
18065.79233999428,-886.8236083984375,981.5839233398438,-173.73133850097656,-452.3450927734375,3.200838088989258,92.56288146972656,47.16877746582031,102.59223175048828,-19.775054931640625,65535.0
18065.792740002835,-862.3120727539062,980.5741577148438,-161.03709411621094,-430.3189392089844,1.0652719736099243,89.08815002441406,41.7619514465332,97.65333557128906,-15.319862365722656,65535.0
18065.79314001139,-839.2404174804688,955.6066284179688,-154.81459045410156,-403.4635009765625,11.189659118652344,100.2142333984375,51.23728942871094,109.05831146240234,-14.910242080688477,65535.0
18065.79354001994,-827.7921142578125,933.6427001953125,-159.4304656982422,-408.5348205566406,1.1589429378509521,90.72473907470703,42.734683990478516,101.6664047241211,-28.534761428833008,65535.0
18065.793940028492,-825.054443359375,921.7525024414062,-167.99978637695312,-401.17987060546875,-1.7099065780639648,84.40299224853516,41.76274871826172,97.64119720458984,-20.400297164916992,65535.0
18065.794340037046,-813.5814208984375,906.9882202148438,-156.43692016601562,-400.90631103515625,-4.02730655670166,82.0691146850586,41.06367874145508,96.35116577148438,-27.85523223876953,65535.0
18065.7947400456,-812.4547119140625,901.5635375976562,-156.84288024902344,-402.0003356933594,-1.4238330125808716,81.82990264892578,40.82155990600586,96.23809814453125,-25.598358154296875,65535.0
18065.79514005415,-817.9765625,894.6725463867188,-158.42315673828125,-420.7644348144531,2.1431689262390137,86.64112091064453,43.10041427612305,99.45893096923828,-23.35154151916504,65535.0
18065.795540062703,-826.6145629882812,884.8541259765625,-157.8339385986328,-442.6320495605469,-11.110311508178711,73.92082977294922,34.8285026550293,91.84416961669922,-23.222301483154297,65535.0
18065.795940071257,-839.2500610351562,880.9482421875,-168.2178497314453,-448.4783935546875,-15.554699897766113,62.3306770324707,24.950223922729492,81.059814453125,-37.47067642211914,65535.0
18065.796340079807,-856.0618896484375,871.9456176757812,-173.21047973632812,-443.61505126953125,-4.954362869262695,72.70814514160156,35.68067932128906,90.32611846923828,-28.921871185302734,65535.0
18065.79674008836,-859.3443603515625,862.5821533203125,-172.94033813476562,-430.7406921386719,-11.607634544372559,67.03511047363281,32.16361618041992,86.41206359863281,-23.303585052490234,65535.0
18065.797140096915,-822.0357055664062,858.5336303710938,-180.87449645996094,-403.8327941894531,-12.78242301940918,62.1139030456543,30.12180519104004,84.24501037597656,-26.19721221923828,65535.0
18065.79754010547,-801.9728393554688,847.398193359375,-181.2637176513672,-400.530517578125,0.4596157670021057,77.22244262695312,42.852928161621094,100.47652435302734,-19.782041549682617,65535.0
18065.79794011402,-796.19189453125,836.9015502929688,-190.54852294921875,-424.0128479003906,-6.50918436050415,71.71549224853516,36.32026290893555,92.59268951416016,-33.689544677734375,65535.0
18065.798340122572,-787.6613159179688,833.912841796875,-190.55210876464844,-446.4002380371094,-17.839279174804688,53.30693054199219,22.784687042236328,79.79258728027344,-38.75697326660156,65535.0
18065.798740131126,-744.7210693359375,823.485595703125,-186.36788940429688,-449.0909423828125,-12.076913833618164,59.88909912109375,28.607820510864258,86.52702331542969,-19.329206466674805,65535.0
18065.799140139676,-703.0294189453125,820.606201171875,-189.4785614013672,-434.9787902832031,-4.50944709777832,66.63667297363281,38.589874267578125,95.14934539794922,-28.911449432373047,65535.0
18065.79954014823,-658.1671142578125,815.0755004882812,-206.3062286376953,-415.7923583984375,-10.637950897216797,60.03071594238281,32.22287368774414,88.69048309326172,-22.436262130737305,65535.0
18065.799940156783,-632.4730224609375,794.6522827148438,-216.0568084716797,-408.9714660644531,-12.512457847595215,54.143436431884766,26.584562301635742,84.21568298339844,-16.511167526245117,65535.0
18065.800340165337,-648.3799438476562,786.7590942382812,-221.75106811523438,-421.5113220214844,-13.198003768920898,52.97224044799805,31.550291061401367,83.93231964111328,-23.527448654174805,65535.0
18065.800740173887,-724.77001953125,783.9418334960938,-221.9322052001953,-441.8357238769531,-10.751531600952148,54.764732360839844,28.039644241333008,87.87329864501953,-36.20914840698242,65535.0
18065.80114018244,-760.7554321289062,762.0020141601562,-220.849853515625,-448.074951171875,-17.219593048095703,50.65684509277344,25.538162231445312,82.19880676269531,-33.01533889770508,65535.0
18065.801540190994,-777.0687255859375,760.8641967773438,-215.42730712890625,-467.72979736328125,-25.527719497680664,42.44701385498047,22.39720916748047,74.7226333618164,-24.12255859375,65535.0
18065.801940199544,-807.0276489257812,748.1875,-227.52249145507812,-469.27252197265625,-29.086132049560547,34.692501068115234,17.546571731567383,68.91071319580078,-26.76250648498535,65535.0
18065.802340208098,-837.997802734375,728.5531616210938,-235.73455810546875,-439.52825927734375,-26.299888610839844,32.49863815307617,14.61640453338623,70.45396423339844,-24.21971893310547,65535.0
18065.80274021665,-864.9440307617188,725.4593505859375,-238.8236083984375,-417.28997802734375,-33.23201370239258,26.67880630493164,7.529407501220703,64.18513488769531,-34.9756965637207,65535.0
18065.803140225205,-872.4834594726562,719.1025390625,-249.99229431152344,-388.8365173339844,-30.24550437927246,31.13719367980957,11.551820755004883,66.6514663696289,-20.51721954345703,65535.0
18065.803540233755,-894.0200805664062,704.431884765625,-257.6108703613281,-391.5603332519531,-21.377849578857422,38.49470901489258,17.469873428344727,78.98873901367188,-26.663677215576172,65535.0
18065.80394024231,-931.0697021484375,699.6795654296875,-260.1508483886719,-402.8262939453125,-26.846651077270508,37.33497619628906,18.308013916015625,73.01062774658203,-23.673015594482422,65535.0
18065.804340250863,-965.74169921875,693.47314453125,-270.4942626953125,-421.3684387207031,-27.87798309326172,35.077327728271484,16.432153701782227,69.10576629638672,-20.94502067565918,65535.0
18065.804740259413,-979.5741577148438,679.924072265625,-284.71710205078125,-442.17596435546875,-26.994178771972656,36.9776496887207,15.910823822021484,69.92188262939453,-30.210954666137695,65535.0
18065.805140267967,-967.868896484375,679.3388671875,-285.57281494140625,-457.8693542480469,-29.292753219604492,34.318511962890625,13.350484848022461,67.56706237792969,-31.740650177001953,65535.0
18065.80554027652,-953.6309204101562,677.7203979492188,-295.2996520996094,-479.3928527832031,-23.47287368774414,39.750694274902344,15.336620330810547,73.6661605834961,-25.017393112182617,65535.0
18065.805940285074,-950.9295043945312,665.9603271484375,-299.6585388183594,-505.6321105957031,-20.08503532409668,47.16767883300781,21.20867156982422,76.6623764038086,-31.98443603515625,65535.0
18065.806340293624,-967.6449584960938,678.4486083984375,-316.0879211425781,-513.6847534179688,-29.19890785217285,41.36854553222656,14.948212623596191,69.87671661376953,-37.44842529296875,65535.0
18065.806740302178,-979.4533081054688,686.5078735351562,-326.2346496582031,-509.9526672363281,-24.796382904052734,42.760765075683594,16.246904373168945,72.72879028320312,-23.330095291137695,65535.0
18065.80714031073,-974.5146484375,663.27490234375,-330.6343994140625,-512.02587890625,-23.657682418823242,46.544795989990234,20.11509132385254,75.31417846679688,-22.26311492919922,65535.0
18065.80754031928,-956.1998901367188,661.7549438476562,-326.70001220703125,-507.1952209472656,-18.850955963134766,53.30942153930664,21.429208755493164,77.96867370605469,-19.182031631469727,65535.0
18065.807940327835,-936.150634765625,662.4276733398438,-334.83941650390625,-508.0691223144531,-24.306976318359375,45.38446807861328,17.682085037231445,72.84102630615234,-21.70471954345703,65535.0
18065.80834033639,-918.5548706054688,656.0181274414062,-340.5372009277344,-512.7847900390625,-19.517181396484375,52.68913650512695,22.652969360351562,78.77741241455078,-21.62932014465332,65535.0
18065.808740344943,-916.2088623046875,648.0601806640625,-349.8603820800781,-525.010498046875,-28.53085708618164,50.71480941772461,17.700178146362305,70.43195343017578,-36.7916259765625,65535.0
18065.809140353493,-917.9022216796875,660.36474609375,-342.7660217285156,-516.8145751953125,-27.40388298034668,48.294044494628906,15.205952644348145,70.71532440185547,-37.30845642089844,65535.0
18065.809540362046,-925.25048828125,662.9163818359375,-339.7740173339844,-503.100341796875,-16.228548049926758,56.3936653137207,25.857385635375977,80.43933868408203,-17.539649963378906,65535.0
18065.8099403706,-934.8641357421875,658.302978515625,-341.7996826171875,-497.6396789550781,-23.72359275817871,51.76720428466797,16.55691146850586,73.10696411132812,-21.436500549316406,65535.0
18065.81034037915,-938.940673828125,655.226318359375,-349.10162353515625,-492.46820068359375,-22.741235733032227,53.31631088256836,18.07142448425293,73.31060028076172,-11.404431343078613,65535.0
18065.810740387704,-939.0216674804688,656.3251342773438,-362.49957275390625,-499.8206787109375,-9.602601051330566,70.98905181884766,34.347190856933594,87.997802734375,-11.560537338256836,65535.0
18065.811140396258,-937.636962890625,656.9305419921875,-358.4759521484375,-513.093505859375,-16.867971420288086,65.87550354003906,25.047666549682617,81.72740936279297,-26.88605499267578,65535.0
18065.81154040481,-923.659423828125,660.4876708984375,-350.4144287109375,-517.0947875976562,-16.90070343017578,69.62813568115234,24.652284622192383,81.44548797607422,-37.965309143066406,65535.0
18065.81194041336,-910.7604370117188,673.0996704101562,-359.7484436035156,-508.11273193359375,-13.269033432006836,72.25843048095703,29.09360694885254,82.74571228027344,-29.22488021850586,65535.0
18065.812340421915,-893.3231201171875,666.5660400390625,-355.3751220703125,-496.9755554199219,-9.836712837219238,75.22810363769531,28.516510009765625,87.10171508789062,-21.536956787109375,65535.0
18065.81274043047,-889.3356323242188,670.915771484375,-358.41253662109375,-511.3597717285156,-21.073715209960938,62.98246765136719,20.244733810424805,76.34257507324219,-10.971860885620117,65535.0
18065.81314043902,-875.073974609375,672.08740234375,-363.0556335449219,-534.2550659179688,-19.608877182006836,64.59776306152344,21.93312644958496,78.28911590576172,-24.783716201782227,65535.0
18065.813540447572,-852.119140625,666.3887939453125,-363.845458984375,-530.7225952148438,-13.775442123413086,66.61978149414062,25.092304229736328,83.2873764038086,-29.603633880615234,65535.0
18065.813940456126,-852.1575317382812,664.5801391601562,-359.4853515625,-519.8934936523438,-19.59162139892578,63.80707550048828,23.60340118408203,79.93199920654297,-24.15926742553711,65535.0
18065.81434046468,-870.9090576171875,658.8064575195312,-365.6329345703125,-499.3663635253906,-25.046730041503906,57.910499572753906,16.395431518554688,73.42499542236328,-19.455671310424805,65535.0
18065.81474047323,-888.5230102539062,668.3507080078125,-357.4791564941406,-481.376220703125,-17.6075439453125,65.6529312133789,24.246074676513672,78.99663543701172,-31.935054779052734,65535.0
18065.815140481784,-879.5069580078125,676.1070556640625,-368.90069580078125,-470.2466735839844,-16.43169403076172,65.79740142822266,24.393587112426758,79.04139709472656,-28.19804573059082,65535.0
18065.815540490337,-868.3820190429688,684.637939453125,-363.6407165527344,-470.21795654296875,-14.371768951416016,66.91873931884766,25.51195526123047,85.84227752685547,-8.80327033996582,65535.0
18065.815940498887,-860.8007202148438,670.4288940429688,-362.6725769042969,-466.1632995605469,-22.987333297729492,53.53639602661133,21.168455123901367,75.86771392822266,-16.521873474121094,65535.0
18065.81634050744,-847.740234375,674.64990234375,-363.5967712402344,-450.6692199707031,-18.17228889465332,57.20592498779297,21.450361251831055,76.14717864990234,-21.881595611572266,65535.0
18065.816740515995,-822.5345458984375,677.7921752929688,-359.9769592285156,-438.56988525390625,-14.69764518737793,66.23703002929688,30.35478973388672,84.056640625,-26.510446548461914,65535.0
18065.81714052455,-820.4078979492188,676.3085327148438,-358.2895202636719,-410.4283142089844,-14.20394229888916,66.54075622558594,30.092744827270508,88.32086181640625,-31.78640365600586,65535.0
18065.8175405331,-815.4594116210938,673.9103393554688,-354.1363830566406,-402.2864990234375,-9.934568405151367,65.1754379272461,31.78049659729004,86.56084442138672,-41.8154411315918,65535.0
18065.817940541652,-777.1671142578125,675.3992309570312,-348.81756591796875,-407.7223815917969,-21.031816482543945,55.43714141845703,23.010263442993164,80.150634765625,-30.17778968811035,65535.0
18065.818340550206,-738.370361328125,681.2490844726562,-350.01983642578125,-405.5880126953125,-29.485445022583008,44.166175842285156,16.696191787719727,71.1891098022461,-25.781494140625,65535.0
18065.818740558756,-729.84375,687.6913452148438,-349.703125,-440.7179260253906,-22.351940155029297,49.57882308959961,18.72610092163086,74.3318862915039,-29.08976936340332,65535.0
18065.81914056731,-746.7723388671875,684.3556518554688,-352.38018798828125,-490.08575439453125,-26.986825942993164,43.047306060791016,15.979696273803711,70.14029693603516,-16.97597312927246,65535.0
18065.819540575863,-761.5746459960938,693.0607299804688,-347.35418701171875,-518.388427734375,-25.45790672302246,43.6585578918457,18.125274658203125,73.89353942871094,-20.217256546020508,65535.0
18065.819940584417,-756.7943725585938,692.2210083007812,-345.94427490234375,-542.3309326171875,-22.643672943115234,43.9229621887207,19.839244842529297,76.1907730102539,-26.311920166015625,65535.0
18065.820340592967,-773.4721069335938,700.904541015625,-347.5589294433594,-566.3656616210938,-21.921497344970703,49.237815856933594,22.091859817504883,78.46379852294922,-40.57722854614258,65535.0
18065.82074060152,-779.583251953125,697.7947387695312,-357.1603698730469,-583.0755615234375,-28.076950073242188,40.68085861206055,16.923290252685547,71.68727111816406,-34.64527893066406,65535.0
18065.821140610075,-798.9578857421875,693.9674682617188,-364.2952575683594,-572.6517333984375,-33.500431060791016,32.13475036621094,10.416145324707031,67.11246490478516,-31.26536750793457,65535.0
18065.821540618625,-819.0567626953125,697.5757446289062,-357.9179382324219,-585.5542602539062,-33.281620025634766,31.02875328063965,7.819841384887695,64.84016418457031,-35.68882751464844,65535.0
18065.82194062718,-848.399169921875,700.5435791015625,-364.9291687011719,-604.8060913085938,-33.896514892578125,27.8156681060791,7.642701148986816,64.64176177978516,-36.857486724853516,65535.0
18065.822340635732,-871.3611450195312,695.1702270507812,-362.88665771484375,-613.5919799804688,-36.68037796020508,23.525259017944336,3.8523497581481934,59.54521179199219,-43.71398162841797,65535.0
18065.822740644286,-872.6719970703125,693.9747924804688,-361.22833251953125,-604.26123046875,-34.64693069458008,27.87371253967285,7.249227046966553,61.978973388671875,-33.65217208862305,65535.0
18065.823140652836,-887.0521240234375,683.9593505859375,-365.2005615234375,-581.4531860351562,-29.386465072631836,32.73569107055664,11.610407829284668,67.27931213378906,-16.936494827270508,65535.0
18065.82354066139,-889.3688354492188,674.1259765625,-375.5318603515625,-539.1690063476562,-35.99604034423828,25.25377655029297,4.004909038543701,60.24466323852539,-29.18560028076172,65535.0
18065.823940669943,-905.4700317382812,669.6553344726562,-397.9270324707031,-451.17578125,-29.850318908691406,32.790836334228516,11.766494750976562,65.16866302490234,-24.441299438476562,65535.0
18065.824340678493,-911.198486328125,670.7505493164062,-400.6072998046875,-361.5434875488281,-25.219459533691406,36.91860580444336,13.843917846679688,69.69499206542969,-19.803558349609375,65535.0
18065.824740687047,-871.8418579101562,668.5831909179688,-390.9432373046875,-295.6800842285156,-25.44747543334961,40.46791076660156,16.966796875,73.450439453125,-29.87301254272461,65535.0
18065.8251406956,-827.1363525390625,664.4210205078125,-385.4559326171875,-290.2149353027344,-27.976118087768555,39.25489044189453,13.615710258483887,72.5423583984375,-36.10778045654297,65535.0
18065.825540704154,-827.215576171875,660.0756225585938,-381.5827941894531,-338.59814453125,-13.544805526733398,52.84452438354492,25.792633056640625,84.5098648071289,-26.738332748413086,65535.0
18065.825940712704,-840.9976806640625,654.546875,-372.0851745605469,-379.65130615234375,-18.573440551757812,52.42247009277344,25.610612869262695,81.7503433227539,-40.229000091552734,65535.0
18065.826340721258,-830.2813720703125,655.5391845703125,-393.51739501953125,-403.713134765625,-28.15732192993164,38.38221740722656,13.635733604431152,69.44556427001953,-37.54830551147461,65535.0
18065.82674072981,-849.47509765625,653.003662109375,-399.5661926269531,-410.6368408203125,-27.93109893798828,35.97879409790039,10.839188575744629,66.58079528808594,-27.773637771606445,65535.0
18065.82714073836,-873.4562377929688,657.986083984375,-376.4796142578125,-411.4715576171875,-19.986949920654297,48.53584671020508,19.916404724121094,76.43124389648438,-26.013357162475586,65535.0
18065.827540746915,-866.4089965820312,664.126953125,-375.37310791015625,-418.4149169921875,-23.960020065307617,46.91976547241211,17.64430809020996,71.31185913085938,-33.802207946777344,65535.0
18065.82794075547,-880.640625,657.370361328125,-382.7434387207031,-425.814453125,-29.082361221313477,42.055538177490234,13.768590927124023,67.68560791015625,-39.58468246459961,65535.0
18065.828340764023,-902.0416259765625,653.3142700195312,-391.5390625,-453.1453857421875,-16.055208206176758,51.98334503173828,22.401697158813477,79.46902465820312,-29.594881057739258,65535.0
18065.828740772573,-895.8093872070312,654.700927734375,-391.4488525390625,-514.8538818359375,-12.996162414550781,59.47218322753906,24.41384506225586,82.99012756347656,-22.597042083740234,65535.0
18065.829140781127,-875.928466796875,640.0321044921875,-391.1609191894531,-544.7570190429688,-14.387084007263184,60.61074447631836,25.834054946899414,80.69366455078125,-27.68769645690918,65535.0
18065.82954078968,-870.3184204101562,643.177734375,-393.5796813964844,-534.1192626953125,-24.626691818237305,48.07740783691406,16.890661239624023,69.15404510498047,-37.48447036743164,65535.0
18065.82994079823,-871.5201416015625,645.6965942382812,-397.08612060546875,-504.6707458496094,-19.874629974365234,58.14351272583008,21.31085968017578,76.89779663085938,-29.217866897583008,65535.0
18065.830340806784,-866.3328857421875,645.0284423828125,-391.46160888671875,-472.6819152832031,-13.377289772033691,68.6107406616211,29.304031372070312,86.9605941772461,-31.97380256652832,65535.0
18065.830740815338,-852.8753051757812,636.959716796875,-397.6537170410156,-464.4058837890625,3.249619245529175,84.52729797363281,40.2884521484375,98.39386749267578,-32.71550750732422,65535.0
18065.83114082389,-839.4076538085938,645.84326171875,-400.40460205078125,-456.4837951660156,-3.1906824111938477,79.65431213378906,36.12038040161133,96.84479522705078,-27.914770126342773,65535.0
18065.83154083244,-835.5676879882812,642.0403442382812,-397.67779541015625,-440.13702392578125,-13.983898162841797,69.88275909423828,31.035282135009766,84.85803985595703,-26.103761672973633,65535.0
18065.831940840995,-848.1783447265625,643.859619140625,-392.21014404296875,-465.4966735839844,-7.333364486694336,74.64722442626953,35.38864517211914,87.86891174316406,-25.255672454833984,65535.0
18065.83234084955,-865.996826171875,649.0242309570312,-397.0719909667969,-519.6221313476562,-1.0501790046691895,82.0151596069336,39.0949592590332,96.67971801757812,-29.866090774536133,65535.0
18065.8327408581,-902.8552856445312,645.1130981445312,-397.2151184082031,-557.8632202148438,-11.749772071838379,73.29854583740234,32.264102935791016,86.96954345703125,-43.77852249145508,65535.0
18065.833140866653,-923.9063110351562,653.8119506835938,-398.2455139160156,-558.6444702148438,-17.25328254699707,68.6490707397461,27.690834045410156,80.71024322509766,-36.36758804321289,65535.0
18065.833540875206,-928.59765625,663.9102172851562,-385.56402587890625,-542.3942260742188,-9.444753646850586,70.45581817626953,29.88648796081543,86.77538299560547,-33.38106918334961,65535.0
18065.83394088376,-912.447021484375,647.8875122070312,-384.5873107910156,-534.550048828125,-10.44450569152832,70.08753967285156,27.35536766052246,85.47691345214844,-27.103599548339844,65535.0
18065.83434089231,-874.7921142578125,652.5443115234375,-381.35015869140625,-508.38787841796875,-9.99252700805664,71.0681381225586,31.715763092041016,85.97097778320312,-15.986143112182617,65535.0
18065.834740900864,-839.106201171875,661.1071166992188,-375.1300048828125,-498.8667907714844,-9.238541603088379,73.04583740234375,32.81103515625,85.7083969116211,-20.408283233642578,65535.0
18065.835140909418,-821.0427856445312,660.2330322265625,-384.4292297363281,-501.42193603515625,-7.952576637268066,73.19547271728516,33.724422454833984,87.60379028320312,-27.215179443359375,65535.0
18065.835540917968,-864.29248046875,649.2135620117188,-387.7327575683594,-494.08868408203125,-9.194933891296387,73.5306396484375,31.12378692626953,87.67941284179688,-25.124624252319336,65535.0
18065.83594092652,-903.2373046875,652.3609008789062,-380.69732666015625,-477.9270324707031,-13.890693664550781,66.86852264404297,28.705242156982422,82.29825592041016,-29.424278259277344,65535.0
18065.836340935075,-909.4908447265625,660.95654296875,-384.2216491699219,-465.6333312988281,-17.670711517333984,61.113948822021484,28.642818450927734,82.00555419921875,-37.51837921142578,65535.0
18065.83674094363,-910.883544921875,658.2024536132812,-388.48095703125,-480.32647705078125,-10.576290130615234,64.8250732421875,28.672609329223633,84.99193572998047,-39.39508819580078,65535.0
18065.83714095218,-891.2046508789062,650.1025390625,-378.29608154296875,-496.263916015625,-15.616299629211426,62.31563949584961,24.551029205322266,82.0027847290039,-52.56550216674805,65535.0
18065.837540960732,-886.5951538085938,655.80615234375,-380.412109375,-510.9368591308594,-6.242879867553711,71.5247802734375,36.768280029296875,91.80062866210938,-33.174102783203125,65535.0
18065.837940969286,-885.1055908203125,662.4249267578125,-390.5816955566406,-545.831787109375,-11.385485649108887,64.58513641357422,30.462589263916016,84.26951599121094,-22.57313346862793,65535.0
18065.838340977836,-896.2402954101562,660.6793212890625,-377.990966796875,-561.7096557617188,-17.694589614868164,54.375431060791016,22.608121871948242,79.75164031982422,-19.502174377441406,65535.0
18065.83874098639,-903.7782592773438,663.0076293945312,-378.45294189453125,-555.1611938476562,-19.26169776916504,53.090721130371094,22.40870475769043,79.25944519042969,-16.361494064331055,65535.0
18065.839140994944,-925.4736938476562,664.6112670898438,-376.0144348144531,-561.0301513671875,-19.411314010620117,50.517784118652344,20.33621597290039,76.10784912109375,-32.468109130859375,65535.0
18065.839541003497,-940.0648803710938,668.4024658203125,-381.0775146484375,-558.1950073242188,-22.559799194335938,46.55217361450195,19.279281616210938,76.55670928955078,-42.642276763916016,65535.0
18065.839941012047,-936.6744995117188,669.1087646484375,-369.2726745605469,-566.2579956054688,-22.53318977355957,42.12074661254883,15.494096755981445,74.72322082519531,-24.857025146484375,65535.0
18065.8403410206,-918.0814819335938,660.6531982421875,-361.471923828125,-569.1483764648438,-26.497114181518555,39.96175765991211,15.955785751342773,70.37810516357422,-17.587690353393555,65535.0
18065.840741029155,-914.3740234375,656.929931640625,-364.0914611816406,-564.430419921875,-25.272705078125,41.81254196166992,19.412311553955078,75.84107208251953,-16.87786293029785,65535.0
18065.841141037705,-912.8607177734375,659.7113037109375,-365.31488037109375,-556.580322265625,-30.027976989746094,32.222713470458984,12.619645118713379,67.23223876953125,-28.401073455810547,65535.0
18065.84154104626,-915.04296875,647.175048828125,-366.921630859375,-523.6832275390625,-26.344497680664062,35.15862274169922,14.352560997009277,71.31536865234375,-21.853120803833008,65535.0
18065.841941054812,-897.676513671875,641.2446899414062,-369.2956237792969,-497.7957763671875,-24.273521423339844,38.006141662597656,15.459436416625977,71.055419921875,-20.309999465942383,65535.0
18065.842341063366,-868.6739501953125,644.398681640625,-370.8614807128906,-485.495849609375,-33.3826904296875,27.224027633666992,8.661015510559082,63.700748443603516,-22.202972412109375,65535.0
18065.842741071916,-835.7673950195312,647.1015625,-373.7111511230469,-468.6347351074219,-30.419450759887695,31.39750862121582,11.302674293518066,67.41063690185547,-33.55157470703125,65535.0
18065.84314108047,-812.1043701171875,646.5369873046875,-384.8841857910156,-455.1615295410156,-22.516305923461914,37.319305419921875,19.310300827026367,72.16364288330078,-48.1396369934082,65535.0
18065.843541089023,-790.701416015625,638.5537109375,-381.62249755859375,-457.5746765136719,-14.725788116455078,46.94282150268555,27.559612274169922,83.26366424560547,-22.29063606262207,65535.0
18065.843941097573,-765.182861328125,643.115478515625,-384.8872985839844,-451.65521240234375,-27.283946990966797,40.01325607299805,16.998159408569336,70.30754852294922,-31.01535415649414,65535.0
18065.844341106127,-777.61083984375,644.5833740234375,-384.4501647949219,-440.824462890625,-35.12839126586914,30.258649826049805,7.163014888763428,63.34158706665039,-37.10618591308594,65535.0
18065.84474111468,-788.7405395507812,639.7229614257812,-381.9308166503906,-440.43560791015625,-27.810314178466797,33.57475662231445,15.394906044006348,70.35142517089844,-36.14445114135742,65535.0
18065.845141123234,-757.0056762695312,645.0829467773438,-381.947998046875,-447.6538391113281,-26.949249267578125,38.15732192993164,16.18742561340332,70.92395782470703,-29.511503219604492,65535.0
18065.845541131785,-725.6716918945312,638.3146362304688,-380.2139892578125,-447.23785400390625,-18.91443634033203,47.915985107421875,20.182613372802734,78.75270080566406,-29.530710220336914,65535.0
18065.84594114034,-717.4564819335938,646.5681762695312,-376.5720520019531,-451.0030517578125,-12.978534698486328,54.75394058227539,29.144014358520508,84.02716064453125,-31.424596786499023,65535.0
18065.846341148892,-676.6419677734375,639.8832397460938,-374.1924133300781,-460.193115234375,-33.476654052734375,37.16583251953125,11.666985511779785,64.96957397460938,-34.44480514526367,65535.0
18065.846741157442,-653.2568969726562,644.8109741210938,-379.5147399902344,-462.963134765625,-30.995948791503906,36.97224426269531,11.18807315826416,67.82586669921875,-42.62392044067383,65535.0
18065.847141165996,-662.008544921875,638.5801391601562,-386.93634033203125,-466.26055908203125,-13.555095672607422,56.83722686767578,27.65643310546875,83.6244125366211,-31.566871643066406,65535.0
18065.84754117455,-665.2259521484375,640.325927734375,-392.7015686035156,-458.76190185546875,-16.900577545166016,55.39609909057617,22.632619857788086,78.62739562988281,-24.964879989624023,65535.0
18065.847941183103,-675.5601196289062,636.4628295898438,-387.96917724609375,-456.37786865234375,-16.775894165039062,57.6922607421875,24.50626564025879,80.0626220703125,-25.975337982177734,65535.0
18065.848341191653,-711.3997802734375,642.2962036132812,-390.5771484375,-455.54730224609375,-11.331589698791504,63.9620475769043,29.175870895385742,86.10955047607422,-28.059995651245117,65535.0
18065.848741200207,-728.3671264648438,642.1282348632812,-387.3221740722656,-459.1038513183594,-7.69485330581665,69.24166107177734,33.70293045043945,88.53485107421875,-33.57278060913086,65535.0
18065.84914120876,-740.459716796875,633.2316284179688,-393.7822570800781,-456.9871826171875,-2.809346914291382,76.20626831054688,39.74589920043945,95.36097717285156,-31.190467834472656,65535.0
18065.84954121731,-757.7191162109375,629.052734375,-398.960205078125,-426.09619140625,-16.167770385742188,64.83224487304688,27.734376907348633,84.94562530517578,-28.542341232299805,65535.0
18065.849941225864,-761.9053955078125,626.5996704101562,-398.50750732421875,-424.6385192871094,-20.076204299926758,60.70420455932617,26.522716522216797,78.09236145019531,-28.66425323486328,65535.0
18065.850341234418,-754.1096801757812,619.9903564453125,-404.3192443847656,-445.91064453125,-16.078304290771484,63.944053649902344,26.587263107299805,81.42420196533203,-35.48223876953125,65535.0
18065.85074124297,-745.4199829101562,621.7470092773438,-397.2953186035156,-480.8443908691406,-7.933778762817383,77.13634490966797,32.6987419128418,90.17234802246094,-33.57528305053711,65535.0
18065.85114125152,-769.5805053710938,622.2045288085938,-389.9891357421875,-520.67626953125,-19.44533348083496,64.39015197753906,23.601179122924805,77.25491333007812,-37.76164245605469,65535.0
18065.851541260075,-854.7197875976562,615.8740844726562,-385.3180847167969,-525.6185913085938,-7.286736488342285,74.15870666503906,35.19920349121094,89.03850555419922,-34.84523391723633,65535.0
18065.85194126863,-907.1829223632812,631.4651489257812,-382.50994873046875,-506.3031921386719,-4.383867263793945,82.65719604492188,38.011810302734375,93.65615844726562,-26.816621780395508,65535.0
18065.85234127718,-926.7420043945312,626.8966064453125,-389.7532958984375,-467.9007263183594,-4.730646133422852,81.15940856933594,37.00353240966797,91.9197998046875,-19.2466983795166,65535.0
18065.852741285733,-936.3768310546875,630.48486328125,-384.24945068359375,-440.4288635253906,-8.268790245056152,72.85054779052734,30.560823440551758,85.81440734863281,-28.75327491760254,65535.0
18065.853141294287,-935.487060546875,635.541015625,-378.0084228515625,-443.44757080078125,-15.929091453552246,69.75556182861328,28.524660110473633,82.03286743164062,-34.49764633178711,65535.0
18065.85354130284,-931.67236328125,633.1554565429688,-384.002685546875,-421.5870361328125,-7.390058994293213,77.08279418945312,34.535648345947266,90.02915954589844,-19.831037521362305,65535.0
18065.85394131139,-919.7745361328125,636.40234375,-384.0960388183594,-399.8536376953125,-17.902788162231445,64.56388092041016,23.576807022094727,80.51939392089844,-28.613252639770508,65535.0
18065.854341319944,-916.5803833007812,645.0787963867188,-385.2468566894531,-398.0707092285156,-19.984954833984375,62.687808990478516,23.866727828979492,78.28394317626953,-34.376075744628906,65535.0
18065.854741328498,-913.7415161132812,641.3109741210938,-380.5213317871094,-397.29595947265625,-19.361242294311523,61.28847885131836,25.970853805541992,79.78205108642578,-25.838375091552734,65535.0
18065.855141337048,-890.8170166015625,639.7598876953125,-383.1313171386719,-402.2788391113281,-12.409729957580566,65.77403259277344,30.42481231689453,83.11381530761719,-25.264833450317383,65535.0
18065.8555413456,-869.10498046875,643.5609741210938,-383.5639953613281,-398.7147521972656,-19.40192413330078,60.4653434753418,23.093820571899414,77.91993713378906,-23.481536865234375,65535.0
18065.855941354155,-873.3653564453125,637.2398681640625,-391.84185791015625,-394.7795715332031,-23.028776168823242,56.175636291503906,20.31087303161621,76.17601013183594,-34.93052291870117,65535.0
18065.85634136271,-885.7969970703125,650.609130859375,-386.4121398925781,-394.24468994140625,-11.152060508728027,65.6725082397461,31.472402572631836,86.21646118164062,-27.886001586914062,65535.0
18065.85674137126,-906.7457275390625,652.9935302734375,-391.8125,-423.6051940917969,-12.554067611694336,62.62633514404297,27.282991409301758,82.00762176513672,-33.428558349609375,65535.0
18065.857141379813,-912.166748046875,661.18017578125,-398.50311279296875,-467.1836853027344,-21.766063690185547,55.48794937133789,21.016002655029297,76.51030731201172,-33.148040771484375,65535.0
18065.857541388366,-924.0512084960938,657.7406005859375,-402.6312255859375,-518.54248046875,-19.44742774963379,56.880611419677734,24.9995174407959,81.42982482910156,-34.17100143432617,65535.0
18065.857941396916,-937.09716796875,659.8277587890625,-386.43780517578125,-552.741943359375,-26.9506778717041,45.451290130615234,14.447590827941895,71.608154296875,-41.36624526977539,65535.0
18065.85834140547,-922.2887573242188,659.888916015625,-383.4915771484375,-577.943603515625,-39.257041931152344,32.194908142089844,3.006006956100464,58.778709411621094,-33.96355056762695,65535.0
18065.858741414024,-910.654296875,659.9522094726562,-385.38885498046875,-593.6080932617188,-30.916963577270508,37.581573486328125,11.40233325958252,64.68362426757812,-25.01447105407715,65535.0
18065.859141422578,-914.7395629882812,671.1556396484375,-388.2513122558594,-598.4511108398438,-16.344757080078125,51.63970184326172,26.023542404174805,78.09685516357422,-25.076671600341797,65535.0
18065.859541431128,-922.6971435546875,665.4644775390625,-377.15545654296875,-605.6556396484375,-28.555784225463867,43.97512435913086,17.380693435668945,72.42558288574219,-33.13554000854492,65535.0
18065.85994143968,-920.9578247070312,657.6138916015625,-373.1334533691406,-612.9407348632812,-40.01101303100586,29.784290313720703,5.575893878936768,59.07201385498047,-41.43002700805664,65535.0
18065.860341448235,-922.0350341796875,669.2887573242188,-373.2330322265625,-609.67578125,-42.46995162963867,23.055538177490234,1.1224563121795654,56.606590270996094,-30.42042350769043,65535.0
18065.860741456785,-925.0103759765625,674.451171875,-374.5938415527344,-599.4478149414062,-34.54407501220703,28.991422653198242,6.134681701660156,63.15141296386719,-20.413713455200195,65535.0
18065.86114146534,-913.9920043945312,679.4259643554688,-367.89569091796875,-596.6409912109375,-27.075103759765625,38.075843811035156,14.493589401245117,70.96385955810547,-21.5020694732666,65535.0
18065.861541473892,-909.2655029296875,672.5344848632812,-360.1888732910156,-571.4568481445312,-22.45852279663086,40.0557746887207,16.11173439025879,72.58357238769531,-32.41197967529297,65535.0
18065.861941482446,-917.05517578125,665.1727294921875,-352.4562683105469,-517.6697387695312,-38.45773696899414,21.066728591918945,2.2268762588500977,55.417808532714844,-30.745107650756836,65535.0
18065.862341490996,-899.8096313476562,664.7325439453125,-368.8769226074219,-499.6184997558594,-44.55958938598633,12.970322608947754,-2.20053768157959,53.94284439086914,-29.46375274658203,65535.0
18065.86274149955,-888.9301147460938,664.9397583007812,-375.1400146484375,-520.9069213867188,-30.230682373046875,26.838502883911133,8.419428825378418,64.44898223876953,-32.44307327270508,65535.0
18065.863141508104,-889.8594360351562,663.7130126953125,-379.3707580566406,-549.0419311523438,-38.003326416015625,24.27817726135254,1.705491065979004,60.628692626953125,-31.782682418823242,65535.0
18065.863541516654,-876.1860961914062,664.7662353515625,-371.4458923339844,-581.8768920898438,-30.9769229888916,29.256406784057617,10.231531143188477,68.16425323486328,-26.493282318115234,65535.0
18065.863941525207,-867.8701782226562,660.9154663085938,-372.4756164550781,-590.370361328125,-30.646469116210938,31.608531951904297,12.675249099731445,68.70442199707031,-29.726791381835938,65535.0
18065.86434153376,-863.0869750976562,653.5156860351562,-372.7957458496094,-596.3011474609375,-28.323251724243164,35.86320114135742,15.926630973815918,71.8674087524414,-33.40955352783203,65535.0
18065.864741542315,-862.3840942382812,651.0809326171875,-379.2854919433594,-594.9230346679688,-37.05604553222656,25.705495834350586,5.760524272918701,63.245025634765625,-26.263504028320312,65535.0
18065.865141550865,-857.8933715820312,647.93115234375,-385.3179016113281,-565.9176635742188,-34.200130462646484,29.78561782836914,8.00190258026123,64.86833953857422,-10.516378402709961,65535.0
18065.86554155942,-854.6436767578125,653.8527221679688,-382.9981689453125,-526.5900268554688,-38.964759826660156,24.706945419311523,3.2599573135375977,57.08177947998047,-19.015453338623047,65535.0
18065.865941567972,-854.3077392578125,648.6141357421875,-384.8459167480469,-512.681640625,-33.29902648925781,28.249608993530273,7.083792686462402,62.640350341796875,-32.933990478515625,65535.0
18065.866341576522,-850.694091796875,646.9097290039062,-388.4154052734375,-497.2035217285156,-27.38611602783203,40.32671356201172,15.527456283569336,73.07215881347656,-24.565465927124023,65535.0
18065.866741585076,-836.5648193359375,652.3746948242188,-387.6915283203125,-474.171142578125,-35.605079650878906,37.447792053222656,10.376906394958496,66.00535583496094,-27.784637451171875,65535.0
18065.86714159363,-829.0050659179688,642.9315795898438,-389.2032470703125,-458.32672119140625,-24.238006591796875,43.27362060546875,19.822185516357422,73.27478790283203,-39.851436614990234,65535.0
18065.86754160218,-813.2835693359375,641.5958862304688,-384.10931396484375,-450.2132873535156,-29.918441772460938,39.869956970214844,14.038921356201172,65.80412292480469,-19.3879337310791,65535.0
18065.867941610733,-803.3607788085938,642.4860229492188,-390.3636474609375,-460.6387023925781,-25.720317840576172,46.3348503112793,17.696496963500977,72.65882873535156,-29.382266998291016,65535.0
18065.868341619287,-786.662353515625,637.47705078125,-395.2335205078125,-474.9620056152344,-19.450544357299805,50.22202682495117,18.99440574645996,78.03483581542969,-21.22909927368164,65535.0
18065.86874162784,-797.9432983398438,639.880126953125,-400.514892578125,-485.5899658203125,-26.96242904663086,45.500667572021484,14.39861011505127,71.36144256591797,-20.255094528198242,65535.0
18065.86914163639,-832.2066040039062,635.2857666015625,-408.0555114746094,-492.1156921386719,-14.629976272583008,60.28184509277344,26.836803436279297,82.89463806152344,-34.79148864746094,65535.0
18065.869541644945,-858.4072875976562,629.2495727539062,-404.8118896484375,-491.30535888671875,-21.119611740112305,56.037227630615234,21.270151138305664,77.56424713134766,-26.274629592895508,65535.0
18065.8699416535,-872.1647338867188,623.2991943359375,-410.07025146484375,-505.57470703125,-12.582599639892578,68.14751434326172,28.294940948486328,83.16300201416016,-27.363868713378906,65535.0
18065.87034166205,-873.1452026367188,619.6258544921875,-401.7126770019531,-517.84130859375,-27.718338012695312,54.57451629638672,16.389347076416016,72.34215545654297,-27.340755462646484,65535.0
18065.870741670602,-873.3020629882812,621.04345703125,-397.85406494140625,-514.4492797851562,-16.07744598388672,62.242950439453125,25.821569442749023,82.67285919189453,-22.22079849243164,65535.0
18065.871141679156,-860.2725219726562,614.9638061523438,-387.12603759765625,-499.5054931640625,-12.790396690368652,72.02052307128906,30.433006286621094,85.58146667480469,-27.130407333374023,65535.0
18065.87154168771,-851.4137573242188,619.240966796875,-390.78955078125,-484.4679260253906,-11.690739631652832,77.6545181274414,33.13268280029297,89.06265258789062,-30.423946380615234,65535.0
18065.87194169626,-866.980712890625,626.62939453125,-386.5821533203125,-463.1627197265625,-9.954832077026367,76.41282653808594,31.55360984802246,87.47261047363281,-41.01889419555664,65535.0
18065.872341704813,-862.2469482421875,629.5484008789062,-388.0918884277344,-436.2743835449219,-13.646506309509277,70.8246078491211,26.426225662231445,82.34183502197266,-34.0388069152832,65535.0
18065.872741713367,-841.5578002929688,620.4140014648438,-386.7726745605469,-415.7082824707031,-11.458614349365234,71.47853088378906,28.292827606201172,84.2916488647461,-35.24176788330078,65535.0
18065.873141721917,-854.671142578125,619.6535034179688,-384.09930419921875,-381.4678955078125,-17.140609741210938,66.80196380615234,28.270395278930664,81.72897338867188,-30.6329288482666,65535.0
18065.87354173047,-838.7332763671875,634.0469970703125,-378.84368896484375,-371.69036865234375,-7.602765083312988,76.88799285888672,35.927005767822266,89.54888916015625,-26.84471893310547,65535.0
18065.873941739024,-835.8798828125,632.3079223632812,-380.18328857421875,-419.958984375,-9.327543258666992,75.5412826538086,34.04832458496094,89.9299087524414,-16.113391876220703,65535.0
18065.874341747578,-819.0184326171875,634.0274658203125,-369.7764587402344,-472.46038818359375,-15.786828994750977,69.43111419677734,28.538442611694336,85.29743194580078,-8.065374374389648,65535.0
18065.874741756128,-769.9417114257812,639.2755126953125,-374.957763671875,-483.69976806640625,-9.874017715454102,73.31344604492188,33.123199462890625,85.14381408691406,-40.85757064819336,65535.0
18065.87514176468,-742.60498046875,635.3549194335938,-372.1390075683594,-478.8930358886719,5.702198028564453,91.46476745605469,47.17949676513672,103.1736068725586,-45.68639373779297,65535.0
18065.875541773235,-736.4463500976562,633.8726196289062,-372.4100036621094,-474.0096130371094,-11.028702735900879,71.31301879882812,32.45783233642578,87.9060287475586,-29.262805938720703,65535.0
18065.875941781786,-735.1367797851562,638.983154296875,-379.93646240234375,-479.4991149902344,-19.65166473388672,62.99241638183594,24.00975799560547,81.82962799072266,-32.34461212158203,65535.0
18065.87634179034,-762.3681030273438,640.7042236328125,-377.0670471191406,-491.2491760253906,-12.115939140319824,68.57408905029297,27.83470344543457,85.30643463134766,-30.625873565673828,65535.0
18065.876741798893,-818.571533203125,642.0552368164062,-380.29583740234375,-496.03662109375,-13.63283634185791,63.560245513916016,29.85961151123047,83.80927276611328,-28.69622230529785,65535.0
18065.877141807447,-861.1018676757812,645.6618041992188,-380.05389404296875,-516.885009765625,-8.546279907226562,69.9676513671875,33.49795150756836,85.84336853027344,-31.244470596313477,65535.0
18065.877541815997,-856.0940551757812,647.7089233398438,-375.4713439941406,-533.3994140625,-15.34769058227539,64.30414581298828,29.304330825805664,82.5975341796875,-39.20566177368164,65535.0
18065.87794182455,-834.0001220703125,641.7731323242188,-377.61517333984375,-545.6356201171875,-18.684167861938477,55.48539352416992,22.952146530151367,79.278564453125,-32.48796463012695,65535.0
18065.878341833104,-819.88916015625,633.3451538085938,-374.6724853515625,-540.2278442382812,-20.93442726135254,54.562034606933594,23.206205368041992,78.1197509765625,-25.868959426879883,65535.0
18065.878741841654,-817.6658935546875,637.3551025390625,-365.58160400390625,-517.7548217773438,-32.973472595214844,39.06201171875,11.135641098022461,64.37989044189453,-10.493502616882324,65535.0
18065.879141850208,-814.775634765625,649.0903930664062,-361.4913330078125,-498.725830078125,-25.566368103027344,44.45891189575195,18.138504028320312,70.90459442138672,-33.98566818237305,65535.0
18065.87954185876,-857.7479248046875,655.0875854492188,-348.4552307128906,-481.61376953125,-17.5382137298584,50.480934143066406,23.67009735107422,78.24529266357422,-38.156654357910156,65535.0
18065.879941867315,-915.0621337890625,653.9960327148438,-354.4930114746094,-475.9371337890625,-22.041648864746094,43.51705551147461,19.11725616455078,73.4949722290039,-53.48878860473633,65535.0
18065.880341875865,-961.4129028320312,655.5318603515625,-356.903564453125,-478.2067565917969,-27.000654220581055,41.36791229248047,18.557018280029297,71.5286636352539,-42.29173278808594,65535.0
18065.88074188442,-1026.7978515625,664.8666381835938,-364.2794189453125,-464.9423522949219,-34.5778694152832,33.29893493652344,8.288246154785156,64.19632720947266,-35.11378860473633,65535.0
18065.881141892973,-1058.5509033203125,663.9998779296875,-363.57366943359375,-448.85894775390625,-35.54268264770508,28.57138442993164,6.082240104675293,63.103912353515625,-40.184043884277344,65535.0
18065.881541901523,-1024.39306640625,655.9874267578125,-374.9029846191406,-427.51141357421875,-35.385467529296875,28.403217315673828,8.970876693725586,63.47512435913086,-32.17652893066406,65535.0
18065.881941910076,-995.690185546875,654.3139038085938,-379.821044921875,-418.5987854003906,-32.22917938232422,29.260059356689453,9.346810340881348,65.02401733398438,-31.977773666381836,65535.0
18065.88234191863,-967.4161987304688,643.1300048828125,-402.60235595703125,-433.8229675292969,-25.733152389526367,39.10950469970703,16.801204681396484,72.91474151611328,-25.083898544311523,65535.0
18065.882741927184,-941.2976684570312,643.099853515625,-405.7674255371094,-452.7767028808594,-38.968109130859375,26.887611389160156,4.3718390464782715,61.08974838256836,-30.342485427856445,65535.0
18065.883141935734,-930.520751953125,637.2591552734375,-405.01641845703125,-452.37982177734375,-44.45649719238281,12.077643394470215,-2.3160881996154785,52.28971481323242,-23.17961311340332,65535.0
18065.883541944288,-873.9697875976562,641.4844970703125,-407.99615478515625,-448.6155700683594,-29.091251373291016,29.644643783569336,11.099630355834961,68.05216979980469,-27.93732452392578,65535.0
18065.88394195284,-813.1124267578125,638.5676879882812,-400.2650451660156,-444.35662841796875,-35.03730392456055,25.983423233032227,5.267727851867676,61.06569290161133,-53.10308074951172,65535.0
18065.88434196139,-763.042724609375,632.65087890625,-393.1602783203125,-476.51611328125,-28.528039932250977,30.79620361328125,14.154755592346191,69.61170196533203,-45.476890563964844,65535.0
18065.884741969945,-777.12646484375,628.9278564453125,-392.5884704589844,-503.3895568847656,-18.885120391845703,43.92201232910156,22.74700355529785,77.6759033203125,-35.944664001464844,65535.0
18065.8851419785,-822.4745483398438,628.6401977539062,-397.4653015136719,-510.2915954589844,-26.48328399658203,39.0585823059082,14.402752876281738,72.41768646240234,-33.04996109008789,65535.0
18065.885541987052,-848.443115234375,618.7308349609375,-392.5111389160156,-527.630859375,-28.168621063232422,36.91525650024414,15.1170015335083,70.97740173339844,-34.33638381958008,65535.0
18065.885941995602,-843.8720703125,612.924560546875,-381.12908935546875,-522.6842651367188,-26.751583099365234,37.78339385986328,15.469049453735352,70.8201904296875,-36.44240188598633,65535.0
18065.886342004156,-833.758056640625,619.7467041015625,-385.91400146484375,-483.7083435058594,-20.094280242919922,45.2709846496582,21.446653366088867,76.45538330078125,-28.274564743041992,65535.0
18065.88674201271,-833.542724609375,621.3541870117188,-391.6795654296875,-460.80401611328125,-26.334787368774414,39.13824462890625,14.263482093811035,71.2712173461914,-35.308448791503906,65535.0
18065.88714202126,-833.6063842773438,611.328125,-385.8194580078125,-446.4267272949219,-28.879880905151367,37.974708557128906,11.358308792114258,68.6137466430664,-54.09587097167969,65535.0
18065.887542029814,-838.2334594726562,604.1302490234375,-383.97039794921875,-435.362548828125,-21.918182373046875,45.586708068847656,20.04986572265625,75.8082275390625,-29.28943634033203,65535.0
18065.887942038367,-838.0571899414062,602.86181640625,-382.8835144042969,-439.0758056640625,-14.042652130126953,55.0015869140625,27.465166091918945,80.64307403564453,-19.755413055419922,65535.0
18065.88834204692,-833.6004028320312,599.8416748046875,-388.87042236328125,-435.291015625,-12.126818656921387,60.816043853759766,29.29204559326172,82.96981811523438,-26.234766006469727,65535.0
18065.88874205547,-835.327880859375,594.9296264648438,-382.0741882324219,-459.1260986328125,-7.420589447021484,71.05207824707031,33.55060577392578,90.17454528808594,-42.223411560058594,65535.0
18065.889142064025,-836.5945434570312,593.0785522460938,-382.2723388671875,-476.4884033203125,-12.12275218963623,66.05812072753906,31.59625816345215,86.35417175292969,-36.083274841308594,65535.0
18065.88954207258,-828.5257568359375,595.8490600585938,-394.7221984863281,-484.21917724609375,-5.799644947052002,73.63788604736328,39.04650115966797,93.58121490478516,-32.63003921508789,65535.0
18065.88994208113,-838.6971435546875,588.6679077148438,-398.00152587890625,-479.64410400390625,-11.977554321289062,68.16732025146484,29.536109924316406,85.66407012939453,-30.753273010253906,65535.0
18065.890342089682,-843.2201538085938,591.0303955078125,-395.3899841308594,-450.939453125,-11.903026580810547,67.51038360595703,27.085189819335938,82.25906372070312,-34.0351448059082,65535.0
18065.890742098236,-831.6832885742188,590.0582275390625,-396.0841979980469,-441.5751647949219,-10.632452964782715,72.2373275756836,33.26493835449219,85.779296875,-33.2535285949707,65535.0
18065.89114210679,-836.763671875,595.1466674804688,-407.66162109375,-434.265625,-14.405379295349121,68.94172668457031,29.220088958740234,84.1664810180664,-39.067718505859375,65535.0
18065.89154211534,-848.59326171875,605.7405395507812,-405.2298278808594,-438.1354675292969,-24.6687068939209,58.24842834472656,19.101171493530273,76.57431030273438,-23.90648651123047,65535.0
18065.891942123893,-863.28076171875,603.232177734375,-387.7284851074219,-436.0039367675781,-12.528724670410156,72.85623931884766,32.72702407836914,86.66639709472656,-25.185686111450195,65535.0
18065.892342132447,-869.6322021484375,606.2571411132812,-390.95574951171875,-418.7078552246094,-10.377570152282715,76.86165618896484,34.66265869140625,89.97838592529297,-41.04981994628906,65535.0
18065.892742140997,-864.8115844726562,618.7595825195312,-397.9853820800781,-414.676513671875,-6.719286918640137,79.20035552978516,37.226280212402344,92.2757568359375,-36.05903244018555,65535.0
18065.89314214955,-858.26953125,603.0296020507812,-387.42138671875,-425.17108154296875,-14.37559986114502,71.94522857666016,30.272459030151367,85.44514465332031,-40.24714660644531,65535.0
18065.893542158105,-859.7898559570312,600.8409423828125,-392.1908264160156,-449.28643798828125,-10.37424373626709,78.6829833984375,33.9443473815918,90.630615234375,-34.130348205566406,65535.0
18065.89394216666,-881.6567993164062,613.6065063476562,-389.466064453125,-468.3818664550781,-2.482703447341919,81.13646697998047,37.163455963134766,91.4642562866211,-16.67919158935547,65535.0
18065.89434217521,-896.8279418945312,612.3442993164062,-382.3153991699219,-471.5655212402344,-16.439207077026367,65.63339233398438,26.856897354125977,82.20384979248047,-32.3110466003418,65535.0
18065.894742183762,-880.60693359375,613.44677734375,-388.4179382324219,-495.2778015136719,-19.38660430908203,58.69499588012695,22.923858642578125,77.77540588378906,-36.929161071777344,65535.0
18065.895142192316,-885.8817749023438,606.5648193359375,-382.08984375,-540.6890869140625,-13.713159561157227,65.97527313232422,26.985626220703125,81.50445556640625,-26.403881072998047,65535.0
18065.895542200866,-901.394775390625,610.1358642578125,-382.54345703125,-578.5465698242188,-14.043399810791016,65.45000457763672,27.430252075195312,82.958251953125,-21.978790283203125,65535.0
18065.89594220942,-934.6359252929688,615.9671630859375,-388.68267822265625,-596.0385131835938,-7.133807182312012,72.35897064208984,36.93378829956055,92.38835906982422,-30.168977737426758,65535.0
18065.896342217973,-958.6690673828125,614.9825439453125,-384.20947265625,-599.9238891601562,-12.75510025024414,68.81090545654297,29.44986915588379,85.00434875488281,-38.361061096191406,65535.0
18065.896742226527,-935.833251953125,615.9876098632812,-385.0047302246094,-592.2821655273438,-10.827554702758789,69.27032470703125,30.864152908325195,86.95651245117188,-38.713687896728516,65535.0
18065.897142235077,-925.20458984375,616.5331420898438,-391.5956726074219,-567.69921875,-5.458601951599121,72.7884521484375,37.25554275512695,88.8140640258789,-37.51975631713867,65535.0
18065.89754224363,-928.4830932617188,625.2521362304688,-387.1285095214844,-548.5775146484375,-17.036590576171875,57.257503509521484,24.244352340698242,79.00005340576172,-36.548885345458984,65535.0
18065.897942252184,-924.3890991210938,629.0667724609375,-380.1258850097656,-533.3060302734375,-6.305424690246582,68.38471984863281,34.52517318725586,89.86727905273438,-16.952058792114258,65535.0
18065.898342260734,-959.2572021484375,628.8124389648438,-370.35150146484375,-527.1365966796875,-16.50005340576172,59.38188552856445,25.484088897705078,83.60746765136719,-34.187984466552734,65535.0
18065.898742269288,-981.1340942382812,633.5328979492188,-371.4557800292969,-532.6621704101562,-19.553775787353516,51.26107406616211,18.78462028503418,79.05973815917969,-37.092220306396484,65535.0
18065.89914227784,-980.2998046875,635.3582153320312,-366.5668029785156,-527.7146606445312,-22.841638565063477,50.264347076416016,20.005064010620117,75.35565948486328,-32.763328552246094,65535.0
18065.899542286395,-993.4381713867188,632.3963012695312,-369.0091552734375,-502.04742431640625,-20.15017318725586,53.23689651489258,26.741058349609375,78.9883041381836,-46.42656707763672,65535.0
18065.899942294946,-1009.2799682617188,638.315673828125,-369.8428955078125,-483.64178466796875,-28.853574752807617,38.70538330078125,12.190196990966797,66.95556640625,-45.43079376220703,65535.0
18065.9003423035,-1001.234375,630.0892944335938,-372.48504638671875,-476.9626770019531,-18.18259620666504,47.5502815246582,21.775083541870117,76.31111907958984,-43.33849334716797,65535.0
18065.900742312053,-986.2705688476562,646.448974609375,-362.6108093261719,-461.001708984375,-26.68531036376953,38.35251235961914,18.67359733581543,71.15312194824219,-36.50663757324219,65535.0
18065.901142320603,-964.7842407226562,638.7738037109375,-361.6536560058594,-435.1174621582031,-32.31752395629883,32.14340591430664,8.424575805664062,66.60920715332031,-34.234989166259766,65535.0
18065.901542329157,-946.8242797851562,637.3356323242188,-364.0920104980469,-429.39752197265625,-36.85606002807617,26.508411407470703,5.117541790008545,62.74294662475586,-32.23683166503906,65535.0
18065.90194233771,-933.888671875,634.9241333007812,-372.9815979003906,-424.0999450683594,-30.730358123779297,29.48833656311035,10.78598403930664,68.85327911376953,-29.259597778320312,65535.0
18065.902342346264,-949.7034301757812,627.5193481445312,-378.3969421386719,-429.08538818359375,-37.047607421875,25.203506469726562,4.394667625427246,61.08050537109375,-35.06660461425781,65535.0
18065.902742354814,-965.4920654296875,624.7564697265625,-376.22943115234375,-439.392578125,-35.625465393066406,29.36003303527832,6.845154762268066,63.1219596862793,-30.613975524902344,65535.0
18065.903142363368,-950.9931640625,620.2117919921875,-379.031982421875,-424.8350524902344,-31.302398681640625,30.7782039642334,10.910384178161621,66.59451293945312,-37.243011474609375,65535.0
18065.90354237192,-908.9027099609375,624.4317626953125,-381.0279846191406,-404.7165222167969,-32.586360931396484,30.557748794555664,10.327929496765137,65.8887939453125,-36.6156120300293,65535.0
18065.90394238047,-867.986083984375,621.4765625,-377.66455078125,-386.5445861816406,-33.79018783569336,30.860353469848633,9.545827865600586,65.08492279052734,-44.159549713134766,65535.0
18065.904342389025,-825.9766235351562,624.4080810546875,-379.5512390136719,-400.5294189453125,-30.47072410583496,34.604000091552734,12.922282218933105,68.44405364990234,-39.9687614440918,65535.0
18065.90474239758,-802.6207885742188,620.1614990234375,-379.4613037109375,-410.839599609375,-29.653587341308594,33.945770263671875,13.32755184173584,66.92497253417969,-20.09800148010254,65535.0
18065.905142406133,-804.5087280273438,612.608154296875,-386.60302734375,-401.7248840332031,-26.02718734741211,37.92250061035156,14.827027320861816,69.47616577148438,-34.08202362060547,65535.0
18065.905542414683,-794.9996337890625,615.0947265625,-385.66534423828125,-393.2496337890625,-26.35382080078125,44.19300842285156,16.622690200805664,72.68861389160156,-39.03205871582031,65535.0
18065.905942423236,-802.6454467773438,601.4469604492188,-384.17608642578125,-396.0744934082031,-17.54194450378418,49.16438293457031,23.762231826782227,77.51695251464844,-29.0252742767334,65535.0
18065.90634243179,-820.8010864257812,607.831787109375,-381.06689453125,-420.72003173828125,-18.073974609375,50.711727142333984,24.11919593811035,80.80449676513672,-39.13903045654297,65535.0
18065.90674244034,-809.4490356445312,606.964599609375,-386.6465759277344,-476.3609313964844,-23.01115608215332,48.872676849365234,19.421165466308594,75.06011199951172,-35.65730667114258,65535.0
18065.907142448894,-784.8458251953125,611.5119018554688,-377.805419921875,-546.9386596679688,-24.338178634643555,41.50333023071289,15.222492218017578,69.49830627441406,-38.68762969970703,65535.0
18065.907542457448,-777.006103515625,609.154296875,-386.3804931640625,-591.859130859375,-30.890216827392578,39.423282623291016,10.134689331054688,68.12565612792969,-29.969789505004883,65535.0
18065.907942466,-810.697509765625,605.3670654296875,-385.3370666503906,-633.6243286132812,-32.532169342041016,40.59194564819336,10.739896774291992,67.10626983642578,-43.423580169677734,65535.0
18065.90834247455,-837.567138671875,610.3811645507812,-385.0185241699219,-653.89892578125,-34.84889602661133,34.809940338134766,6.4728169441223145,62.69440841674805,-43.70822525024414,65535.0
18065.908742483105,-833.5426635742188,600.0737915039062,-401.7690734863281,-682.5086669921875,-20.46487808227539,51.53489685058594,24.16585922241211,76.31909942626953,-39.81764221191406,65535.0
18065.90914249166,-824.1337280273438,594.6072998046875,-406.2597351074219,-699.30712890625,-31.388874053955078,48.82007598876953,15.90544605255127,69.32674407958984,-37.61383819580078,65535.0
18065.90954250021,-814.1697387695312,595.2332153320312,-398.5202331542969,-725.985107421875,-24.939067840576172,52.235477447509766,17.849674224853516,74.27458953857422,-43.318904876708984,65535.0
18065.909942508762,-827.2926025390625,596.3802490234375,-404.0194396972656,-719.850830078125,-0.36386919021606445,79.83846282958984,41.52555465698242,97.3454818725586,-24.422500610351562,65535.0
18065.910342517316,-858.7683715820312,590.8535766601562,-394.8200988769531,-682.5110473632812,-6.259401321411133,76.1275405883789,35.24622344970703,90.72616577148438,-25.157493591308594,65535.0
18065.91074252587,-878.1603393554688,585.0485229492188,-398.7054443359375,-652.0240478515625,-11.545639991760254,71.74815368652344,31.75465965270996,85.62886047363281,-45.304290771484375,65535.0
18065.91114253442,-897.8308715820312,590.0350341796875,-406.2840881347656,-596.462158203125,-15.037094116210938,67.34471893310547,27.800338745117188,83.69694519042969,-39.846763610839844,65535.0
18065.911542542974,-913.4706420898438,599.8359985351562,-399.70361328125,-527.0119018554688,-10.887426376342773,73.76591491699219,29.862815856933594,85.78608703613281,-37.763633728027344,65535.0
18065.911942551527,-908.0487670898438,602.42822265625,-393.8382873535156,-439.6549072265625,-2.6638426780700684,83.38343811035156,39.37900161743164,94.78643035888672,-31.075204849243164,65535.0
18065.912342560077,-904.6580810546875,592.9288330078125,-388.45770263671875,-362.2752380371094,1.9917737245559692,88.99633026123047,42.00071716308594,99.72193145751953,-28.13051414489746,65535.0
18065.91274256863,-908.0462036132812,595.5914916992188,-389.3951416015625,-346.71697998046875,0.18186703324317932,86.16289520263672,39.083900451660156,96.86588287353516,-39.40507507324219,65535.0
18065.913142577185,-884.6332397460938,597.7975463867188,-378.1086730957031,-347.3518981933594,8.723442077636719,97.0547866821289,50.9854850769043,105.91447448730469,-32.751747131347656,65535.0
18065.91354258574,-862.8905029296875,598.1044311523438,-384.88592529296875,-374.0809020996094,10.802107810974121,97.85477447509766,54.868045806884766,106.89142608642578,-35.878662109375,65535.0
18065.91394259429,-887.18212890625,609.7763671875,-386.13018798828125,-431.9849548339844,-3.19048810005188,85.21320343017578,38.697147369384766,97.5052261352539,-36.91048812866211,65535.0
18065.914342602842,-909.4456176757812,616.8776245117188,-384.1825866699219,-493.4966125488281,-12.367009162902832,69.23291778564453,29.5318603515625,85.86703491210938,-29.591318130493164,65535.0
18065.914742611396,-910.1664428710938,609.4907836914062,-380.3141784667969,-530.1469116210938,-14.378862380981445,64.8006820678711,27.90961456298828,85.21456909179688,-40.06113052368164,65535.0
18065.915142619946,-904.2487182617188,611.3834838867188,-374.6429748535156,-552.076416015625,-18.921998977661133,62.8444938659668,25.557872772216797,81.46902465820312,-47.3140869140625,65535.0
18065.9155426285,-900.5198974609375,608.561767578125,-378.96282958984375,-560.3946533203125,-15.946505546569824,64.33153533935547,25.926454544067383,78.35185241699219,-31.166582107543945,65535.0
18065.915942637053,-916.5077514648438,608.2442626953125,-378.7384948730469,-516.3915405273438,-17.11661720275879,60.84257125854492,23.868122100830078,76.25070190429688,-32.2754020690918,65535.0
18065.916342645607,-930.8109741210938,603.5841674804688,-379.43292236328125,-464.3212585449219,-15.023399353027344,63.952369689941406,25.350183486938477,81.4659194946289,-33.39981460571289,65535.0
18065.916742654157,-910.0753784179688,604.2578125,-383.4129638671875,-447.1344299316406,-12.355416297912598,67.95653533935547,32.19394302368164,85.31863403320312,-40.31867218017578,65535.0
18065.91714266271,-907.2468872070312,604.5739135742188,-387.8563537597656,-428.8330383300781,-9.973000526428223,69.37435913085938,35.3541145324707,87.31194305419922,-33.710304260253906,65535.0
18065.917542671265,-919.5623779296875,612.5940551757812,-382.218505859375,-419.2029724121094,-13.580334663391113,63.33429718017578,30.85411262512207,84.74126434326172,-31.041963577270508,65535.0
18065.917942679815,-900.4829711914062,609.6792602539062,-379.3176574707031,-438.17724609375,-5.132940769195557,69.0052261352539,36.84670639038086,93.05106353759766,-42.335487365722656,65535.0
18065.91834268837,-874.8716430664062,592.358154296875,-381.28515625,-437.0473327636719,-24.459436416625977,53.624778747558594,21.859643936157227,76.1358871459961,-36.9677619934082,65535.0
18065.918742696922,-867.5087890625,603.4421997070312,-361.84552001953125,-418.6900939941406,-34.77919387817383,37.91690444946289,8.711771011352539,64.79360961914062,-31.560590744018555,65535.0
18065.919142705476,-867.8015747070312,611.5828247070312,-358.8458557128906,-415.1249694824219,-26.131895065307617,44.89958190917969,18.237804412841797,73.87600708007812,-50.44084167480469,65535.0
18065.919542714026,-888.217041015625,605.52001953125,-360.4048767089844,-440.1840515136719,-31.242834091186523,39.9315071105957,13.644721984863281,67.92060852050781,-41.35797882080078,65535.0
18065.91994272258,-901.4552612304688,615.1483154296875,-357.1379699707031,-464.0094909667969,-24.34612274169922,41.10213851928711,18.736068725585938,73.45867156982422,-37.44868087768555,65535.0
18065.920342731133,-893.5982666015625,622.3544921875,-356.1706237792969,-486.2183837890625,-34.70101547241211,32.73829650878906,6.579512596130371,63.21257781982422,-37.1358642578125,65535.0
18065.920742739683,-866.21435546875,628.1900024414062,-367.0562744140625,-509.212890625,-29.09365463256836,37.27088165283203,14.92798137664795,69.6667709350586,-36.402713775634766,65535.0
18065.921142748237,-829.6312866210938,621.609619140625,-362.1476745605469,-521.3782958984375,-25.30582618713379,41.77943420410156,21.370136260986328,74.4944839477539,-24.8651065826416,65535.0
18065.92154275679,-768.2854614257812,622.2644653320312,-365.5680847167969,-517.3615112304688,-25.504545211791992,39.0318489074707,18.11919403076172,72.88348388671875,-53.20583724975586,65535.0
18065.921942765344,-743.4711303710938,612.2297973632812,-375.5941467285156,-492.47454833984375,-19.450246810913086,40.47300720214844,20.97163963317871,74.7394790649414,-42.41884231567383,65535.0
18065.922342773894,-761.61474609375,612.0848999023438,-379.0126647949219,-467.490234375,-27.73019027709961,31.587594985961914,14.674039840698242,70.1375961303711,-29.916248321533203,65535.0
18065.922742782448,-798.905029296875,607.9293212890625,-376.1204833984375,-453.2182922363281,-22.29336166381836,40.048831939697266,20.728757858276367,72.62577056884766,-30.104976654052734,65535.0
18065.923142791,-851.4100341796875,599.0796508789062,-366.4624938964844,-453.9341125488281,-11.558076858520508,53.186344146728516,30.072622299194336,82.69229888916016,-34.884952545166016,65535.0
18065.92354279955,-869.069091796875,601.198974609375,-374.8798522949219,-454.64556884765625,-30.117630004882812,35.08601760864258,13.011025428771973,67.3464584350586,-41.630191802978516,65535.0
18065.923942808105,-866.500244140625,599.0685424804688,-374.3468933105469,-459.192626953125,-37.03590774536133,25.446508407592773,6.216899871826172,62.98312759399414,-25.68181800842285,65535.0
18065.92434281666,-867.28369140625,600.7327880859375,-373.98809814453125,-465.6784362792969,-27.32209587097168,34.71152114868164,12.880352973937988,69.96244812011719,-36.806427001953125,65535.0
18065.924742825213,-894.3757934570312,598.0581665039062,-375.19476318359375,-471.41851806640625,-28.617902755737305,34.49171447753906,11.90667724609375,67.22419738769531,-46.2595100402832,65535.0
18065.925142833763,-907.0521240234375,595.28271484375,-389.5685119628906,-472.2703552246094,-45.116981506347656,18.675796508789062,-2.084446430206299,55.23097229003906,-28.7232666015625,65535.0
18065.925542842317,-922.368408203125,594.0549926757812,-385.7703857421875,-466.2887268066406,-36.91440200805664,24.129953384399414,4.183847427368164,57.23470687866211,-39.747501373291016,65535.0
18065.92594285087,-951.5046997070312,585.2229614257812,-375.3083801269531,-440.05230712890625,-32.774658203125,32.53562545776367,10.283268928527832,63.71501159667969,-32.702369689941406,65535.0
18065.92634285942,-988.2484741210938,587.1314086914062,-379.4544372558594,-431.9676818847656,-28.867759704589844,37.84294891357422,15.617879867553711,67.45711517333984,-31.65926742553711,65535.0
18065.926742867974,-983.0099487304688,589.8773193359375,-375.8798828125,-433.8101501464844,-34.028018951416016,30.070337295532227,9.154412269592285,63.5657844543457,-47.297367095947266,65535.0
18065.927142876528,-957.4113159179688,587.9822998046875,-379.467529296875,-442.8968811035156,-27.501724243164062,32.813270568847656,11.94612979888916,66.92427062988281,-57.17334747314453,65535.0
18065.92754288508,-924.1864013671875,581.3062133789062,-383.0187072753906,-451.5601806640625,-32.317527770996094,30.94373893737793,9.873656272888184,66.02550506591797,-39.78660583496094,65535.0
18065.92794289363,-886.2302856445312,596.957763671875,-370.50018310546875,-457.9737548828125,-19.722883224487305,45.87687683105469,22.0590877532959,76.49474334716797,-35.44546127319336,65535.0
18065.928342902185,-861.4303588867188,603.601806640625,-381.2391662597656,-429.4625244140625,-21.03139877319336,47.72224426269531,18.554954528808594,76.07740020751953,-46.9362678527832,65535.0
18065.92874291074,-842.2799682617188,583.8297729492188,-389.4201354980469,-415.655029296875,-31.405242919921875,36.87106704711914,10.794806480407715,68.93695831298828,-32.45326614379883,65535.0
18065.92914291929,-839.6834716796875,582.2988891601562,-383.0989990234375,-412.48138427734375,-24.322607040405273,48.61805725097656,16.19712257385254,71.16473388671875,-31.261131286621094,65535.0
18065.929542927843,-861.8796997070312,583.0426635742188,-394.3080139160156,-426.6474609375,-25.076778411865234,53.411766052246094,16.667131423950195,73.71492004394531,-33.53178405761719,65535.0
18065.929942936396,-860.2272338867188,576.313720703125,-396.8753662109375,-451.6925354003906,-35.06631851196289,41.23120880126953,9.056093215942383,66.55264282226562,-30.695667266845703,65535.0
18065.93034294495,-822.6322021484375,570.1256103515625,-388.2762756347656,-467.9216613769531,-30.53575325012207,47.00954818725586,9.59515380859375,68.92121124267578,-22.76866912841797,65535.0
18065.9307429535,-772.0554809570312,566.1221313476562,-390.03277587890625,-468.9227294921875,-23.4803466796875,54.59812545776367,18.011077880859375,75.53811645507812,-30.360044479370117,65535.0
18065.931142962054,-729.0242919921875,561.660400390625,-387.8763732910156,-451.02996826171875,-16.59978675842285,61.92269515991211,25.977426528930664,79.51837158203125,-48.761390686035156,65535.0
18065.931542970608,-726.5220336914062,564.2962646484375,-374.5115051269531,-430.9848937988281,-10.991057395935059,71.51062774658203,32.868404388427734,86.78234100341797,-33.58216094970703,65535.0
18065.931942979158,-749.2877807617188,569.47412109375,-377.479248046875,-427.7597961425781,-13.289484024047852,69.74707794189453,29.063886642456055,85.60841369628906,-27.466318130493164,65535.0
18065.93234298771,-789.404296875,576.4507446289062,-373.1863708496094,-445.33404541015625,-13.254744529724121,69.07093811035156,29.34609603881836,84.59349822998047,-31.985441207885742,65535.0
18065.932742996265,-832.2564697265625,579.4443969726562,-369.9081115722656,-458.8141784667969,-18.586933135986328,63.606239318847656,24.554439544677734,81.74932861328125,-35.047367095947266,65535.0
18065.93314300482,-855.4270629882812,583.273193359375,-371.69134521484375,-453.7142028808594,-20.535062789916992,62.255828857421875,21.235464096069336,80.00448608398438,-39.094058990478516,65535.0
18065.93354301337,-888.937744140625,582.802490234375,-369.4919128417969,-457.6845397949219,-24.205900192260742,58.55088806152344,19.99781608581543,73.18783569335938,-44.04530334472656,65535.0
18065.933943021922,-915.17431640625,573.377197265625,-371.5560607910156,-469.2547912597656,-23.225181579589844,57.35294723510742,22.295475006103516,73.74201202392578,-36.6734619140625,65535.0
18065.934343030476,-922.8464965820312,587.1832275390625,-361.6559753417969,-459.46405029296875,-13.748422622680664,65.92887878417969,29.180551528930664,82.15949249267578,-42.608272552490234,65535.0
18065.934743039026,-908.4539794921875,592.5430297851562,-356.317626953125,-440.0677185058594,-28.589160919189453,53.083072662353516,17.738889694213867,74.07646179199219,-36.139278411865234,65535.0
18065.93514304758,-908.2534790039062,591.08154296875,-366.6039733886719,-422.09222412109375,-27.790328979492188,52.67772674560547,15.38508129119873,72.82074737548828,-37.01687240600586,65535.0
18065.935543056134,-916.0404052734375,586.0046997070312,-373.2698669433594,-391.8786926269531,-21.74761199951172,53.85641098022461,17.268301010131836,72.79995727539062,-26.42023468017578,65535.0
18065.935943064687,-922.7515869140625,590.904052734375,-372.3182373046875,-378.5569152832031,-28.026493072509766,46.508567810058594,13.532325744628906,67.52156066894531,-42.204891204833984,65535.0
18065.936343073237,-933.9561767578125,597.3541259765625,-375.8858947753906,-371.1341552734375,-20.389183044433594,52.249755859375,18.34347915649414,74.24443054199219,-26.17875862121582,65535.0
18065.93674308179,-951.9764404296875,598.5369262695312,-380.43792724609375,-366.7659912109375,-23.288461685180664,50.79615020751953,17.7783145904541,72.2424087524414,-27.818580627441406,65535.0
18065.937143090345,-965.31201171875,595.3795776367188,-379.8655700683594,-357.5220947265625,-39.13362503051758,36.10477066040039,5.692171573638916,62.075443267822266,-37.894622802734375,65535.0
18065.937543098895,-978.8756103515625,597.9339599609375,-372.21160888671875,-364.17706298828125,-29.550249099731445,40.669891357421875,12.223633766174316,67.63369750976562,-30.431034088134766,65535.0
18065.93794310745,-967.8676147460938,593.883056640625,-368.6468505859375,-369.9241943359375,-22.52573585510254,49.10982131958008,18.65043067932129,73.5427017211914,-28.333715438842773,65535.0
18065.938343116002,-975.093505859375,594.744384765625,-362.5604248046875,-381.1990051269531,-27.197351455688477,45.64919662475586,17.460399627685547,72.54070281982422,-36.27762222290039,65535.0
18065.938743124556,-964.4154663085938,592.0542602539062,-354.8227844238281,-398.8114013671875,-28.603404998779297,37.737823486328125,14.636271476745605,68.5500717163086,-26.50383758544922,65535.0
18065.939143133106,-934.8551635742188,597.089111328125,-355.51678466796875,-423.88140869140625,-30.85753631591797,35.86763381958008,13.154810905456543,66.71309661865234,-19.646278381347656,65535.0
18065.93954314166,-923.0762329101562,606.6245727539062,-356.4227294921875,-471.7707824707031,-31.0314884185791,34.80184555053711,12.664077758789062,67.42760467529297,-27.7385311126709,65535.0
18065.939943150213,-903.4854736328125,600.767333984375,-366.7687072753906,-511.1827392578125,-33.465667724609375,30.376291275024414,8.561125755310059,66.22744750976562,-24.82149887084961,65535.0
18065.940343158763,-870.25439453125,607.6298828125,-358.782958984375,-543.158203125,-31.174707412719727,32.87709045410156,12.364745140075684,67.3941421508789,-33.04920959472656,65535.0
18065.940743167317,-853.4741821289062,598.2339477539062,-350.0624084472656,-564.4065551757812,-29.814922332763672,36.43729019165039,10.632122039794922,69.185791015625,-16.334440231323242,65535.0
18065.94114317587,-864.9100341796875,596.646484375,-348.81146240234375,-562.2901000976562,-29.62713050842285,31.868907928466797,12.566427230834961,68.9847183227539,-21.431867599487305,65535.0
18065.941543184425,-872.6087036132812,592.5272827148438,-354.7418212890625,-548.2861938476562,-32.020782470703125,29.991851806640625,11.459839820861816,67.47484588623047,-39.402008056640625,65535.0
18065.941943192975,-885.055419921875,585.6514892578125,-360.17694091796875,-539.72265625,-45.673240661621094,15.860307693481445,-1.2762691974639893,53.35426712036133,-35.26482009887695,65535.0
18065.94234320153,-903.173828125,576.8117065429688,-362.7296142578125,-532.3280639648438,-41.53410720825195,14.753262519836426,-0.7276681661605835,53.87102508544922,-40.52967071533203,65535.0
18065.942743210082,-888.9776000976562,585.7493286132812,-368.1639404296875,-511.5066833496094,-37.14549255371094,21.539043426513672,7.522074222564697,61.7979621887207,-30.024398803710938,65535.0
18065.943143218632,-881.8343505859375,579.0009765625,-367.05682373046875,-493.8294677734375,-38.05411911010742,21.30341148376465,5.307952404022217,59.9798698425293,-34.3041877746582,65535.0
18065.943543227186,-858.9652709960938,578.697998046875,-362.35870361328125,-499.4603576660156,-42.918453216552734,17.382429122924805,-0.6769497990608215,55.10659408569336,-38.24541473388672,65535.0
18065.94394323574,-839.9093627929688,571.2100219726562,-365.2398986816406,-489.6688537597656,-40.66551208496094,18.009109497070312,1.2618021965026855,57.51416778564453,-32.93974304199219,65535.0
18065.944343244293,-841.86474609375,570.6287231445312,-372.3014221191406,-481.13568115234375,-29.910627365112305,29.492509841918945,11.88538646697998,66.53527069091797,-34.334747314453125,65535.0
18065.944743252843,-857.6453247070312,580.5438232421875,-377.34014892578125,-482.5694580078125,-33.84870910644531,30.260761260986328,11.609774589538574,65.21363067626953,-36.82546615600586,65535.0
18065.945143261397,-889.3212280273438,570.67333984375,-371.21331787109375,-482.3140563964844,-37.50010681152344,26.214473724365234,9.059439659118652,59.095943450927734,-28.848405838012695,65535.0
18065.94554326995,-927.6487426757812,572.4896850585938,-373.6953125,-497.04638671875,-34.363525390625,27.399137496948242,9.291439056396484,64.121337890625,-26.50604248046875,65535.0
18065.9459432785,-982.7789306640625,572.2073974609375,-373.4830322265625,-504.21038818359375,-41.16098403930664,20.548118591308594,3.849022150039673,57.02482986450195,-45.52268981933594,65535.0
18065.946343287054,-1023.5472412109375,571.5582885742188,-375.00555419921875,-489.689697265625,-30.72289276123047,32.14780807495117,12.298712730407715,67.26066589355469,-26.153772354125977,65535.0
18065.946743295608,-1044.23095703125,566.1131591796875,-370.6304931640625,-489.740478515625,-27.002717971801758,39.56835174560547,14.566829681396484,67.07245635986328,-24.50518798828125,65535.0
18065.94714330416,-1033.0667724609375,566.0966796875,-368.98126220703125,-488.3749084472656,-24.55867576599121,39.996826171875,19.15714454650879,71.49008178710938,-40.096839904785156,65535.0
18065.94754331271,-984.8861083984375,554.8278198242188,-381.3858337402344,-508.9062194824219,-31.526596069335938,34.54425811767578,11.773687362670898,64.66876220703125,-34.62001419067383,65535.0
18065.947943321265,-960.2430419921875,559.0509033203125,-373.45367431640625,-524.8914184570312,-34.96759796142578,30.084354400634766,5.2845540046691895,62.18052291870117,-25.95511817932129,65535.0
18065.94834332982,-958.7059936523438,550.853271484375,-365.527587890625,-542.0540161132812,-42.72600173950195,24.919090270996094,-1.4519662857055664,55.084716796875,-27.198532104492188,65535.0
18065.94874333837,-968.1718139648438,551.9959106445312,-375.39208984375,-551.5780029296875,-33.3370246887207,35.10456085205078,10.241231918334961,64.40290069580078,-30.722030639648438,65535.0
18065.949143346923,-978.2672119140625,555.4622192382812,-377.68548583984375,-565.2604370117188,-23.522485733032227,50.274810791015625,20.48052406311035,76.90000915527344,-38.522071838378906,65535.0
18065.949543355477,-973.782958984375,551.4331665039062,-379.72601318359375,-555.6852416992188,-28.78801918029785,46.27516555786133,12.747739791870117,70.87516021728516,-50.99131774902344,65535.0
18065.94994336403,-985.1311645507812,555.7383422851562,-380.7705078125,-547.1005249023438,-36.11667251586914,39.76253128051758,7.849022388458252,63.50022506713867,-35.18718719482422,65535.0
18065.95034337258,-1011.4376831054688,547.2529907226562,-383.8048400878906,-542.5768432617188,-30.32619285583496,45.48780822753906,11.397477149963379,69.00872802734375,-27.543973922729492,65535.0
18065.950743381134,-1022.2926635742188,545.8720703125,-381.0214538574219,-532.3362426757812,-25.83133888244629,52.46433639526367,17.846508026123047,74.05687713623047,-28.247516632080078,65535.0
18065.951143389688,-1024.95556640625,542.006591796875,-372.6020202636719,-534.707763671875,-28.39626693725586,48.48460006713867,12.056373596191406,69.59162139892578,-35.77186584472656,65535.0
18065.951543398238,-1013.1864013671875,536.569091796875,-378.0857238769531,-530.6631469726562,-18.621580123901367,59.04001998901367,21.522480010986328,76.7515869140625,-45.01988220214844,65535.0
18065.95194340679,-999.0623168945312,542.3973999023438,-379.7332763671875,-523.6397094726562,-15.91696548461914,66.1240005493164,27.99020767211914,81.46964263916016,-33.466278076171875,65535.0
18065.952343415345,-987.2786865234375,546.6901245117188,-377.3858642578125,-523.272216796875,-19.97701072692871,62.44355773925781,21.642799377441406,76.51553344726562,-27.00020980834961,65535.0
18065.9527434239,-978.5775146484375,546.6913452148438,-378.7349548339844,-528.2786254882812,-26.626232147216797,57.43311309814453,19.143741607666016,71.32392120361328,-26.86338996887207,65535.0
18065.95314343245,-973.3842163085938,537.9883422851562,-366.664306640625,-527.3935546875,-19.938640594482422,64.27937316894531,24.60052490234375,80.09576416015625,-19.037405014038086,65535.0
18065.953543441003,-945.3839721679688,533.3890380859375,-367.55609130859375,-529.4013061523438,-18.34647560119629,62.52275466918945,23.807788848876953,78.45117950439453,-25.295682907104492,65535.0
18065.953943449556,-927.9490966796875,540.8967895507812,-364.8840637207031,-520.3197021484375,-24.201974868774414,58.0654182434082,18.654390335083008,75.1666030883789,-34.45151901245117,65535.0
18065.954343458106,-940.2932739257812,556.9501953125,-358.5129699707031,-515.955810546875,-25.42695426940918,58.340858459472656,18.474336624145508,74.26647186279297,-36.36328125,65535.0
18065.95474346666,-938.2350463867188,562.1220703125,-359.28912353515625,-526.75830078125,-21.92867660522461,57.447959899902344,21.473472595214844,79.06868743896484,-30.486631393432617,65535.0
18065.955143475214,-925.2042846679688,564.038330078125,-358.1832275390625,-526.1268920898438,-19.884735107421875,60.44343566894531,22.478567123413086,78.59418487548828,-36.92349624633789,65535.0
18065.955543483768,-921.6336059570312,566.137451171875,-354.4087219238281,-520.504150390625,-20.08466148376465,55.92853927612305,20.951330184936523,75.66462707519531,-34.9428596496582,65535.0
18065.955943492318,-914.5476684570312,566.9032592773438,-358.094482421875,-527.7725219726562,-20.918432235717773,55.943504333496094,21.045759201049805,76.08668518066406,-31.58936309814453,65535.0
18065.95634350087,-924.302978515625,568.7418823242188,-350.54840087890625,-524.0714111328125,-28.07952117919922,51.057682037353516,15.684867858886719,71.62094116210938,-36.55635452270508,65535.0
18065.956743509425,-941.600341796875,567.912353515625,-345.46539306640625,-523.8484497070312,-21.261293411254883,53.4216423034668,19.020341873168945,75.79076385498047,-24.13343048095703,65535.0
18065.957143517975,-933.19482421875,564.7343139648438,-351.1964111328125,-514.2008056640625,-24.87983512878418,52.22885513305664,19.79726219177246,71.24542999267578,-35.121063232421875,65535.0
18065.95754352653,-930.7716064453125,573.6214599609375,-351.0298156738281,-522.802734375,-36.93535614013672,38.40748596191406,8.24393081665039,59.16397476196289,-32.714393615722656,65535.0
18065.957943535082,-932.3555908203125,574.5858764648438,-351.1560974121094,-529.5887451171875,-36.108829498291016,33.651878356933594,7.037759304046631,61.04426193237305,-21.355514526367188,65535.0
18065.958343543636,-938.8262939453125,574.6028442382812,-356.0664978027344,-523.2930297851562,-41.524085998535156,30.0140438079834,2.5013060569763184,57.585609436035156,-25.147327423095703,65535.0
18065.958743552186,-948.5841674804688,571.24462890625,-349.1661071777344,-513.110107421875,-39.76357650756836,28.636451721191406,3.4933836460113525,60.7689323425293,-35.12886047363281,65535.0
18065.95914356074,-958.4141845703125,573.964599609375,-349.2731018066406,-511.2545166015625,-32.81692886352539,30.195707321166992,7.313024520874023,64.00871276855469,-34.92107009887695,65535.0
18065.959543569294,-952.0856323242188,584.02392578125,-345.65655517578125,-501.53546142578125,-31.8874454498291,37.6258659362793,13.64415454864502,66.03971862792969,-30.908090591430664,65535.0
18065.959943577844,-964.1384887695312,576.2984008789062,-344.8526916503906,-501.3614501953125,-33.054710388183594,34.15480422973633,8.552044868469238,64.80123901367188,-37.21803665161133,65535.0
18065.960343586397,-997.7117919921875,578.3746948242188,-350.2404479980469,-514.3316650390625,-40.06055450439453,22.03734016418457,-0.020277103409171104,55.29020690917969,-33.641841888427734,65535.0
18065.96074359495,-1012.7520141601562,588.6007690429688,-350.0782470703125,-513.7647705078125,-34.80368423461914,24.653085708618164,5.217690467834473,61.950897216796875,-27.466541290283203,65535.0
18065.961143603505,-1031.1160888671875,578.0263061523438,-342.80413818359375,-504.2900085449219,-27.747339248657227,33.61880874633789,15.786503791809082,70.75565338134766,-28.460830688476562,65535.0
18065.961543612055,-1025.8660888671875,579.5138549804688,-337.82763671875,-494.2715759277344,-36.382484436035156,29.981000900268555,7.215068817138672,62.21002197265625,-26.38836097717285,65535.0
18065.96194362061,-1018.1395874023438,577.7498779296875,-345.6182556152344,-496.1798400878906,-42.00503921508789,18.482112884521484,0.9444185495376587,57.0349235534668,-34.293426513671875,65535.0
18065.962343629162,-1007.65234375,574.3803100585938,-341.2898864746094,-507.5113830566406,-34.11638259887695,22.76588249206543,8.212669372558594,62.927772521972656,-37.31584930419922,65535.0
18065.962743637712,-996.878173828125,582.2265014648438,-346.09765625,-507.1254577636719,-39.61750411987305,21.8126277923584,3.8949503898620605,58.49896240234375,-43.3260383605957,65535.0
18065.963143646266,-986.9271850585938,569.3043212890625,-346.16412353515625,-506.0184020996094,-30.709552764892578,28.906286239624023,8.813472747802734,66.4713363647461,-32.94050979614258,65535.0
18065.96354365482,-960.4879760742188,562.9383544921875,-346.59161376953125,-508.619384765625,-35.783905029296875,23.652524948120117,6.64149284362793,61.73831558227539,-34.54781723022461,65535.0
18065.963943663373,-958.133544921875,555.6722412109375,-346.8145751953125,-498.790283203125,-42.494789123535156,15.877791404724121,0.48081153631210327,57.091487884521484,-42.100608825683594,65535.0
18065.964343671923,-958.0616455078125,544.81298828125,-346.58837890625,-500.7756652832031,-40.498844146728516,18.19611930847168,3.395643472671509,56.992088317871094,-22.17304229736328,65535.0
18065.964743680477,-958.1036376953125,545.681640625,-352.537353515625,-504.2007751464844,-34.062286376953125,27.063915252685547,5.033351898193359,62.967201232910156,-26.815853118896484,65535.0
18065.96514368903,-961.1145629882812,550.9393920898438,-353.7554626464844,-502.4600830078125,-35.71943664550781,29.390241622924805,6.565099239349365,61.300209045410156,-20.883893966674805,65535.0
18065.96554369758,-933.5343017578125,553.98828125,-354.3656005859375,-503.6984558105469,-39.99860763549805,22.83045768737793,3.4847092628479004,55.640647888183594,-23.208736419677734,65535.0
18065.965943706135,-903.0828857421875,553.9260864257812,-360.88873291015625,-501.20452880859375,-36.47486877441406,25.788679122924805,5.480991840362549,58.434112548828125,-26.428388595581055,65535.0
18065.96634371469,-894.7129516601562,549.969970703125,-365.3365173339844,-506.5950622558594,-36.32168197631836,31.904287338256836,6.643180847167969,65.27633666992188,-28.82716178894043,65535.0
18065.966743723242,-881.8663330078125,548.9141235351562,-366.6753845214844,-504.2748718261719,-34.23429489135742,32.853919982910156,8.741476058959961,62.97846221923828,-27.42044448852539,65535.0
18065.967143731792,-874.2053833007812,549.6163330078125,-360.2820129394531,-516.2958374023438,-21.087539672851562,45.22633361816406,22.192419052124023,73.84473419189453,-33.509620666503906,65535.0
18065.967543740346,-892.5873413085938,555.8408203125,-349.7227783203125,-520.700439453125,-24.282567977905273,47.065452575683594,19.205060958862305,73.56195831298828,-22.186885833740234,65535.0
18065.9679437489,-917.1234741210938,546.5462036132812,-349.64544677734375,-514.4251708984375,-33.45441818237305,36.56682205200195,8.80427360534668,64.49403381347656,-25.208114624023438,65535.0
18065.96834375745,-930.4754638671875,545.1582641601562,-356.0841369628906,-513.213134765625,-32.92759704589844,34.953636169433594,11.000070571899414,64.73330688476562,-26.05278205871582,65535.0
18065.968743766003,-934.6860961914062,543.1969604492188,-356.4406433105469,-513.5384521484375,-38.54533004760742,35.10747146606445,3.2525248527526855,58.92270278930664,-25.841270446777344,65535.0
18065.969143774557,-954.9666748046875,533.7617797851562,-353.0817565917969,-504.8768005371094,-32.18583679199219,43.861900329589844,10.28171157836914,67.89631652832031,-14.290976524353027,65535.0
18065.96954378311,-961.7734375,527.2993774414062,-364.0737609863281,-500.8655090332031,-27.255577087402344,46.18858337402344,16.39051628112793,71.81116485595703,-29.317031860351562,65535.0
18065.96994379166,-962.320556640625,522.8163452148438,-371.3090515136719,-508.22686767578125,-23.682510375976562,53.0185546875,20.648820877075195,73.99470520019531,-26.088045120239258,65535.0
18065.970343800214,-958.80517578125,516.62646484375,-360.74957275390625,-515.2390747070312,-29.164989471435547,48.425079345703125,14.571722984313965,66.40108489990234,-8.717689514160156,65535.0
18065.970743808768,-931.5222778320312,527.9100952148438,-362.3675537109375,-522.8729248046875,-25.92269515991211,50.90265655517578,14.484207153320312,68.79051208496094,-16.906204223632812,65535.0
18065.971143817318,-911.9617919921875,529.7410888671875,-366.23504638671875,-527.1199340820312,-17.702917098999023,58.444061279296875,24.20905876159668,76.425048828125,-25.297433853149414,65535.0
18065.97154382587,-909.4777221679688,525.689208984375,-352.77777099609375,-518.505615234375,-27.450550079345703,55.0980224609375,18.77277374267578,71.62386322021484,-24.956464767456055,65535.0
18065.971943834425,-899.0032348632812,527.90478515625,-346.20703125,-520.3336791992188,-21.94957160949707,59.53118133544922,20.85502052307129,76.34431457519531,-14.54875659942627,65535.0
18065.972343842976,-892.2821655273438,530.8378295898438,-343.7648620605469,-523.5656127929688,-20.236108779907227,59.691158294677734,22.497920989990234,75.08256530761719,-15.67729663848877,65535.0
18065.97274385153,-912.9892578125,544.6585083007812,-355.4590148925781,-531.85986328125,-16.18733024597168,67.4638671875,26.861207962036133,82.04399871826172,-27.40127944946289,65535.0
18065.973143860083,-917.247802734375,552.5606079101562,-353.7913513183594,-524.2476196289062,-20.035480499267578,62.808135986328125,23.603347778320312,78.75028991699219,-23.603219985961914,65535.0
18065.973543868637,-902.6342163085938,542.2982788085938,-349.96173095703125,-523.7261962890625,-21.54066276550293,58.35805892944336,18.822072982788086,77.54405975341797,-31.937654495239258,65535.0
18065.973943877187,-902.82373046875,544.4569702148438,-350.71343994140625,-531.8322143554688,-15.860271453857422,68.87792205810547,29.034536361694336,83.34444427490234,-25.811243057250977,65535.0
18065.97434388574,-914.8884887695312,545.0841064453125,-340.6670227050781,-521.775634765625,-16.367826461791992,64.3993911743164,27.99482536315918,83.1507797241211,-21.86761474609375,65535.0
18065.974743894294,-910.8685302734375,545.7399291992188,-346.8034362792969,-509.9176940917969,-17.31589698791504,67.73939514160156,27.06406021118164,83.00830078125,-23.652019500732422,65535.0
18065.975143902844,-904.2847900390625,549.9332885742188,-346.7478942871094,-513.9813232421875,-14.600249290466309,69.42160034179688,29.178489685058594,85.57323455810547,-21.603221893310547,65535.0
18065.975543911398,-883.5007934570312,546.2584228515625,-339.33721923828125,-516.2721557617188,-21.039339065551758,57.893638610839844,21.946754455566406,76.56967163085938,-24.265567779541016,65535.0
18065.97594391995,-856.1763305664062,551.7467041015625,-343.9822082519531,-504.3381652832031,-19.406330108642578,57.44881057739258,21.270750045776367,79.56450653076172,-26.718732833862305,65535.0
18065.976343928505,-835.1249389648438,549.3512573242188,-340.7117919921875,-505.0040588378906,-9.698264122009277,69.54092407226562,32.122520446777344,87.70983123779297,-24.293184280395508,65535.0
18065.976743937055,-833.1099853515625,550.92626953125,-341.730224609375,-491.8564453125,-11.08577823638916,69.27180480957031,30.780101776123047,86.73310852050781,-43.26530456542969,65535.0
18065.97714394561,-846.5177001953125,558.6782836914062,-343.80572509765625,-487.7965393066406,-29.41291618347168,50.59370040893555,16.557132720947266,72.52165985107422,-39.465396881103516,65535.0
18065.977543954163,-852.4461059570312,559.2337036132812,-337.07855224609375,-493.82293701171875,-17.877214431762695,57.14992904663086,25.203380584716797,79.80540466308594,-20.794301986694336,65535.0
18065.977943962713,-878.7271728515625,553.2788696289062,-338.2772521972656,-489.1301574707031,-15.412749290466309,57.45926284790039,25.510587692260742,80.63627624511719,-31.071300506591797,65535.0
18065.978343971266,-902.6298217773438,558.4725952148438,-342.2519226074219,-492.61895751953125,-26.758955001831055,46.97521209716797,15.02232837677002,71.1214599609375,-22.482572555541992,65535.0
18065.97874397982,-897.2819213867188,550.8955078125,-341.4256591796875,-507.344970703125,-21.307395935058594,52.85908126831055,21.601573944091797,79.59062957763672,-22.728473663330078,65535.0
18065.979143988374,-895.8309326171875,560.4835205078125,-342.2190246582031,-502.8067932128906,-9.513046264648438,61.118865966796875,30.436870574951172,87.42660522460938,-25.939634323120117,65535.0
18065.979543996924,-876.8828735351562,564.7646484375,-339.48388671875,-504.967529296875,-19.524829864501953,51.81429672241211,20.07185935974121,76.14491271972656,-11.73740005493164,65535.0
18065.979944005478,-873.3997802734375,562.6282958984375,-342.3898620605469,-511.033447265625,-29.142366409301758,35.27751541137695,12.73633098602295,66.3436508178711,-16.093088150024414,65535.0
18065.98034401403,-895.4299926757812,573.9071655273438,-337.42547607421875,-507.66180419921875,-20.44775390625,44.01381301879883,21.623308181762695,81.26580047607422,-32.251346588134766,65535.0
18065.98074402258,-899.4739990234375,569.5733642578125,-342.1777648925781,-495.3024597167969,-28.104719161987305,37.46529769897461,12.884483337402344,69.04690551757812,-31.235530853271484,65535.0
18065.981144031135,-899.7071533203125,575.0908203125,-339.250244140625,-493.01348876953125,-39.70330810546875,24.582550048828125,4.068325996398926,60.5689582824707,-20.60451316833496,65535.0
18065.98154403969,-920.8253173828125,576.1566162109375,-342.67071533203125,-509.3220520019531,-31.779600143432617,29.480369567871094,9.576375961303711,66.68645477294922,-30.05434226989746,65535.0
18065.981944048242,-945.2400512695312,570.7724609375,-354.07708740234375,-520.1681518554688,-40.07353210449219,21.065187454223633,2.586508274078369,57.298500061035156,-31.853012084960938,65535.0
18065.982344056792,-969.2435302734375,557.935546875,-358.4759216308594,-519.1290893554688,-38.13920593261719,21.897836685180664,5.476999282836914,62.05160140991211,-25.618133544921875,65535.0
18065.982744065346,-974.4437255859375,555.4577026367188,-358.0387878417969,-520.7890625,-36.32649612426758,24.993783950805664,4.887025833129883,64.26073455810547,-24.96153450012207,65535.0
18065.9831440739,-976.8335571289062,545.822509765625,-355.67694091796875,-516.1162719726562,-43.942222595214844,14.125906944274902,-3.1568195819854736,50.250213623046875,-10.823925971984863,65535.0
18065.98354408245,-969.3106689453125,541.829833984375,-349.51702880859375,-507.65228271484375,-40.90497589111328,15.53823184967041,0.2700057029724121,54.44164276123047,-22.81137466430664,65535.0
18065.983944091004,-959.6829833984375,541.3477783203125,-358.00140380859375,-513.0501708984375,-39.799739837646484,22.847246170043945,1.2427529096603394,59.243324279785156,-31.057435989379883,65535.0
18065.984344099557,-964.020263671875,539.5044555664062,-368.0071716308594,-503.7130126953125,-39.69285583496094,22.18667984008789,3.6909241676330566,58.08611297607422,-20.951305389404297,65535.0
18065.98474410811,-970.482421875,539.578125,-357.6768493652344,-485.85418701171875,-29.60947036743164,32.138755798339844,12.862897872924805,66.20479583740234,-17.313270568847656,65535.0
18065.98514411666,-953.1613159179688,533.3671264648438,-362.3117980957031,-483.6191101074219,-30.877050399780273,33.08260726928711,8.681138038635254,63.26941680908203,-17.505023956298828,65535.0
18065.985544125215,-945.9512329101562,520.6410522460938,-366.65985107421875,-491.00836181640625,-31.514141082763672,31.927000045776367,7.486443042755127,64.85340118408203,-29.294204711914062,65535.0
18065.98594413377,-950.47021484375,520.9058227539062,-353.47161865234375,-492.8146667480469,-30.564882278442383,34.566673278808594,11.25387954711914,64.51384735107422,-31.347293853759766,65535.0
18065.98634414232,-940.36962890625,532.4935913085938,-341.1131896972656,-499.5884094238281,-39.395545959472656,30.043149948120117,3.9840028285980225,59.3797607421875,-29.04403305053711,65535.0
18065.986744150872,-928.933349609375,526.3756103515625,-344.2969665527344,-490.29583740234375,-29.78221893310547,37.39494323730469,13.240126609802246,68.75531005859375,-28.865028381347656,65535.0
18065.987144159426,-921.296142578125,532.0042724609375,-356.98699951171875,-498.7890625,-21.151073455810547,48.91447448730469,21.328413009643555,77.02086639404297,-36.769996643066406,65535.0
18065.98754416798,-911.6276245117188,540.1612548828125,-352.4625244140625,-509.2565002441406,-22.12575340270996,53.239036560058594,21.515653610229492,77.64390563964844,-17.99007225036621,65535.0
18065.98794417653,-935.6842651367188,528.467041015625,-356.3721923828125,-507.3608093261719,-20.94576644897461,53.19335174560547,23.126134872436523,76.24964141845703,-25.197002410888672,65535.0
18065.988344185083,-945.9426879882812,532.2929077148438,-355.1842346191406,-508.9413146972656,-26.850860595703125,46.71709442138672,14.510815620422363,70.9808578491211,-27.391096115112305,65535.0
18065.988744193637,-947.7286376953125,529.0450439453125,-357.114501953125,-511.0005798339844,-19.689807891845703,54.31471252441406,23.22934913635254,79.24730682373047,-29.504940032958984,65535.0
18065.989144202187,-922.7295532226562,523.764404296875,-356.1355895996094,-523.2279663085938,-20.00643539428711,55.98085403442383,22.388872146606445,78.40415954589844,-39.668060302734375,65535.0
18065.98954421074,-900.5747680664062,515.131103515625,-355.25323486328125,-532.0057983398438,-20.58594512939453,56.93009567260742,21.373273849487305,74.47874450683594,-21.335100173950195,65535.0
18065.989944219295,-907.5864868164062,511.50128173828125,-365.2923583984375,-534.0592651367188,-12.206155776977539,67.66790008544922,30.679691314697266,83.47145080566406,-20.094465255737305,65535.0
18065.99034422785,-918.4027099609375,507.8944396972656,-356.8653869628906,-528.6744384765625,-24.388181686401367,57.117469787597656,21.134769439697266,75.61943054199219,-33.60808181762695,65535.0
18065.9907442364,-928.2193603515625,514.2183227539062,-364.3499450683594,-525.5596923828125,-20.139223098754883,62.518985748291016,22.181264877319336,78.73383331298828,-26.618175506591797,65535.0
18065.991144244952,-943.9627685546875,500.1524658203125,-358.5206604003906,-536.168212890625,-21.417163848876953,60.58688735961914,21.143035888671875,75.22837829589844,-30.636070251464844,65535.0
18065.991544253506,-981.2091674804688,510.0594177246094,-370.4642028808594,-532.3389282226562,-22.760215759277344,59.317108154296875,18.19878578186035,74.1728515625,-33.63935470581055,65535.0
18065.991944262056,-1018.444091796875,524.4876708984375,-361.4427490234375,-523.2239379882812,-23.470895767211914,60.49687957763672,17.53153419494629,74.66063690185547,-18.677064895629883,65535.0
18065.99234427061,-1043.1427001953125,520.1267700195312,-352.1473388671875,-521.9352416992188,-25.172887802124023,59.7081184387207,20.420198440551758,73.99127960205078,-12.566235542297363,65535.0
18065.992744279163,-1061.2900390625,518.5687866210938,-354.4799499511719,-515.4512939453125,-23.06646728515625,63.52753829956055,19.964982986450195,77.04283142089844,-25.146610260009766,65535.0
18065.993144287717,-1064.1732177734375,519.8456420898438,-342.3052062988281,-509.519287109375,-14.543476104736328,67.18190002441406,28.14573860168457,80.83914947509766,-28.586585998535156,65535.0
18065.993544296267,-1063.4332275390625,529.3745727539062,-334.7859802246094,-515.4822998046875,-18.734195709228516,68.47833251953125,25.45663833618164,77.32473754882812,-37.13315963745117,65535.0
18065.99394430482,-1064.0565185546875,535.8275146484375,-351.91705322265625,-516.5509033203125,-20.397144317626953,68.02891540527344,25.302820205688477,77.88687896728516,-23.4740047454834,65535.0
18065.994344313374,-1062.2095947265625,544.982421875,-343.5271911621094,-520.2202758789062,-10.163029670715332,75.21426391601562,33.06650924682617,89.613525390625,-22.390132904052734,65535.0
18065.994744321924,-1049.5399169921875,549.422607421875,-330.9064025878906,-515.8583984375,-14.39273738861084,74.6244888305664,31.7249813079834,87.5828628540039,-30.304553985595703,65535.0
18065.995144330478,-1022.3274536132812,548.4349975585938,-330.1365051269531,-528.0399169921875,-15.9111328125,67.75426483154297,25.93170738220215,81.63320922851562,-16.996322631835938,65535.0
18065.99554433903,-1010.2420043945312,552.8861694335938,-329.2066650390625,-527.6845703125,-16.023727416992188,64.1741714477539,26.409717559814453,81.22492980957031,-22.373126983642578,65535.0
18065.995944347585,-998.7609252929688,546.5513916015625,-332.2569274902344,-520.0565185546875,-6.530175685882568,74.38923645019531,34.40306091308594,86.90729522705078,-28.172714233398438,65535.0
18065.996344356136,-965.88232421875,542.3171997070312,-328.19586181640625,-521.0411376953125,-18.78927993774414,62.38888168334961,24.870166778564453,79.265380859375,-28.90381622314453,65535.0
18065.99674436469,-939.2433471679688,541.6026611328125,-329.8431701660156,-509.4023742675781,-19.860761642456055,58.21636199951172,23.3284854888916,76.64897155761719,-28.793739318847656,65535.0
18065.997144373243,-916.7111206054688,548.157958984375,-334.1088562011719,-495.5989074707031,-16.40863037109375,62.73043441772461,29.663305282592773,82.25332641601562,-12.025440216064453,65535.0
18065.997544381793,-908.3287963867188,554.6049194335938,-332.3478698730469,-501.853271484375,-27.92319107055664,49.11351013183594,19.43012237548828,70.62550354003906,-18.676517486572266,65535.0
18065.997944390347,-913.0578002929688,555.881103515625,-320.54901123046875,-498.2975769042969,-20.667177200317383,56.277103424072266,24.803388595581055,78.40602111816406,-19.81691551208496,65535.0
18065.9983443989,-930.4716796875,561.2903442382812,-320.08551025390625,-498.5382080078125,-16.868946075439453,56.79787063598633,25.166290283203125,82.34720611572266,-24.921432495117188,65535.0
18065.998744407454,-923.20263671875,553.5918579101562,-311.1064758300781,-501.7278137207031,-24.62012481689453,48.47598648071289,19.78359603881836,74.92540740966797,-24.73053550720215,65535.0
18065.999144416004,-917.8068237304688,548.4169921875,-305.2474365234375,-521.6123657226562,-21.03147315979004,52.204776763916016,24.01352310180664,77.66136932373047,-9.43036937713623,65535.0
18065.999544424558,-915.4301147460938,552.8494262695312,-310.6044006347656,-515.269775390625,-29.89015769958496,36.61874008178711,12.99665355682373,66.52174377441406,-27.516592025756836,65535.0
18065.99994443311,-911.8569946289062,555.2926635742188,-316.2433166503906,-521.1693725585938,-28.2883358001709,38.29371643066406,12.712800025939941,71.81851196289062,-34.152523040771484,65535.0
18066.00034444166,-919.5642700195312,550.9307250976562,-323.66986083984375,-526.773193359375,-28.302961349487305,37.18095016479492,13.538761138916016,71.53144073486328,-25.218711853027344,65535.0
18066.000744450215,-930.7801513671875,554.8589477539062,-317.367919921875,-517.1361083984375,-35.777889251708984,31.075674057006836,7.552522659301758,63.45820999145508,-31.713525772094727,65535.0
18066.00114445877,-930.9331665039062,556.009521484375,-313.9870910644531,-511.1321105957031,-34.291866302490234,28.223289489746094,9.158757209777832,63.75031661987305,-19.47663116455078,65535.0
18066.001544467323,-921.9157104492188,557.7303466796875,-320.2558288574219,-496.7843322753906,-32.59370040893555,27.927637100219727,8.426285743713379,62.17306900024414,-15.446118354797363,65535.0
18066.001944475873,-907.1055297851562,557.3297729492188,-324.3595886230469,-487.23114013671875,-22.925647735595703,36.43510437011719,17.56252098083496,72.65226745605469,-32.359718322753906,65535.0
18066.002344484426,-910.0393676757812,542.6087036132812,-330.2782287597656,-484.7398376464844,-29.603578567504883,33.68820571899414,14.879812240600586,67.14786529541016,-25.829822540283203,65535.0
18066.00274449298,-927.8330688476562,537.8116455078125,-335.0835266113281,-485.6074523925781,-35.28959655761719,27.829559326171875,5.999883651733398,62.98509216308594,-14.95946979522705,65535.0
18066.00314450153,-929.5550537109375,529.788818359375,-330.3827209472656,-494.6773376464844,-42.80366134643555,15.939040184020996,-3.554255485534668,55.16093063354492,-20.335464477539062,65535.0
18066.003544510084,-919.6624145507812,537.178955078125,-335.54815673828125,-505.09075927734375,-37.15972900390625,21.837844848632812,3.658689260482788,61.131935119628906,-28.962499618530273,65535.0
18066.003944518638,-916.8889770507812,537.5657958984375,-341.8924255371094,-501.53692626953125,-34.849693298339844,27.91741371154785,9.591605186462402,65.2808609008789,-26.82060432434082,65535.0
18066.00434452719,-906.1536254882812,532.257080078125,-341.1557922363281,-515.223388671875,-36.160255432128906,24.56150245666504,4.819079875946045,63.133636474609375,-28.720048904418945,65535.0
18066.00474453574,-913.8468017578125,540.361083984375,-338.05645751953125,-515.3705444335938,-35.07688522338867,26.29668617248535,6.9506378173828125,63.71996307373047,-27.66179656982422,65535.0
18066.005144544295,-912.1976318359375,537.7316284179688,-333.5205383300781,-515.3460693359375,-30.113582611083984,33.465728759765625,15.771099090576172,69.46815490722656,-20.11317253112793,65535.0
18066.00554455285,-929.4367065429688,531.9370727539062,-341.6986999511719,-521.5811157226562,-40.28007125854492,26.496877670288086,4.742307662963867,58.90865707397461,-15.1350736618042,65535.0
18066.0059445614,-949.0999145507812,530.340576171875,-353.1123962402344,-524.6755981445312,-33.018978118896484,30.078479766845703,9.711503028869629,62.52360916137695,-22.043962478637695,65535.0
18066.006344569952,-932.2454833984375,542.4132080078125,-347.4870300292969,-530.0284423828125,-31.33698272705078,33.7138786315918,12.384135246276855,65.64669036865234,-23.656429290771484,65535.0
18066.006744578506,-914.061767578125,534.4131469726562,-348.940185546875,-524.8738403320312,-38.93220901489258,24.17772102355957,2.632218837738037,56.59551239013672,-20.316572189331055,65535.0
18066.00714458706,-930.1106567382812,522.7684936523438,-340.52239990234375,-522.1492919921875,-33.26924514770508,34.082515716552734,7.16713809967041,64.16089630126953,-38.60528564453125,65535.0
18066.00754459561,-941.8526611328125,519.0341186523438,-338.1239013671875,-524.4912109375,-21.840835571289062,49.04664993286133,20.566463470458984,76.21765899658203,-27.246597290039062,65535.0
