time,X_NOSE,Y_NOSE,Z_NOSE,visibility_NOSE,X_LEFT_EYE_INNER,Y_LEFT_EYE_INNER,Z_LEFT_EYE_INNER,visibility_LEFT_EYE_INNER,X_LEFT_EYE,Y_LEFT_EYE,Z_LEFT_EYE,visibility_LEFT_EYE,X_LEFT_EYE_OUTER,Y_LEFT_EYE_OUTER,Z_LEFT_EYE_OUTER,visibility_LEFT_EYE_OUTER,X_RIGHT_EYE_OUTER,Y_RIGHT_EYE_OUTER,Z_RIGHT_EYE_OUTER,visibility_RIGHT_EYE_OUTER,X_RIGHT_EYE,Y_RIGHT_EYE,Z_RIGHT_EYE,visibility_RIGHT_EYE,X_RIGHT_EYE_OUTER,Y_RIGHT_EYE_OUTER,Z_RIGHT_EYE_OUTER,visibility_RIGHT_EYE_OUTER,X_LEFT_EAR,Y_LEFT_EAR,Z_LEFT_EAR,visibility_LEFT_EAR,X_RIGHT_EAR,Y_RIGHT_EAR,Z_RIGHT_EAR,visibility_RIGHT_EAR,X_MOUTH_LEFT,Y_MOUTH_LEFT,Z_MOUTH_LEFT,visibility_MOUTH_LEFT,X_MOUTH_RIGHT,Y_MOUTH_RIGHT,Z_MOUTH_RIGHT,visibility_MOUTH_RIGHT,X_LEFT_SHOULDER,Y_LEFT_SHOULDER,Z_LEFT_SHOULDER,visibility_LEFT_SHOULDER,X_RIGHT_SHOULDER,Y_RIGHT_SHOULDER,Z_RIGHT_SHOULDER,visibility_RIGHT_SHOULDER,X_LEFT_ELBOW,Y_LEFT_ELBOW,Z_LEFT_ELBOW,visibility_LEFT_ELBOW,X_RIGHT_ELBOW,Y_RIGHT_ELBOW,Z_RIGHT_ELBOW,visibility_RIGHT_ELBOW,X_LEFT_WRIST,Y_LEFT_WRIST,Z_LEFT_WRIST,visibility_LEFT_WRIST,X_RIGHT_WRIST,Y_RIGHT_WRIST,Z_RIGHT_WRIST,visibility_RIGHT_WRIST,X_LEFT_PINKY,Y_LEFT_PINKY,Z_LEFT_PINKY,visibility_LEFT_PINKY,X_RIGHT_PINKY,Y_RIGHT_PINKY,Z_RIGHT_PINKY,visibility_RIGHT_PINKY,X_LEFT_INDEX,Y_LEFT_INDEX,Z_LEFT_INDEX,visibility_LEFT_INDEX,X_RIGHT_INDEX,Y_RIGHT_INDEX,Z_RIGHT_INDEX,visibility_RIGHT_INDEX,X_LEFT_THUMB,Y_LEFT_THUMB,Z_LEFT_THUMB,visibility_LEFT_THUMB,X_RIGHT_THUMB,Y_RIGHT_THUMB,Z_RIGHT_THUMB,visibility_RIGHT_THUMB,X_LEFT_HIP,Y_LEFT_HIP,Z_LEFT_HIP,visibility_LEFT_HIP,X_RIGHT_HIP,Y_RIGHT_HIP,Z_RIGHT_HIP,visibility_RIGHT_HIP,X_LEFT_KNEE,Y_LEFT_KNEE,Z_LEFT_KNEE,visibility_LEFT_KNEE,X_RIGHT_KNEE,Y_RIGHT_KNEE,Z_RIGHT_KNEE,visibility_RIGHT_KNEE,X_LEFT_ANKLE,Y_LEFT_ANKLE,Z_LEFT_ANKLE,visibility_LEFT_ANKLE,X_RIGHT_ANKLE,Y_RIGHT_ANKLE,Z_RIGHT_ANKLE,visibility_RIGHT_ANKLE,X_LEFT_HEEL,Y_LEFT_HEEL,Z_LEFT_HEEL,visibility_LEFT_HEEL,X_RIGHT_HEEL,Y_RIGHT_HEEL,Z_RIGHT_HEEL,visibility_RIGHT_HEEL,X_LEFT_FOOT_INDEX,Y_LEFT_FOOT_INDEX,Z_LEFT_FOOT_INDEX,visibility_LEFT_FOOT_INDEX,X_RIGHT_FOOT_INDEX,Y_RIGHT_FOOT_INDEX,Z_RIGHT_FOOT_INDEX,visibility_RIGHT_FOOT_INDEX
18519.138159319224,0.45114684104919434,0.23687785863876343,-1.028687596321106,0.9999896287918091,0.45779189467430115,0.212310791015625,-0.9728713035583496,0.9999779462814331,0.46672526001930237,0.2107718586921692,-0.9729263782501221,0.9999740123748779,0.4748246967792511,0.2093631625175476,-0.9728733897209167,0.9999687671661377,0.42370158433914185,0.21448874473571777,-1.001647710800171,0.9999834299087524,0.4058225154876709,0.21451634168624878,-1.0017330646514893,0.9999822378158569,0.38787534832954407,0.21456009149551392,-1.0018078088760376,0.9999808073043823,0.4694006145000458,0.2156302034854889,-0.6090095043182373,0.9999673366546631,0.3413178324699402,0.22309592366218567,-0.7525368928909302,0.9999876022338867,0.4615679681301117,0.25906801223754883,-0.8901813626289368,0.9999920129776001,0.4265897274017334,0.2611619830131531,-0.9304887056350708,0.9999960660934448,0.5452282428741455,0.34745046496391296,-0.33186084032058716,0.9999176263809204,0.1931670904159546,0.36591383814811707,-0.5869171023368835,0.9999130964279175,0.5960656404495239,0.5069600939750671,-0.06390589475631714,0.9791335463523865,0.1405763477087021,0.5185562968254089,-0.7314837574958801,0.9880657196044922,0.6528255939483643,0.633867084980011,-0.31833726167678833,0.9800652861595154,0.2750193774700165,0.555657684803009,-1.1756945848464966,0.9615005850791931,0.670601487159729,0.6773983240127563,-0.4046335518360138,0.9643068909645081,0.3301931917667389,0.5694044232368469,-1.2956162691116333,0.9409617185592651,0.6540038585662842,0.6766979694366455,-0.5024294257164001,0.9669930934906006,0.3382912576198578,0.5448539853096008,-1.3494175672531128,0.9425063133239746,0.6436201333999634,0.6671604514122009,-0.3612012565135956,0.9672533273696899,0.3208370506763458,0.5391881465911865,-1.202763557434082,0.9313406944274902,0.4974503815174103,0.6293694972991943,0.10220008343458176,0.9976823329925537,0.3263758420944214,0.6516543030738831,-0.1018155962228775,0.9985929131507874,0.49171823263168335,0.827682614326477,0.45097997784614563,0.9647456407546997,0.3447246849536896,0.863924503326416,0.14902301132678986,0.9882163405418396,0.4895952045917511,0.9603897929191589,1.134521722793579,0.9225032329559326,0.3608321249485016,0.9942145347595215,0.7143653035163879,0.9454474449157715,0.46569958329200745,0.973426878452301,1.1837260723114014,0.8792421221733093,0.36225250363349915,0.9933053255081177,0.7569451928138733,0.7773022055625916,0.5560686588287354,1.0205763578414917,0.9031608700752258,0.8856258392333984,0.39629098773002625,1.0853972434997559,0.3719009459018707,0.8502576351165771
18535.80482598589,0.45189887285232544,0.2361462116241455,-1.0694867372512817,0.9999897480010986,0.4585694670677185,0.21145310997962952,-1.014965295791626,0.9999778270721436,0.46761155128479004,0.20987293124198914,-1.0150036811828613,0.9999740123748779,0.4757311940193176,0.20850089192390442,-1.0149829387664795,0.9999693632125854,0.423858642578125,0.21378645300865173,-1.0439449548721313,0.9999827146530151,0.40578579902648926,0.2139582633972168,-1.0440579652786255,0.999981164932251,0.38762810826301575,0.21422097086906433,-1.0441206693649292,0.9999794960021973,0.4700826406478882,0.21512192487716675,-0.6561725735664368,0.9999686479568481,0.34067368507385254,0.2236606776714325,-0.8014125227928162,0.9999852180480957,0.46257585287094116,0.2582395672798157,-0.9326928853988647,0.9999920129776001,0.4269697368144989,0.2607365548610687,-0.9735334515571594,0.9999954700469971,0.546974778175354,0.3476255536079407,-0.3910432457923889,0.9999150037765503,0.18989400565624237,0.36697784066200256,-0.6272229552268982,0.9998877048492432,0.5982176065444946,0.5080311894416809,-0.13664960861206055,0.9819028377532959,0.14678750932216644,0.5181602239608765,-0.7728347182273865,0.9857845902442932,0.6557337045669556,0.6369587779045105,-0.38197338581085205,0.9814733862876892,0.2736152112483978,0.5563511848449707,-1.2079812288284302,0.9553753137588501,0.6723628044128418,0.6796735525131226,-0.4671226739883423,0.9653044939041138,0.3281882405281067,0.5679702162742615,-1.3261115550994873,0.9325482249259949,0.6563816070556641,0.6786327362060547,-0.5648829340934753,0.967944324016571,0.3303491175174713,0.5414586663246155,-1.3777536153793335,0.9339882731437683,0.6464428901672363,0.6695389747619629,-0.42441773414611816,0.9684748649597168,0.3131070137023926,0.535801887512207,-1.2346727848052979,0.9220789670944214,0.4989613890647888,0.6275278329849243,0.09177696704864502,0.9973247051239014,0.32412078976631165,0.6494320034980774,-0.09141229093074799,0.9983469247817993,0.4909108281135559,0.8305519819259644,0.4171381890773773,0.9614973068237305,0.3422486186027527,0.8637340664863586,0.1377076804637909,0.9866665005683899,0.48669156432151794,0.9615609645843506,1.098343849182129,0.9131749868392944,0.35989221930503845,0.992310106754303,0.6995989680290222,0.9426997303962708,0.4613298177719116,0.9746948480606079,1.1468696594238281,0.8642690777778625,0.35499972105026245,1.0186806917190552,0.7406513094902039,0.7577491402626038,0.5541525483131409,1.0212438106536865,0.8647730946540833,0.8772897720336914,0.38465794920921326,1.088330626487732,0.35376229882240295,0.8469445705413818
18552.47149265256,0.45106470584869385,0.23497077822685242,-1.0659120082855225,0.999988317489624,0.4572390615940094,0.21112754940986633,-1.008902668952942,0.9999761581420898,0.4664008617401123,0.20982059836387634,-1.0089666843414307,0.9999719858169556,0.4745360314846039,0.208555668592453,-1.0089421272277832,0.9999663829803467,0.42327219247817993,0.21240288019180298,-1.0393906831741333,0.9999810457229614,0.4049837291240692,0.21205121278762817,-1.039501428604126,0.9999794960021973,0.3872325122356415,0.21179115772247314,-1.039580225944519,0.9999773502349854,0.4679601192474365,0.21495863795280457,-0.6405501961708069,0.9999675750732422,0.3396175801753998,0.22055530548095703,-0.7914114594459534,0.999983549118042,0.46064242720603943,0.2578651010990143,-0.9258726835250854,0.9999914169311523,0.4250345826148987,0.25927314162254333,-0.9683016538619995,0.9999949932098389,0.545089840888977,0.3464984595775604,-0.3742256760597229,0.9999096393585205,0.18543803691864014,0.3674962818622589,-0.6117636561393738,0.9998533725738525,0.5946876406669617,0.5087870955467224,-0.11770587414503098,0.9818951487541199,0.1456483155488968,0.522022545337677,-0.7764596343040466,0.9838770031929016,0.655960738658905,0.6388807892799377,-0.3754424750804901,0.98123699426651,0.2734054923057556,0.5540769100189209,-1.2504743337631226,0.9559335112571716,0.6724511384963989,0.6807809472084045,-0.4620484709739685,0.9647533893585205,0.32604455947875977,0.5666921734809875,-1.372606873512268,0.9341978430747986,0.6556420922279358,0.6794319748878479,-0.5607762336730957,0.9676188230514526,0.3316977024078369,0.5409005880355835,-1.4238022565841675,0.9361687302589417,0.645226001739502,0.6702889800071716,-0.41834333539009094,0.9681425094604492,0.3148617148399353,0.535602331161499,-1.2773101329803467,0.9237539768218994,0.4990306794643402,0.6295995116233826,0.08669941127300262,0.9974247217178345,0.32259663939476013,0.6519143581390381,-0.08625562489032745,0.9983372688293457,0.4914797842502594,0.8336428999900818,0.36046403646469116,0.9656332731246948,0.3442102372646332,0.8687413334846497,0.11872979253530502,0.9836336970329285,0.48861414194107056,0.9625108242034912,1.1046963930130005,0.9119617342948914,0.3643426299095154,0.9932109713554382,0.7225248217582703,0.9371383190155029,0.4666813313961029,0.9746251106262207,1.1590648889541626,0.8664798736572266,0.3704139292240143,0.9924266934394836,0.7677698731422424,0.7556360960006714,0.5507006645202637,1.025449514389038,0.8698808550834656,0.8676480650901794,0.3811900019645691,1.0891764163970947,0.3752630949020386,0.8352931141853333
18569.138159319227,0.45313382148742676,0.23504281044006348,-1.0363246202468872,0.9999905824661255,0.4579634368419647,0.210861474275589,-0.9813522696495056,0.9999793767929077,0.46658873558044434,0.20937874913215637,-0.9813974499702454,0.9999754428863525,0.47438615560531616,0.2079339325428009,-0.9813562631607056,0.9999704360961914,0.4243215322494507,0.21262887120246887,-1.0109783411026,0.9999840259552002,0.4060686528682709,0.2124536633491516,-1.011080265045166,0.9999829530715942,0.3880082666873932,0.21236202120780945,-1.0111631155014038,0.9999818801879883,0.4666871130466461,0.2142772376537323,-0.6235246658325195,0.999968409538269,0.3406725525856018,0.22131553292274475,-0.7704524993896484,0.9999878406524658,0.4624719023704529,0.2575252950191498,-0.9000458717346191,0.9999929666519165,0.4279724359512329,0.2599131464958191,-0.9412735104560852,0.9999964237213135,0.5424961447715759,0.3461924195289612,-0.346601665019989,0.9999210834503174,0.18764567375183105,0.3666922450065613,-0.6155640482902527,0.9999200105667114,0.5918810367584229,0.507175624370575,-0.08446834981441498,0.9790448546409607,0.14396078884601593,0.5200533270835876,-0.7534475922584534,0.9895381927490234,0.6538721919059753,0.6360519528388977,-0.33766186237335205,0.9810659289360046,0.28453493118286133,0.5586962699890137,-1.1763637065887451,0.9713920950889587,0.6714129447937012,0.6795915365219116,-0.4242441654205322,0.9659678936004639,0.3349236249923706,0.5699955821037292,-1.2949135303497314,0.9549992084503174,0.6553701162338257,0.6782023906707764,-0.5213669538497925,0.9685556292533875,0.34139418601989746,0.5442976951599121,-1.348100185394287,0.9562013149261475,0.6456682682037354,0.6689893007278442,-0.38059163093566895,0.9692280888557434,0.32587531208992004,0.5388450622558594,-1.2023735046386719,0.946852445602417,0.49710142612457275,0.6299998760223389,0.10656458139419556,0.997687816619873,0.32680726051330566,0.6541152000427246,-0.10622920840978622,0.99850994348526,0.4917805790901184,0.8296055793762207,0.3995990753173828,0.955895721912384,0.34595248103141785,0.8688322305679321,0.10687079280614853,0.9857063889503479,0.48700326681137085,0.9625994563102722,1.0930486917495728,0.9072564840316772,0.360566645860672,0.9939092397689819,0.6723576188087463,0.9398439526557922,0.4609695374965668,0.9750882983207703,1.143068790435791,0.8675839900970459,0.36078929901123047,0.9935343265533447,0.7147020697593689,0.7659668326377869,0.5576422214508057,1.0194287300109863,0.8685987591743469,0.8714566826820374,0.3976389169692993,1.0895789861679077,0.3330099880695343,0.8450815081596375
18585.804825985895,0.44888967275619507,0.23536920547485352,-1.0536046028137207,0.999992847442627,0.4554254710674286,0.21104609966278076,-0.9972135424613953,0.9999850988388062,0.4647662937641144,0.20956692099571228,-0.9972743988037109,0.9999822378158569,0.47337475419044495,0.2082156538963318,-0.9972205758094788,0.9999785423278809,0.4206268787384033,0.21297776699066162,-1.0232746601104736,0.9999880790710449,0.4016251266002655,0.21293148398399353,-1.0233685970306396,0.9999871253967285,0.3842867612838745,0.2129838466644287,-1.0234358310699463,0.999985933303833,0.4688751697540283,0.21545806527137756,-0.6349606513977051,0.9999784231185913,0.33845603466033936,0.2221737504005432,-0.766191840171814,0.9999898672103882,0.4599439799785614,0.25873294472694397,-0.9166601300239563,0.9999943971633911,0.42367133498191833,0.2605382204055786,-0.9533359408378601,0.9999969005584717,0.5464183688163757,0.3478817939758301,-0.3728320896625519,0.9999281167984009,0.18923698365688324,0.3679361045360565,-0.5899354219436646,0.9998965263366699,0.5956218242645264,0.5088436007499695,-0.12373004108667374,0.9832709431648254,0.14454452693462372,0.5189167857170105,-0.7509602904319763,0.986506462097168,0.6545472145080566,0.6371973752975464,-0.3849814832210541,0.9834020137786865,0.2808755934238434,0.556988537311554,-1.2287712097167969,0.9645056128501892,0.6713768839836121,0.6805512309074402,-0.4734278619289398,0.9689569473266602,0.33325496315956116,0.5702548027038574,-1.3511685132980347,0.945469081401825,0.6543190479278564,0.6789891719818115,-0.5715562701225281,0.9714231491088867,0.3406907320022583,0.5442817211151123,-1.4019666910171509,0.9471508264541626,0.6440966129302979,0.669438362121582,-0.4278576374053955,0.972043514251709,0.32331332564353943,0.5380552411079407,-1.2554408311843872,0.9374522566795349,0.4980064332485199,0.6295716166496277,0.08210904896259308,0.997873067855835,0.32478776574134827,0.6520613431930542,-0.08165353536605835,0.9986244440078735,0.4916924834251404,0.8312909603118896,0.3580268621444702,0.9662179946899414,0.3448758125305176,0.8644312620162964,0.12325285375118256,0.9857205152511597,0.48825812339782715,0.9619985818862915,1.06626558303833,0.9196164608001709,0.36311742663383484,0.9899290800094604,0.6980567574501038,0.942809522151947,0.4657915532588959,0.973688542842865,1.116745948791504,0.8759671449661255,0.367758184671402,0.990953803062439,0.7407011985778809,0.7734240889549255,0.552214503288269,1.0220056772232056,0.8304108381271362,0.8742108941078186,0.3806034326553345,1.0842397212982178,0.3560400605201721,0.8445277214050293
18602.471492652563,0.45337551832199097,0.23494476079940796,-1.0191649198532104,0.9999891519546509,0.45913922786712646,0.2105850875377655,-0.9646573066711426,0.999976634979248,0.4679136872291565,0.20916908979415894,-0.9647043943405151,0.9999731779098511,0.47572195529937744,0.20773926377296448,-0.964645504951477,0.9999678134918213,0.42534416913986206,0.212173193693161,-0.9940494894981384,0.9999821186065674,0.4071805775165558,0.2118467390537262,-0.9940920472145081,0.9999808073043823,0.3890897333621979,0.21158316731452942,-0.9941379427909851,0.99997878074646,0.4680255651473999,0.21367228031158447,-0.6124533414840698,0.9999668598175049,0.34035784006118774,0.21963101625442505,-0.7580459117889404,0.9999850988388062,0.46247634291648865,0.2572348415851593,-0.8852511048316956,0.9999915361404419,0.4272410273551941,0.2592066824436188,-0.9259973764419556,0.9999954700469971,0.5450639128684998,0.3459644615650177,-0.35190802812576294,0.9999165534973145,0.18586991727352142,0.3651539385318756,-0.5996330976486206,0.9998916387557983,0.5939059257507324,0.5080792903900146,-0.0980374664068222,0.9795942306518555,0.1444406807422638,0.5174976587295532,-0.7488793730735779,0.986449658870697,0.6545048952102661,0.6373278498649597,-0.3518678843975067,0.9808835387229919,0.2793630063533783,0.5563052296638489,-1.1794824600219727,0.9598569869995117,0.6713242530822754,0.6801944375038147,-0.43994566798210144,0.9654203653335571,0.33174556493759155,0.5675554871559143,-1.2973434925079346,0.9394253492355347,0.6554569005966187,0.67928546667099,-0.5341425538063049,0.9681954383850098,0.3373776078224182,0.5416294932365417,-1.3473951816558838,0.9409196376800537,0.6455205678939819,0.6698619723320007,-0.3936672806739807,0.9685888290405273,0.3206934928894043,0.5358483195304871,-1.2048802375793457,0.9296547174453735,0.49550366401672363,0.6310023069381714,0.1003820076584816,0.9974914789199829,0.3226868212223053,0.6516835689544678,-0.09996770322322845,0.9984283447265625,0.49030327796936035,0.828463077545166,0.4633864760398865,0.9535985589027405,0.3474513292312622,0.8625499606132507,0.16662301123142242,0.9847798943519592,0.4871990382671356,0.9588261246681213,1.1406675577163696,0.9003781676292419,0.3599390387535095,0.9883628487586975,0.728776216506958,0.9292266964912415,0.4642757177352905,0.9739288091659546,1.18980872631073,0.8545097708702087,0.35829630494117737,0.9880494475364685,0.7717945575714111,0.7563158273696899,0.5550758242607117,1.0136208534240723,0.9193236827850342,0.85492342710495,0.3971169590950012,1.0798587799072266,0.4015543460845947,0.8148044943809509
18619.13815931923,0.45862630009651184,0.22856798768043518,-1.0417375564575195,0.9999902248382568,0.46132397651672363,0.20426034927368164,-0.984667956829071,0.9999791383743286,0.46965062618255615,0.20285186171531677,-0.9847162961959839,0.9999755620956421,0.4769074320793152,0.20166164636611938,-0.9846828579902649,0.9999710321426392,0.428708016872406,0.2060908079147339,-1.0171672105789185,0.9999840259552002,0.41136491298675537,0.20597580075263977,-1.0172921419143677,0.9999823570251465,0.39266884326934814,0.20614248514175415,-1.0173600912094116,0.999981164932251,0.46630147099494934,0.21013429760932922,-0.6294407844543457,0.9999703168869019,0.3416188955307007,0.21706926822662354,-0.7896631956100464,0.9999858140945435,0.46783387660980225,0.25090286135673523,-0.9076238870620728,0.9999922513961792,0.4335029423236847,0.2541840672492981,-0.9527153968811035,0.9999957084655762,0.5476974248886108,0.3482726216316223,-0.3874157667160034,0.9998985528945923,0.18366681039333344,0.3671194911003113,-0.6264747381210327,0.9998779296875,0.5947644710540771,0.5095539689064026,-0.1513628214597702,0.9791961312294006,0.14480821788311005,0.5204960703849792,-0.7685223817825317,0.9860867261886597,0.6498311758041382,0.6342705488204956,-0.40826553106307983,0.979098916053772,0.2824680209159851,0.5541844964027405,-1.1849424839019775,0.9619702696800232,0.6672843098640442,0.6764626502990723,-0.49690622091293335,0.9620252251625061,0.3346345126628876,0.5627520084381104,-1.3028836250305176,0.9420037865638733,0.6497077941894531,0.6756808161735535,-0.5930929183959961,0.9648704528808594,0.337897390127182,0.5365614295005798,-1.351629614830017,0.9430025219917297,0.6385559439659119,0.6673951745033264,-0.45080259442329407,0.9654281139373779,0.3216012418270111,0.5324132442474365,-1.2100602388381958,0.9312496185302734,0.4974861145019531,0.6305058002471924,0.08620235323905945,0.9972025156021118,0.32209718227386475,0.6514406204223633,-0.08585779368877411,0.9983567595481873,0.4885096251964569,0.8298631310462952,0.4149002730846405,0.965933084487915,0.3434501588344574,0.8633875250816345,0.15057210624217987,0.9872086644172668,0.487407922744751,0.9630860686302185,1.1011731624603271,0.9309956431388855,0.35849204659461975,0.9963817596435547,0.7237717509269714,0.952244222164154,0.46268102526664734,0.9777271151542664,1.1497100591659546,0.8897678852081299,0.36106184124946594,0.9991059303283691,0.765473484992981,0.7889432311058044,0.5542795658111572,1.021808385848999,0.8692606687545776,0.9040661454200745,0.384415864944458,1.0866165161132812,0.383373498916626,0.8757275342941284
18635.8048259859,0.4553346037864685,0.23134472966194153,-0.9987810254096985,0.999985933303833,0.45950448513031006,0.20758789777755737,-0.9444257616996765,0.9999707937240601,0.46807625889778137,0.20625096559524536,-0.9444973468780518,0.9999663829803467,0.4757484197616577,0.20506322383880615,-0.9445124268531799,0.9999608993530273,0.42637911438941956,0.209246426820755,-0.9766287803649902,0.9999765157699585,0.4093194603919983,0.20906612277030945,-0.9767602682113647,0.9999740123748779,0.39106038212776184,0.2091488242149353,-0.9768603444099426,0.999971866607666,0.46705174446105957,0.21279215812683105,-0.5980347990989685,0.9999618530273438,0.34268277883529663,0.2188895046710968,-0.757113516330719,0.9999786615371704,0.4644979238510132,0.2537199556827545,-0.8670144081115723,0.9999898672103882,0.42943549156188965,0.2567811906337738,-0.9118005037307739,0.9999938011169434,0.5450730919837952,0.3474990725517273,-0.36349785327911377,0.9998911619186401,0.18562088906764984,0.3669862747192383,-0.5934596061706543,0.9998410940170288,0.5935987830162048,0.5085086822509766,-0.13031651079654694,0.9793453216552734,0.14974038302898407,0.519843578338623,-0.7266215085983276,0.9808639883995056,0.6514952182769775,0.6344611048698425,-0.3792434334754944,0.9781635999679565,0.2861066460609436,0.5549089312553406,-1.1342661380767822,0.9481882452964783,0.6688054800033569,0.6764793395996094,-0.46642565727233887,0.960965633392334,0.3364725112915039,0.5644751787185669,-1.2467553615570068,0.9268366098403931,0.6521584987640381,0.6757696866989136,-0.5610148906707764,0.9642224311828613,0.34201204776763916,0.5376150608062744,-1.2990871667861938,0.9287787675857544,0.6411147117614746,0.6670658588409424,-0.4207495450973511,0.9652307629585266,0.3257588744163513,0.5329927206039429,-1.160476803779602,0.915841817855835,0.49657389521598816,0.6305617690086365,0.08092281222343445,0.9962789416313171,0.32158178091049194,0.650144636631012,-0.08053117245435715,0.9977467656135559,0.4861474931240082,0.832470715045929,0.3415849208831787,0.9564430117607117,0.3407466411590576,0.8639239072799683,0.09722508490085602,0.9813703894615173,0.48837339878082275,0.95992511510849,1.0247552394866943,0.9028739333152771,0.35407134890556335,0.9952942728996277,0.6438801288604736,0.9329396486282349,0.4647936522960663,0.9728962182998657,1.0738131999969482,0.8578193187713623,0.35478028655052185,0.9968255162239075,0.6829912662506104,0.7360663414001465,0.5535552501678467,1.0194854736328125,0.800727367401123,0.8653668165206909,0.38395440578460693,1.0901973247528076,0.3011346161365509,0.831214189529419
18652.471492652567,0.4483581781387329,0.23556309938430786,-1.0662373304367065,0.9999889135360718,0.4550807476043701,0.21037128567695618,-1.0162113904953003,0.9999746084213257,0.4643595814704895,0.20882803201675415,-1.0162396430969238,0.9999698400497437,0.47285526990890503,0.2075006067752838,-1.016219139099121,0.999964714050293,0.4207611382007599,0.21272578835487366,-1.0421141386032104,0.9999806880950928,0.40219762921333313,0.2128942310810089,-1.0422245264053345,0.9999786615371704,0.384744793176651,0.21323469281196594,-1.0423011779785156,0.999977707862854,0.46933695673942566,0.2149120569229126,-0.6698129177093506,0.9999608993530273,0.3395036458969116,0.22296449542045593,-0.8008396029472351,0.9999836683273315,0.4597930908203125,0.25782153010368347,-0.9328102469444275,0.9999909400939941,0.42420145869255066,0.2606966495513916,-0.9694555401802063,0.9999954700469971,0.5481001138687134,0.34530866146087646,-0.40257182717323303,0.9998993873596191,0.18750685453414917,0.36489176750183105,-0.6305729150772095,0.9999122619628906,0.5930169224739075,0.5088860392570496,-0.1558203101158142,0.9775899052619934,0.14195847511291504,0.5189757347106934,-0.7505022287368774,0.9869296550750732,0.6501783132553101,0.633469820022583,-0.40144336223602295,0.9783573150634766,0.2805517315864563,0.5541809797286987,-1.1480544805526733,0.9607396721839905,0.6677613258361816,0.6761317849159241,-0.4895343780517578,0.9617781639099121,0.3350842595100403,0.5654086470603943,-1.26284658908844,0.9400652050971985,0.6503515243530273,0.6752131581306458,-0.5864561200141907,0.9643211960792542,0.34114861488342285,0.5409239530563354,-1.3135075569152832,0.9407224059104919,0.6395789980888367,0.6667793393135071,-0.4437389373779297,0.9648237228393555,0.324735552072525,0.5357568264007568,-1.1730592250823975,0.929386556148529,0.49477171897888184,0.6280068755149841,0.09443487226963043,0.9969136714935303,0.32292965054512024,0.6475712656974792,-0.09417647123336792,0.9983225464820862,0.48639893531799316,0.8283112049102783,0.45199498534202576,0.9590715765953064,0.3408135175704956,0.8620644807815552,0.1563689261674881,0.988364577293396,0.48376742005348206,0.9615681767463684,1.0814461708068848,0.922343909740448,0.355657160282135,0.9948443174362183,0.6838158965110779,0.9510271549224854,0.45621034502983093,0.9766655564308167,1.1252316236495972,0.8749186396598816,0.35479533672332764,0.9975889921188354,0.7215678095817566,0.7828316688537598,0.5567078590393066,1.0178018808364868,0.8500247597694397,0.891998291015625,0.38683047890663147,1.0886541604995728,0.3420078754425049,0.8665539622306824
18669.138159319235,0.45024093985557556,0.23520159721374512,-1.0540956258773804,0.9999896287918091,0.45714619755744934,0.20983615517616272,-0.9988758563995361,0.9999774694442749,0.4662906229496002,0.20804885029792786,-0.9989274740219116,0.9999732971191406,0.47448691725730896,0.2065626084804535,-0.9988923072814941,0.9999685287475586,0.422275185585022,0.21277227997779846,-1.0259628295898438,0.9999828338623047,0.4038112163543701,0.21302944421768188,-1.0260601043701172,0.9999812841415405,0.3857496976852417,0.21333080530166626,-1.0261473655700684,0.9999804496765137,0.4692993760108948,0.2139449119567871,-0.6388971209526062,0.999966025352478,0.33906012773513794,0.2228131890296936,-0.7747061252593994,0.999987006187439,0.46128132939338684,0.25727322697639465,-0.9172558784484863,0.9999920129776001,0.4254038333892822,0.260305792093277,-0.9552961587905884,0.9999960660934448,0.5461263656616211,0.3470453917980194,-0.3604285717010498,0.9999010562896729,0.1899527907371521,0.36565741896629333,-0.6144351959228516,0.9999171495437622,0.5941115617752075,0.5097719430923462,-0.11091505736112595,0.9748374819755554,0.1393706351518631,0.5170960426330566,-0.7504277229309082,0.9881235957145691,0.6502634882926941,0.6352320909500122,-0.3728017807006836,0.9751659631729126,0.2813650667667389,0.5551304221153259,-1.1770602464675903,0.9608737826347351,0.6689529418945312,0.6784691214561462,-0.4623115360736847,0.957205593585968,0.3350028693675995,0.566753625869751,-1.2976876497268677,0.9396312832832336,0.6512364149093628,0.6772823929786682,-0.5602852702140808,0.9600368142127991,0.34076786041259766,0.5419582724571228,-1.3493820428848267,0.9405597448348999,0.6399936676025391,0.6683921217918396,-0.4160885810852051,0.960547685623169,0.3236926198005676,0.5366408228874207,-1.2031340599060059,0.9290556311607361,0.4958139657974243,0.6304797530174255,0.10582922399044037,0.997222900390625,0.3238022029399872,0.6509324312210083,-0.10550102591514587,0.9984569549560547,0.4869096577167511,0.8364259004592896,0.46824556589126587,0.9599923491477966,0.3417283594608307,0.8664504289627075,0.14797760546207428,0.9887500405311584,0.4841552972793579,0.9668620824813843,1.1228694915771484,0.9224265813827515,0.3558066487312317,0.9959479570388794,0.6953321099281311,0.947877824306488,0.4567384719848633,0.9790233373641968,1.1684346199035645,0.8772156238555908,0.3533957004547119,0.9977771639823914,0.7350906133651733,0.7761048078536987,0.5527666807174683,1.0219545364379883,0.8840435147285461,0.8895068168640137,0.3946838974952698,1.0933948755264282,0.3451301157474518,0.8567737340927124
18685.804825985902,0.45026135444641113,0.23646944761276245,-1.0183979272842407,0.999987006187439,0.457271933555603,0.2110843062400818,-0.9639617800712585,0.9999721050262451,0.46610334515571594,0.2094038426876068,-0.9640291333198547,0.9999675750732422,0.47434210777282715,0.2080191671848297,-0.9640107154846191,0.9999618530273438,0.4225755035877228,0.2138884961605072,-0.9926225543022156,0.9999784231185913,0.4053035080432892,0.21416905522346497,-0.9927181601524353,0.9999765157699585,0.3874659240245819,0.2145504355430603,-0.9928061962127686,0.9999748468399048,0.4692167043685913,0.2147730588912964,-0.608397901058197,0.9999606609344482,0.3414612412452698,0.22358438372612,-0.7511523962020874,0.9999834299087524,0.46074897050857544,0.258394718170166,-0.8827948570251465,0.9999905824661255,0.42549237608909607,0.260882705450058,-0.9229467511177063,0.9999951124191284,0.544950544834137,0.3475683629512787,-0.3414766192436218,0.9999086856842041,0.18893228471279144,0.3655626177787781,-0.5926064252853394,0.9999086856842041,0.593434751033783,0.5088486075401306,-0.09359752386808395,0.9767617583274841,0.14269043505191803,0.5163683891296387,-0.7318518161773682,0.9863256812095642,0.6523849964141846,0.6350551247596741,-0.35016849637031555,0.9765300750732422,0.2802075147628784,0.5561724901199341,-1.1550281047821045,0.9536956548690796,0.6703004837036133,0.6785096526145935,-0.43857821822166443,0.9588366746902466,0.3345320224761963,0.5690274834632874,-1.2734633684158325,0.9304483532905579,0.6529484987258911,0.6772324442863464,-0.5350098609924316,0.9618702530860901,0.34337443113327026,0.5436633229255676,-1.3264678716659546,0.9319191575050354,0.6423568725585938,0.6680484414100647,-0.3928251266479492,0.9621701240539551,0.32663118839263916,0.5381622910499573,-1.1818068027496338,0.9191257357597351,0.4951964318752289,0.6282695531845093,0.10213398933410645,0.9971952438354492,0.32370319962501526,0.6491574645042419,-0.10177682340145111,0.9983319640159607,0.48854532837867737,0.8323447704315186,0.4478183686733246,0.9579938650131226,0.3430100679397583,0.8651309609413147,0.1456877738237381,0.9869285225868225,0.4862053394317627,0.9614700675010681,1.1157876253128052,0.9107783436775208,0.3568747937679291,0.9941076040267944,0.7002341747283936,0.9397143125534058,0.4607691466808319,0.9734013080596924,1.1635422706604004,0.8622027039527893,0.3493967056274414,1.0205845832824707,0.7411988377571106,0.7567965388298035,0.5554308295249939,1.018715262413025,0.8841311931610107,0.8747878074645996,0.394658625125885,1.0883811712265015,0.3570956289768219,0.8404385447502136
18702.47149265257,0.4512357711791992,0.23671028017997742,-1.0281769037246704,0.9999806880950928,0.4584803283214569,0.2116435468196869,-0.9743091464042664,0.9999605417251587,0.4677584171295166,0.21003460884094238,-0.974401593208313,0.999954104423523,0.47624000906944275,0.20865818858146667,-0.9744486808776855,0.9999487400054932,0.4230205714702606,0.21399548649787903,-1.0041784048080444,0.9999659061431885,0.40537601709365845,0.21404549479484558,-1.004278540611267,0.9999611377716064,0.38747063279151917,0.21426916122436523,-1.0043522119522095,0.9999575614929199,0.47169947624206543,0.2150759994983673,-0.6165395975112915,0.999947190284729,0.34128862619400024,0.22360464930534363,-0.7657981514930725,0.9999687671661377,0.46250709891319275,0.2585389316082001,-0.8910565376281738,0.9999862909317017,0.42652931809425354,0.2608666718006134,-0.9330382943153381,0.9999910593032837,0.5479023456573486,0.3478115200996399,-0.3624236583709717,0.9998974800109863,0.1915844827890396,0.3660079836845398,-0.5943797826766968,0.9998069405555725,0.5935107469558716,0.5103878974914551,-0.11977977305650711,0.9756250977516174,0.15392015874385834,0.5163295865058899,-0.7194639444351196,0.9718045592308044,0.6533935070037842,0.6361978054046631,-0.3657103180885315,0.9746143221855164,0.2781873345375061,0.5588366985321045,-1.1249383687973022,0.9091976284980774,0.6713106632232666,0.6793883442878723,-0.45289793610572815,0.9558321833610535,0.330790638923645,0.5736870765686035,-1.2401459217071533,0.8800630569458008,0.6537117958068848,0.6782546639442444,-0.5518871545791626,0.9593634605407715,0.3402877449989319,0.5479037761688232,-1.2957994937896729,0.8835856914520264,0.6425371170043945,0.6692517399787903,-0.4089081287384033,0.9600324630737305,0.3227555453777313,0.5418161153793335,-1.1535801887512207,0.8681151270866394,0.5011457800865173,0.6312345266342163,0.09042567014694214,0.9969460368156433,0.3277168869972229,0.6516702771186829,-0.09003470838069916,0.9978783130645752,0.48931846022605896,0.8382756114006042,0.3957587778568268,0.9553190469741821,0.340851366519928,0.867572546005249,0.1290549635887146,0.982610285282135,0.4866340160369873,0.9676101207733154,1.0887682437896729,0.9011136293411255,0.3623192310333252,0.9932716488838196,0.7065238952636719,0.9314190745353699,0.46217241883277893,0.980017900466919,1.138944387435913,0.8498913645744324,0.35918140411376953,1.0203462839126587,0.7492347359657288,0.7249914407730103,0.5529968738555908,1.0243151187896729,0.8564545512199402,0.8617944717407227,0.38217929005622864,1.0906429290771484,0.3647971451282501,0.8264148235321045
18719.13815931924,0.45039045810699463,0.23446953296661377,-1.0645349025726318,0.9999889135360718,0.4559188783168793,0.210099458694458,-1.0083959102630615,0.9999774694442749,0.46481969952583313,0.20868533849716187,-1.0084625482559204,0.9999738931655884,0.4730308949947357,0.207429438829422,-1.0084284543991089,0.9999686479568481,0.4221949279308319,0.21191143989562988,-1.0370545387268066,0.9999818801879883,0.404072642326355,0.21178150177001953,-1.0371744632720947,0.9999805688858032,0.3859495520591736,0.21170848608016968,-1.0372629165649414,0.9999786615371704,0.46653997898101807,0.21430587768554688,-0.6419727206230164,0.9999678134918213,0.3381209373474121,0.22036975622177124,-0.784864604473114,0.999984622001648,0.46052083373069763,0.2571903169155121,-0.9253522753715515,0.999991774559021,0.4248064458370209,0.25934258103370667,-0.9653614163398743,0.9999953508377075,0.5465292930603027,0.34599021077156067,-0.36936426162719727,0.9999150037765503,0.18664845824241638,0.36849433183670044,-0.6072824597358704,0.9998706579208374,0.5932233929634094,0.5077289938926697,-0.1170588955283165,0.9811448454856873,0.14619877934455872,0.5242775678634644,-0.7593611478805542,0.9854353666305542,0.6552838087081909,0.6379396915435791,-0.3829175531864166,0.9813339114189148,0.2762894332408905,0.5540955662727356,-1.2207410335540771,0.9587647914886475,0.6718810796737671,0.6809045076370239,-0.47202426195144653,0.9653773903846741,0.33018195629119873,0.5656040906906128,-1.3410810232162476,0.9374417066574097,0.6538982391357422,0.6793006658554077,-0.5700101852416992,0.9682439565658569,0.3359847366809845,0.5405477285385132,-1.3927087783813477,0.9393324851989746,0.6434509754180908,0.6701169610023499,-0.42569321393966675,0.9686291217803955,0.31771421432495117,0.5349270105361938,-1.2470247745513916,0.9273752570152283,0.5005355477333069,0.6313562989234924,0.0940992683172226,0.9972892999649048,0.3267388343811035,0.6537870764732361,-0.09369046241044998,0.9982010126113892,0.4919055700302124,0.833717942237854,0.3705313801765442,0.9534006118774414,0.3444803059101105,0.8692618608474731,0.1054016575217247,0.9810402989387512,0.48650309443473816,0.961898148059845,1.0819671154022217,0.8936052918434143,0.36054912209510803,0.9916350245475769,0.6819352507591248,0.9245333075523376,0.46139946579933167,0.9748609662055969,1.1332178115844727,0.8489445447921753,0.3510214388370514,1.0220623016357422,0.7246952056884766,0.7259052991867065,0.5541162490844727,1.021164894104004,0.845496654510498,0.8456811904907227,0.3826836049556732,1.091559886932373,0.3331400454044342,0.8093463778495789
18735.804825985906,0.44940149784088135,0.2353997826576233,-1.0296803712844849,0.9999871253967285,0.45535874366760254,0.21039441227912903,-0.9749700427055359,0.9999740123748779,0.4644429683685303,0.2089163362979889,-0.9750612378120422,0.9999698400497437,0.4728586673736572,0.20762434601783752,-0.9750489592552185,0.9999639987945557,0.4210011959075928,0.2123737335205078,-1.0026639699935913,0.9999786615371704,0.40270233154296875,0.21247515082359314,-1.0027984380722046,0.9999772310256958,0.38526344299316406,0.21267461776733398,-1.0029207468032837,0.9999750852584839,0.46665918827056885,0.2146323323249817,-0.6155837178230286,0.9999642372131348,0.33814287185668945,0.22195324301719666,-0.7545928359031677,0.9999828338623047,0.46003636717796326,0.25796931982040405,-0.8927792906761169,0.9999914169311523,0.42429807782173157,0.2601916193962097,-0.9316732287406921,0.9999951124191284,0.5461577773094177,0.34669598937034607,-0.3504366874694824,0.9999227523803711,0.1885792464017868,0.36747226119041443,-0.5832799077033997,0.9998805522918701,0.5942800641059875,0.5084481239318848,-0.1025441512465477,0.9817923903465271,0.14740069210529327,0.5218522548675537,-0.7402799725532532,0.9859296679496765,0.6517986059188843,0.6358954906463623,-0.3698677122592926,0.9833378195762634,0.274859219789505,0.5561648607254028,-1.2098139524459839,0.9626062512397766,0.6707121729850769,0.6804956197738647,-0.46001332998275757,0.9696053862571716,0.3302913010120392,0.567926824092865,-1.3299143314361572,0.9440284967422485,0.6531417369842529,0.6790598630905151,-0.5569093823432922,0.9722933769226074,0.3353629410266876,0.5422493815422058,-1.3828543424606323,0.9461395740509033,0.642056405544281,0.6696453094482422,-0.4122261703014374,0.9726222157478333,0.3172139525413513,0.5365492701530457,-1.2367253303527832,0.9359359741210938,0.49962159991264343,0.6312412023544312,0.09067107737064362,0.9970689415931702,0.3269299566745758,0.6539993286132812,-0.09025073796510696,0.9979336261749268,0.4885774552822113,0.8393383026123047,0.35225802659988403,0.938683271408081,0.34226495027542114,0.871658980846405,0.09704793989658356,0.9734868407249451,0.4845648407936096,0.9651810526847839,1.0536926984786987,0.8517419695854187,0.3579085171222687,0.9917035102844238,0.6634531021118164,0.8902071714401245,0.45962488651275635,0.9757424592971802,1.104617953300476,0.8081594109535217,0.3474099040031433,1.0253748893737793,0.706037163734436,0.6705485582351685,0.544956386089325,1.0234266519546509,0.8222048878669739,0.7922897934913635,0.38385191559791565,1.0943511724472046,0.31910157203674316,0.7455214858055115
18752.471492652574,0.4499466121196747,0.23438295722007751,-1.009985327720642,0.9999830722808838,0.45522966980934143,0.21009355783462524,-0.9557877779006958,0.999964714050293,0.46409812569618225,0.20864230394363403,-0.9558727741241455,0.9999599456787109,0.4723406732082367,0.20732158422470093,-0.9558711051940918,0.9999529123306274,0.42134279012680054,0.21194970607757568,-0.9839546084403992,0.9999716281890869,0.40279948711395264,0.21191969513893127,-0.9840283393859863,0.999969482421875,0.38518062233924866,0.21209192276000977,-0.9841082692146301,0.9999663829803467,0.4655778408050537,0.21412718296051025,-0.6037760972976685,0.9999517202377319,0.3380047082901001,0.22137212753295898,-0.7439125776290894,0.9999759197235107,0.460563063621521,0.2567669451236725,-0.8759824633598328,0.9999879598617554,0.4248335063457489,0.25894659757614136,-0.9151706695556641,0.9999932050704956,0.5465770959854126,0.34601032733917236,-0.34757477045059204,0.9998995065689087,0.18574362993240356,0.36653566360473633,-0.5774850845336914,0.9998470544815063,0.5937180519104004,0.5086900591850281,-0.09900204092264175,0.979206919670105,0.14393803477287292,0.5211842060089111,-0.7152050733566284,0.9824821949005127,0.6551905870437622,0.6389233469963074,-0.35252293944358826,0.9790522456169128,0.27999696135520935,0.5570923089981079,-1.1431070566177368,0.9485359191894531,0.6727731227874756,0.6820605993270874,-0.4415752589702606,0.9623408913612366,0.3310372829437256,0.5672622919082642,-1.2591534852981567,0.9249883890151978,0.6545689105987549,0.6807175874710083,-0.5370216965675354,0.9655620455741882,0.3351689279079437,0.5413232445716858,-1.3104757070541382,0.9273931980133057,0.6435681581497192,0.6713489890098572,-0.39438265562057495,0.9662168622016907,0.3191617727279663,0.5365233421325684,-1.1689016819000244,0.9147265553474426,0.49842312932014465,0.6298937797546387,0.09497363120317459,0.9967494010925293,0.3226929306983948,0.6528691649436951,-0.09456899017095566,0.997831404209137,0.4885495901107788,0.8370928764343262,0.4047286808490753,0.9469709992408752,0.34741756319999695,0.8664676547050476,0.1309204250574112,0.9795061349868774,0.4880860447883606,0.9628970623016357,1.1076908111572266,0.8741565346717834,0.3625819683074951,0.9920004606246948,0.7019400596618652,0.9086720943450928,0.4670069217681885,0.9766220450401306,1.1594618558883667,0.8224577307701111,0.3531075119972229,1.0180721282958984,0.745627224445343,0.7045921087265015,0.5538973808288574,1.0197229385375977,0.8836902976036072,0.8176395893096924,0.3930392861366272,1.087049126625061,0.36770883202552795,0.7737333178520203
18769.138159319242,0.4491458833217621,0.23554828763008118,-1.0539710521697998,0.9999909400939941,0.4556674063205719,0.2111615240573883,-0.9972249269485474,0.9999818801879883,0.46499958634376526,0.20982620120048523,-0.9972893595695496,0.9999785423278809,0.47350457310676575,0.20857492089271545,-0.9972732663154602,0.9999754428863525,0.4215855896472931,0.21244370937347412,-1.0246810913085938,0.999984622001648,0.403629332780838,0.2121116816997528,-1.0247876644134521,0.9999829530715942,0.38611936569213867,0.21186640858650208,-1.0248507261276245,0.9999812841415405,0.46888771653175354,0.2145375907421112,-0.6333005428314209,0.9999732971191406,0.33921605348587036,0.2205166220664978,-0.7729325890541077,0.9999852180480957,0.45990681648254395,0.25793391466140747,-0.9166133403778076,0.9999929666519165,0.4252191483974457,0.25956597924232483,-0.955691397190094,0.9999957084655762,0.5457567572593689,0.3474656343460083,-0.37842264771461487,0.9999181032180786,0.19028536975383759,0.36673593521118164,-0.597720742225647,0.9998538494110107,0.5939545631408691,0.5097752809524536,-0.1411161720752716,0.9815049767494202,0.14938406646251678,0.5164686441421509,-0.7486703395843506,0.9798856377601624,0.6515214443206787,0.6355530023574829,-0.40029749274253845,0.9824773669242859,0.272451788187027,0.5572566986083984,-1.2037993669509888,0.9441404938697815,0.6688665151596069,0.6795938014984131,-0.48921769857406616,0.9675028920173645,0.326460063457489,0.5702251195907593,-1.3240222930908203,0.9211007356643677,0.6500598192214966,0.6788254380226135,-0.5885728001594543,0.9701059460639954,0.3322983980178833,0.544049859046936,-1.3772602081298828,0.9238710999488831,0.6385300159454346,0.6704815030097961,-0.4436056315898895,0.9705025553703308,0.3153011202812195,0.5375446081161499,-1.2319048643112183,0.9124254584312439,0.5003101229667664,0.6310887932777405,0.08786199241876602,0.9972946047782898,0.32672178745269775,0.6529600024223328,-0.08746405690908432,0.9982026815414429,0.4888092875480652,0.8351820111274719,0.38374337553977966,0.9563401937484741,0.34105533361434937,0.8664236664772034,0.10778188705444336,0.9833886623382568,0.4859688878059387,0.9621502757072449,1.0658376216888428,0.9035680294036865,0.35714098811149597,0.9888063669204712,0.657082736492157,0.9331152439117432,0.46251180768013,0.9762588143348694,1.1141774654388428,0.856429934501648,0.35881149768829346,0.988535463809967,0.6965375542640686,0.7311689853668213,0.5508041381835938,1.0189592838287354,0.8294594883918762,0.8619518280029297,0.3833065330982208,1.090001106262207,0.307075560092926,0.8267183899879456
18785.80482598591,0.4564712941646576,0.23480170965194702,-1.013817310333252,0.9999839067459106,0.4624977707862854,0.21122926473617554,-0.9583255648612976,0.9999659061431885,0.4708646535873413,0.21006712317466736,-0.9583919048309326,0.9999593496322632,0.4783633351325989,0.20884868502616882,-0.958365261554718,0.9999536275863647,0.42944806814193726,0.2123343050479889,-0.9909399747848511,0.9999741315841675,0.4126127362251282,0.21169528365135193,-0.9910527467727661,0.9999710321426392,0.3931194245815277,0.2113056778907776,-0.9911328554153442,0.9999699592590332,0.46941953897476196,0.21512311697006226,-0.6055558323860168,0.9999465942382812,0.3439713418483734,0.2193644642829895,-0.7667669653892517,0.999976634979248,0.4644615650177002,0.2566916048526764,-0.8800373077392578,0.9999872446060181,0.43039000034332275,0.25895872712135315,-0.9253463745117188,0.999993085861206,0.5422921180725098,0.34627771377563477,-0.3579864501953125,0.9998806715011597,0.1891600340604782,0.36673346161842346,-0.6077812910079956,0.9998612403869629,0.592438280582428,0.5101363658905029,-0.12343006581068039,0.9767314195632935,0.14779916405677795,0.5219509601593018,-0.7427981495857239,0.98457932472229,0.6512432098388672,0.6337637305259705,-0.38816773891448975,0.9784550070762634,0.28473830223083496,0.5560900568962097,-1.1480209827423096,0.9580716490745544,0.669780969619751,0.6784186363220215,-0.4783762991428375,0.961063027381897,0.3395516276359558,0.5663223266601562,-1.2645914554595947,0.9372194409370422,0.6528218388557434,0.6773666739463806,-0.5744379162788391,0.963916540145874,0.34524810314178467,0.5404208898544312,-1.3139640092849731,0.93858402967453,0.6412919759750366,0.6687566637992859,-0.43088772892951965,0.9642894864082336,0.32816052436828613,0.5351417660713196,-1.172619104385376,0.9261509776115417,0.5000805854797363,0.6346614956855774,0.09694476425647736,0.9969636797904968,0.32552221417427063,0.6546281576156616,-0.09666822850704193,0.9981319308280945,0.4894692897796631,0.8365346789360046,0.45380914211273193,0.9537238478660583,0.34260469675064087,0.8706471920013428,0.1525322049856186,0.9836986064910889,0.4858880341053009,0.9680219888687134,1.1226890087127686,0.9057224988937378,0.3612287938594818,0.992411196231842,0.71745765209198,0.9333860278129578,0.4617466628551483,0.9797094464302063,1.170609474182129,0.8560693264007568,0.35721832513809204,1.023074984550476,0.7594075202941895,0.7350561618804932,0.5548890829086304,1.0217235088348389,0.8935869932174683,0.8751574158668518,0.3889506161212921,1.0929335355758667,0.3787515461444855,0.8385626673698425
18802.471492652578,0.44837072491645813,0.23538359999656677,-1.032312035560608,0.9999890327453613,0.4549870193004608,0.21098637580871582,-0.9779259562492371,0.9999762773513794,0.4641609787940979,0.2097196877002716,-0.9779786467552185,0.9999722242355347,0.47264423966407776,0.20859366655349731,-0.9779346585273743,0.9999676942825317,0.4210638105869293,0.2124004364013672,-1.0047088861465454,0.9999810457229614,0.40297356247901917,0.21211296319961548,-1.004798173904419,0.9999792575836182,0.38554757833480835,0.21193552017211914,-1.004862904548645,0.9999774694442749,0.4679883122444153,0.2154342234134674,-0.6229770183563232,0.9999645948410034,0.3396521806716919,0.22065839171409607,-0.7589502930641174,0.9999833106994629,0.4589749872684479,0.25806760787963867,-0.8976594805717468,0.9999912977218628,0.42459893226623535,0.25981616973876953,-0.9357221722602844,0.9999951124191284,0.545145571231842,0.34643757343292236,-0.36542022228240967,0.9999161958694458,0.1916704922914505,0.3657321631908417,-0.5903689861297607,0.9998887777328491,0.5934480428695679,0.508691668510437,-0.11724907159805298,0.9804161190986633,0.14649105072021484,0.5161669850349426,-0.7328524589538574,0.9840295910835266,0.6514734029769897,0.6342681050300598,-0.3712223470211029,0.9821118116378784,0.2732267379760742,0.5558072328567505,-1.1713271141052246,0.9524253010749817,0.6692036390304565,0.6784424185752869,-0.4598449468612671,0.9673405289649963,0.32825955748558044,0.5687359571456909,-1.2899810075759888,0.9303138852119446,0.6515576243400574,0.677547037601471,-0.5574461817741394,0.9697371125221252,0.33515486121177673,0.5427685976028442,-1.3429867029190063,0.9318689703941345,0.6404821872711182,0.6686078906059265,-0.41372713446617126,0.9699347615242004,0.3177229166030884,0.5369009971618652,-1.1985512971878052,0.9201928973197937,0.5002428293228149,0.6303504109382629,0.09417225420475006,0.9975855350494385,0.3279637098312378,0.6523475050926208,-0.09383681416511536,0.998451828956604,0.4905707836151123,0.8325952291488647,0.44376784563064575,0.9570963978767395,0.3419860601425171,0.8656055331230164,0.15369533002376556,0.9861143827438354,0.48435473442077637,0.9644148349761963,1.1062506437301636,0.9098439812660217,0.36001497507095337,0.9901272058486938,0.7061454653739929,0.9381592273712158,0.45918312668800354,0.9771709442138672,1.1533164978027344,0.861025333404541,0.35210365056991577,1.0188946723937988,0.7468715310096741,0.7506257891654968,0.5557569265365601,1.020172357559204,0.8741823434829712,0.8738691210746765,0.38876187801361084,1.0886998176574707,0.36572372913360596,0.8389133810997009
18819.138159319245,0.4524606764316559,0.2305038869380951,-0.977743923664093,0.9999839067459106,0.45902371406555176,0.2071673572063446,-0.9224193096160889,0.9999665021896362,0.46800512075424194,0.20636850595474243,-0.9225190877914429,0.9999604225158691,0.47626104950904846,0.20559537410736084,-0.9225500822067261,0.9999550580978394,0.42462629079818726,0.20732268691062927,-0.9517781138420105,0.9999734163284302,0.40813228487968445,0.20651796460151672,-0.9518950581550598,0.9999700784683228,0.38961222767829895,0.206059992313385,-0.9519980549812317,0.9999690055847168,0.4695392847061157,0.21286389231681824,-0.573292076587677,0.9999502897262573,0.34287476539611816,0.21536189317703247,-0.72060227394104,0.9999755620956421,0.4613848328590393,0.25395601987838745,-0.8451640605926514,0.9999877214431763,0.4266262650489807,0.2546532452106476,-0.886561930179596,0.999993085861206,0.54487144947052,0.347140371799469,-0.34811288118362427,0.9998840093612671,0.19064652919769287,0.3644534647464752,-0.5472086071968079,0.9998252987861633,0.5919786691665649,0.5108852386474609,-0.13214848935604095,0.9815279245376587,0.14236591756343842,0.5201230049133301,-0.6707090735435486,0.9804261922836304,0.650137186050415,0.6349433660507202,-0.4043513536453247,0.9808652997016907,0.28405386209487915,0.557763397693634,-1.0834957361221313,0.9489765167236328,0.6693644523620605,0.6779907941818237,-0.4997888505458832,0.9650489687919617,0.3375551700592041,0.568848729133606,-1.196277379989624,0.9261030554771423,0.652381420135498,0.6770341396331787,-0.594305157661438,0.9678378701210022,0.34386512637138367,0.5449754595756531,-1.2476152181625366,0.9282925128936768,0.640697717666626,0.6685298085212708,-0.4462297856807709,0.9683251976966858,0.3265683650970459,0.5394503474235535,-1.1084290742874146,0.9158548712730408,0.4974380433559418,0.6334484219551086,0.06928036361932755,0.9960640072822571,0.3221580386161804,0.6524162292480469,-0.0689084455370903,0.9974157810211182,0.48651811480522156,0.8388739228248596,0.2992165982723236,0.9522581696510315,0.34032413363456726,0.869269847869873,0.09221619367599487,0.9747573733329773,0.4882277846336365,0.9684435725212097,0.9849162697792053,0.879511833190918,0.3655093014240265,0.9947502017021179,0.6414516568183899,0.9100804328918457,0.4671742916107178,0.9803398847579956,1.0339570045471191,0.8252265453338623,0.37159571051597595,1.0294759273529053,0.6811251640319824,0.6831300258636475,0.5485292673110962,1.0276895761489868,0.7536453604698181,0.8295896649360657,0.3807366192340851,1.0983871221542358,0.29648053646087646,0.7892808318138123
18835.804825985913,0.4534066915512085,0.23407506942749023,-1.0016441345214844,0.9999816417694092,0.45892393589019775,0.20907169580459595,-0.9483001828193665,0.9999611377716064,0.4676267206668854,0.20768138766288757,-0.9483829140663147,0.9999549388885498,0.47593745589256287,0.20657441020011902,-0.9484096169471741,0.9999500513076782,0.4245453476905823,0.21154430508613586,-0.9799593091011047,0.9999676942825317,0.40791359543800354,0.2118959128856659,-0.9800775647163391,0.9999634027481079,0.38886281847953796,0.21249902248382568,-0.9801544547080994,0.9999604225158691,0.468222051858902,0.21442857384681702,-0.5955469012260437,0.9999462366104126,0.34136661887168884,0.22269898653030396,-0.7535070776939392,0.9999692440032959,0.4640062749385834,0.25559115409851074,-0.8662636280059814,0.9999867677688599,0.4286629557609558,0.25860437750816345,-0.9108436107635498,0.9999916553497314,0.5470130443572998,0.34782928228378296,-0.3501990735530853,0.999906063079834,0.18867824971675873,0.3655928075313568,-0.5801095962524414,0.9998373985290527,0.5949881076812744,0.508010745048523,-0.11575824022293091,0.9823137521743774,0.15125805139541626,0.5121434926986694,-0.7024082541465759,0.9784230589866638,0.6513948440551758,0.633466899394989,-0.37715062499046326,0.9830029606819153,0.26973217725753784,0.5561870336532593,-1.1141126155853271,0.9366085529327393,0.6684105396270752,0.6781855821609497,-0.4684036076068878,0.9684721231460571,0.3193390667438507,0.5698278546333313,-1.2299712896347046,0.9132120609283447,0.6505601406097412,0.6767321825027466,-0.5657691955566406,0.9710309505462646,0.330825537443161,0.5434190630912781,-1.287375569343567,0.9158458113670349,0.6399000883102417,0.6677326560020447,-0.4198038578033447,0.970678985118866,0.3123726546764374,0.5373102426528931,-1.1431394815444946,0.9017614722251892,0.49746984243392944,0.628542423248291,0.0880974531173706,0.9967998266220093,0.3231659233570099,0.6482815742492676,-0.08777196705341339,0.9979089498519897,0.48718106746673584,0.8332089781761169,0.4209803640842438,0.9586920142173767,0.33804553747177124,0.8608493208885193,0.1391766518354416,0.9839043617248535,0.4847269654273987,0.9626837968826294,1.0829089879989624,0.9077370762825012,0.3561372458934784,0.9908616542816162,0.6900606751441956,0.93428635597229,0.4605505168437958,0.9751923680305481,1.1303107738494873,0.8519373536109924,0.3538246750831604,1.0215893983840942,0.7297987341880798,0.7246707081794739,0.5516434907913208,1.022310495376587,0.8520674705505371,0.8751173615455627,0.37960168719291687,1.0901457071304321,0.34554752707481384,0.8357400894165039
18852.47149265258,0.4523193836212158,0.23414012789726257,-1.0342230796813965,0.9999812841415405,0.4583749771118164,0.20861387252807617,-0.9811157584190369,0.9999597072601318,0.46722325682640076,0.2072090208530426,-0.9811850190162659,0.999953031539917,0.4757361114025116,0.2061038613319397,-0.9812009930610657,0.9999474287033081,0.4235524535179138,0.2112891972064972,-1.0124552249908447,0.9999672174453735,0.4065893590450287,0.21170076727867126,-1.012577772140503,0.9999630451202393,0.387825071811676,0.21235114336013794,-1.0126516819000244,0.9999599456787109,0.46915459632873535,0.21403366327285767,-0.6274182796478271,0.9999443292617798,0.3411596715450287,0.2224477231502533,-0.7835082411766052,0.9999692440032959,0.46332162618637085,0.25593581795692444,-0.898492693901062,0.9999862909317017,0.42742016911506653,0.2588244378566742,-0.9425069093704224,0.9999914169311523,0.5470647215843201,0.3482104241847992,-0.37723439931869507,0.9998944997787476,0.18698346614837646,0.36561277508735657,-0.6090881824493408,0.9998347759246826,0.5957385301589966,0.508673906326294,-0.13699926435947418,0.9810993075370789,0.15178503096103668,0.5138014554977417,-0.7303280830383301,0.9779201745986938,0.6521750688552856,0.6357269287109375,-0.3884791433811188,0.9806555509567261,0.27042147517204285,0.5570275187492371,-1.1372145414352417,0.9346292614936829,0.6696518659591675,0.6793432831764221,-0.477267324924469,0.9643130302429199,0.3194020986557007,0.5704166889190674,-1.253239393234253,0.9101260304450989,0.6522383689880371,0.6778929829597473,-0.5754781365394592,0.9671233296394348,0.329863578081131,0.5432286858558655,-1.3109462261199951,0.9127967953681946,0.6414754390716553,0.6687875390052795,-0.4313541650772095,0.9672293663024902,0.3115391135215759,0.5372328162193298,-1.1666022539138794,0.8988708853721619,0.4987170696258545,0.6269338726997375,0.08884888887405396,0.9967818260192871,0.3241673707962036,0.647888720035553,-0.08851148933172226,0.9979885816574097,0.4876420795917511,0.8318349123001099,0.42992979288101196,0.9613265991210938,0.34119129180908203,0.8611016273498535,0.1487373262643814,0.9854497909545898,0.4838171899318695,0.9635785222053528,1.096238613128662,0.9146733283996582,0.3603552579879761,0.9918926358222961,0.7091017961502075,0.9412725567817688,0.4591483473777771,0.9772213697433472,1.143538475036621,0.8620373010635376,0.3585717976093292,1.0187196731567383,0.7495359778404236,0.7471601963043213,0.5509865283966064,1.0212900638580322,0.8628053069114685,0.882286787033081,0.37930727005004883,1.0876243114471436,0.36525869369506836,0.848876953125
18869.13815931925,0.45308423042297363,0.23192545771598816,-1.0326664447784424,0.9999889135360718,0.4596412181854248,0.20838287472724915,-0.9765496253967285,0.999976634979248,0.46868690848350525,0.20730304718017578,-0.9766043424606323,0.9999719858169556,0.4769757390022278,0.20638209581375122,-0.976579487323761,0.9999669790267944,0.42588716745376587,0.2094624638557434,-1.0068234205245972,0.9999822378158569,0.409500390291214,0.20912104845046997,-1.0069332122802734,0.9999804496765137,0.3907383680343628,0.2090049684047699,-1.0070276260375977,0.9999796152114868,0.4700520634651184,0.21389219164848328,-0.6187938451766968,0.9999654293060303,0.3428179621696472,0.21806228160858154,-0.768730640411377,0.999984860420227,0.46255022287368774,0.2543970048427582,-0.8969001770019531,0.9999920129776001,0.4272676408290863,0.256462961435318,-0.939034104347229,0.9999958276748657,0.5457891821861267,0.3471394181251526,-0.3659897744655609,0.9999029636383057,0.18870089948177338,0.3664681911468506,-0.5990187525749207,0.9998880624771118,0.5952234864234924,0.5099168419837952,-0.12820275127887726,0.980000913143158,0.14206376671791077,0.5205456018447876,-0.7389659881591797,0.9866406321525574,0.6465815901756287,0.632718563079834,-0.39542126655578613,0.9794421792030334,0.28087687492370605,0.5550477504730225,-1.1699635982513428,0.9622777104377747,0.6664503216743469,0.6750566363334656,-0.48788517713546753,0.9626232385635376,0.3379867672920227,0.5649697780609131,-1.2878341674804688,0.942192792892456,0.6477289199829102,0.6741644740104675,-0.582378625869751,0.9654033780097961,0.3417263925075531,0.5392076373100281,-1.3372451066970825,0.9432140588760376,0.6355371475219727,0.6659446358680725,-0.437155157327652,0.9658079743385315,0.32435643672943115,0.5343053936958313,-1.194339394569397,0.9313523769378662,0.4957730770111084,0.6320302486419678,0.09130972623825073,0.996925413608551,0.3236379623413086,0.6537161469459534,-0.09095386415719986,0.9981725215911865,0.48733749985694885,0.8331173658370972,0.36437609791755676,0.9568163752555847,0.3409970998764038,0.8702901601791382,0.10342240333557129,0.9834327101707458,0.48525530099868774,0.9627225399017334,1.0589653253555298,0.9051010608673096,0.35600733757019043,0.9974684119224548,0.6652947068214417,0.9352433085441589,0.4589351713657379,0.9756527543067932,1.1089704036712646,0.8591298460960388,0.35699573159217834,0.9982462525367737,0.706062912940979,0.7451432347297668,0.5509293079376221,1.0211176872253418,0.8284254670143127,0.8709275722503662,0.3956032991409302,1.0930464267730713,0.31778445839881897,0.8372268080711365
18885.804825985917,0.4517366886138916,0.22996333241462708,-1.0209383964538574,0.9999874830245972,0.45757871866226196,0.20660704374313354,-0.964935302734375,0.9999737739562988,0.4666992127895355,0.2056700587272644,-0.9650049805641174,0.9999688863754272,0.47511929273605347,0.20493382215499878,-0.9649847149848938,0.9999638795852661,0.42418450117111206,0.20713061094284058,-0.994472086429596,0.9999791383743286,0.4074530601501465,0.2065303921699524,-0.9945972561836243,0.9999771118164062,0.3892855644226074,0.20625773072242737,-0.9947167634963989,0.9999760389328003,0.46949028968811035,0.21276172995567322,-0.6062933802604675,0.999961256980896,0.3417626917362213,0.21572041511535645,-0.7535696625709534,0.9999818801879883,0.46160244941711426,0.2531512975692749,-0.8849026560783386,0.9999910593032837,0.42638006806373596,0.2548137903213501,-0.9262694120407104,0.999995231628418,0.5450930595397949,0.34693044424057007,-0.3527441620826721,0.9999071359634399,0.1896325796842575,0.36574992537498474,-0.5847530961036682,0.9998692274093628,0.5941208600997925,0.5109996199607849,-0.11144588142633438,0.9825395345687866,0.14365290105342865,0.5190799236297607,-0.7199363112449646,0.9859681129455566,0.6481814384460449,0.6340516805648804,-0.3771524429321289,0.9830275774002075,0.280174195766449,0.5548163652420044,-1.1525641679763794,0.9612442255020142,0.6674712896347046,0.6765625476837158,-0.47018924355506897,0.9685434103012085,0.33602479100227356,0.5658113956451416,-1.2688021659851074,0.9416428208351135,0.6476316452026367,0.675340473651886,-0.5648954510688782,0.9710289239883423,0.3401479423046112,0.5410010814666748,-1.321603775024414,0.9433165788650513,0.6354808807373047,0.6671911478042603,-0.4186081886291504,0.971250593662262,0.32241594791412354,0.5357093214988708,-1.17804753780365,0.9321536421775818,0.4961988925933838,0.6318187713623047,0.08950913697481155,0.9968351721763611,0.32348141074180603,0.6534127593040466,-0.08910485357046127,0.997983455657959,0.48840251564979553,0.8346042633056641,0.32253462076187134,0.9529159665107727,0.34254828095436096,0.8729758858680725,0.07076802849769592,0.9792833924293518,0.4854988157749176,0.9663611650466919,1.0259311199188232,0.887759268283844,0.3585969805717468,0.9961082339286804,0.6291283369064331,0.9181093573570251,0.4609222412109375,0.9776114225387573,1.0766770839691162,0.8401360511779785,0.35842785239219666,1.0280473232269287,0.6698163747787476,0.6980258226394653,0.5523666143417358,1.0208979845046997,0.7939848303794861,0.8427808284759521,0.39163708686828613,1.0978446006774902,0.27810510993003845,0.8009307384490967
18902.471492652585,0.4515341818332672,0.23370519280433655,-1.0568394660949707,0.9999910593032837,0.4581143260002136,0.20906895399093628,-1.0016188621520996,0.9999814033508301,0.46723103523254395,0.20752274990081787,-1.0016618967056274,0.9999781847000122,0.4755582809448242,0.20621070265769958,-1.0015978813171387,0.9999732971191406,0.4233984053134918,0.21141979098320007,-1.0303725004196167,0.9999858140945435,0.40605732798576355,0.21139928698539734,-1.0304890871047974,0.9999849796295166,0.38746845722198486,0.21139302849769592,-1.0305891036987305,0.9999837875366211,0.4696485996246338,0.213352233171463,-0.641423225402832,0.9999730587005615,0.33967602252960205,0.21980923414230347,-0.7844939827919006,0.9999886751174927,0.462886244058609,0.25564250349998474,-0.9199435710906982,0.9999932050704956,0.42659783363342285,0.25846391916275024,-0.9600055813789368,0.999996542930603,0.5470302104949951,0.3486287593841553,-0.37245526909828186,0.9999091625213623,0.1892639398574829,0.36753469705581665,-0.6145868897438049,0.9998979568481445,0.594279944896698,0.5109035968780518,-0.11836758255958557,0.9793283939361572,0.14060699939727783,0.5200132727622986,-0.7716072797775269,0.9886271357536316,0.6505184173583984,0.6355636119842529,-0.3744055926799774,0.9798081517219543,0.2790195345878601,0.552639365196228,-1.2245465517044067,0.9660512804985046,0.6696179509162903,0.6783074736595154,-0.46150991320610046,0.9635230302810669,0.3361952304840088,0.5631387233734131,-1.3423349857330322,0.9467321038246155,0.6519167423248291,0.6767613887786865,-0.5558172464370728,0.9664252400398254,0.34053000807762146,0.5378013849258423,-1.3913382291793823,0.9479734897613525,0.6404150724411011,0.6678168773651123,-0.4156719446182251,0.9671033620834351,0.32178762555122375,0.5323429703712463,-1.2490755319595337,0.9373641014099121,0.49764111638069153,0.6309207081794739,0.0932597741484642,0.997191846370697,0.3261648416519165,0.6536478996276855,-0.09285205602645874,0.9983104467391968,0.4891868531703949,0.8291665315628052,0.38187092542648315,0.9530927538871765,0.34396272897720337,0.8691360354423523,0.11594968289136887,0.9822496175765991,0.4862428605556488,0.9593489766120911,1.0649977922439575,0.9004637002944946,0.35569146275520325,0.9929468035697937,0.6701403260231018,0.9284476637840271,0.4596633017063141,0.9708418250083923,1.11381196975708,0.8589226603507996,0.3533664345741272,1.022607684135437,0.7109721899032593,0.7414470314979553,0.5505040884017944,1.0200544595718384,0.8332388401031494,0.857083797454834,0.3910142779350281,1.0912141799926758,0.3247600793838501,0.815784752368927
18919.138159319253,0.4500060975551605,0.22956839203834534,-1.0381537675857544,0.99998939037323,0.4563337564468384,0.20604807138442993,-0.9829468727111816,0.9999765157699585,0.465547114610672,0.20512712001800537,-0.9829829335212708,0.9999722242355347,0.4740850031375885,0.2044382393360138,-0.9828968048095703,0.9999666213989258,0.4223884642124176,0.206699401140213,-1.0107169151306152,0.9999821186065674,0.4051576256752014,0.20621633529663086,-1.0107929706573486,0.9999806880950928,0.38745832443237305,0.20608416199684143,-1.0108540058135986,0.9999793767929077,0.46926984190940857,0.21276482939720154,-0.6320223212242126,0.9999632835388184,0.33999574184417725,0.2158607840538025,-0.7698265910148621,0.9999842643737793,0.4602198898792267,0.2529084086418152,-0.9056983590126038,0.9999912977218628,0.42401671409606934,0.25414904952049255,-0.9442103505134583,0.9999954700469971,0.5468570590019226,0.34723126888275146,-0.3735046982765198,0.999897837638855,0.1877707540988922,0.36600422859191895,-0.6098116636276245,0.9998925924301147,0.5954025983810425,0.5084651112556458,-0.12631337344646454,0.9789395332336426,0.1431615799665451,0.5196287631988525,-0.7500050067901611,0.9874845147132874,0.6515524387359619,0.6357656717300415,-0.38511189818382263,0.9795106053352356,0.2848498821258545,0.554553210735321,-1.1803183555603027,0.9674493074417114,0.6699482202529907,0.6785926818847656,-0.4738336503505707,0.9631363153457642,0.3382277190685272,0.5648009777069092,-1.2981164455413818,0.9497929215431213,0.6524087190628052,0.6774554252624512,-0.5694402456283569,0.9658473134040833,0.344949334859848,0.5387895703315735,-1.347561001777649,0.9507754445075989,0.6414550542831421,0.6683518290519714,-0.42757901549339294,0.9668335914611816,0.3281519412994385,0.533889889717102,-1.2052072286605835,0.940701425075531,0.4956375062465668,0.6291515231132507,0.09595362097024918,0.99765944480896,0.32354462146759033,0.6500373482704163,-0.09556610882282257,0.9986045956611633,0.48884257674217224,0.8296974897384644,0.41437169909477234,0.9645654559135437,0.34487831592559814,0.8605097532272339,0.13954444229602814,0.9886634945869446,0.48527321219444275,0.9590484499931335,1.106364130973816,0.925589382648468,0.3563642203807831,0.9891036152839661,0.7106969952583313,0.950721800327301,0.4614132344722748,0.9712516665458679,1.1555002927780151,0.8812949061393738,0.3578391969203949,0.9902541637420654,0.7532156109809875,0.7951720356941223,0.5530613660812378,1.0151749849319458,0.8773878216743469,0.8882413506507874,0.38951238989830017,1.0781043767929077,0.3772543668746948,0.8649789094924927
18935.80482598592,0.44959574937820435,0.23393642902374268,-0.9837979674339294,0.9999892711639404,0.4572942554950714,0.2095172107219696,-0.9275615811347961,0.9999768733978271,0.46686291694641113,0.2080625295639038,-0.9276372194290161,0.9999732971191406,0.47567373514175415,0.20684108138084412,-0.9276124835014343,0.9999680519104004,0.4218240976333618,0.21130111813545227,-0.9553932547569275,0.9999814033508301,0.4041556715965271,0.21106642484664917,-0.9554572701454163,0.9999802112579346,0.38594597578048706,0.2109341025352478,-0.9555230140686035,0.9999780654907227,0.471332311630249,0.21376743912696838,-0.5741723775863647,0.9999680519104004,0.338554710149765,0.21943402290344238,-0.7129595279693604,0.9999849796295166,0.46053871512413025,0.2560518682003021,-0.850269615650177,0.9999924898147583,0.4237203598022461,0.25798341631889343,-0.8890529274940491,0.9999958276748657,0.5447707176208496,0.34784138202667236,-0.3199279308319092,0.9999179840087891,0.18771113455295563,0.3657209277153015,-0.5585370659828186,0.9998908042907715,0.5921247005462646,0.5100835561752319,-0.0669068694114685,0.9794151186943054,0.14601317048072815,0.5174071788787842,-0.7069351077079773,0.9844743013381958,0.6503909826278687,0.6349353790283203,-0.3228761553764343,0.9812628626823425,0.2784031927585602,0.5558186769485474,-1.1571904420852661,0.9583346843719482,0.6702157258987427,0.6767489314079285,-0.4119625389575958,0.9674605131149292,0.32998064160346985,0.568527340888977,-1.2768981456756592,0.9408032298088074,0.6516885757446289,0.6757858395576477,-0.5076115727424622,0.9701389074325562,0.33834126591682434,0.5424670577049255,-1.3320393562316895,0.9427910447120667,0.6404937505722046,0.6667479276657104,-0.3651387393474579,0.970698356628418,0.32131344079971313,0.5358683466911316,-1.185339093208313,0.9324103593826294,0.4978940486907959,0.6265579462051392,0.09895823150873184,0.9976099729537964,0.3243705928325653,0.6490828990936279,-0.09855484962463379,0.9984140396118164,0.4890540838241577,0.8306055665016174,0.4026489555835724,0.9549803733825684,0.34553763270378113,0.8635575175285339,0.13039082288742065,0.9839081168174744,0.4854593276977539,0.9595861434936523,1.104380488395691,0.8963109254837036,0.3570450246334076,0.9895175695419312,0.6999202370643616,0.9267367720603943,0.4606513977050781,0.9720045328140259,1.156187891960144,0.8534235954284668,0.3559642434120178,1.0126209259033203,0.7433150410652161,0.7496100068092346,0.5529788732528687,1.0181751251220703,0.8875359892845154,0.8488515019416809,0.3994051218032837,1.0812945365905762,0.37062013149261475,0.8088223338127136
18952.47149265259,0.4538506865501404,0.23395997285842896,-0.9706507325172424,0.9999854564666748,0.45904600620269775,0.20974689722061157,-0.9135302305221558,0.9999701976776123,0.46759504079818726,0.20838484168052673,-0.9136122465133667,0.9999656677246094,0.47575563192367554,0.20730739831924438,-0.9136042594909668,0.9999587535858154,0.42466896772384644,0.21186691522598267,-0.9461705088615417,0.9999761581420898,0.40723586082458496,0.2118549644947052,-0.9462497234344482,0.9999749660491943,0.38782405853271484,0.21201738715171814,-0.9463406801223755,0.9999723434448242,0.46766507625579834,0.21453171968460083,-0.5578096508979797,0.9999595880508423,0.34003403782844543,0.22171390056610107,-0.7179704904556274,0.9999814033508301,0.4634827673435211,0.2556791603565216,-0.8358398675918579,0.9999898672103882,0.4281635284423828,0.25830551981925964,-0.8809037208557129,0.9999945163726807,0.5439255237579346,0.34726613759994507,-0.2997421622276306,0.9999043941497803,0.18617482483386993,0.3681707978248596,-0.5680800676345825,0.9998620748519897,0.5925470590591431,0.5076594352722168,-0.04000777006149292,0.9776521325111389,0.14748015999794006,0.5203522443771362,-0.7178387641906738,0.9849448800086975,0.6512162685394287,0.635619580745697,-0.28414660692214966,0.978762686252594,0.27746593952178955,0.5588909387588501,-1.150156021118164,0.9577974081039429,0.6684521436691284,0.6782975792884827,-0.36877715587615967,0.9625590443611145,0.33002012968063354,0.5695188045501709,-1.266008734703064,0.9383827447891235,0.6512866020202637,0.6769575476646423,-0.46155762672424316,0.9659120440483093,0.33634117245674133,0.5429317355155945,-1.3198707103729248,0.9405233860015869,0.6410451531410217,0.6680462956428528,-0.32520297169685364,0.9666131138801575,0.319707453250885,0.537477970123291,-1.1767990589141846,0.9287840127944946,0.4957142472267151,0.631243109703064,0.1009906679391861,0.9972851276397705,0.3234153389930725,0.6531758904457092,-0.10056494921445847,0.9980701804161072,0.4886045455932617,0.8308582305908203,0.3644302189350128,0.9480119347572327,0.343940794467926,0.8656455278396606,0.09526216238737106,0.9783128499984741,0.4873652160167694,0.959658145904541,1.0711973905563354,0.8793447017669678,0.3575761318206787,0.9936132431030273,0.6692212224006653,0.909809947013855,0.4639144837856293,0.9709543585777283,1.1228712797164917,0.837273895740509,0.3583340644836426,0.9933083057403564,0.7127910256385803,0.7105363607406616,0.553123950958252,1.020106315612793,0.8486315011978149,0.8286598324775696,0.3951992094516754,1.0859484672546387,0.3326199948787689,0.7826398015022278
18969.138159319256,0.45539945363998413,0.23058316111564636,-1.0339784622192383,0.9999852180480957,0.46091777086257935,0.20717701315879822,-0.977440357208252,0.9999676942825317,0.46953722834587097,0.20614632964134216,-0.9774896502494812,0.9999620914459229,0.4774377644062042,0.20512139797210693,-0.9774302244186401,0.9999552965164185,0.42696118354797363,0.20778346061706543,-1.0106010437011719,0.9999750852584839,0.41072994470596313,0.20698803663253784,-1.0107027292251587,0.9999728202819824,0.3915177881717682,0.20652645826339722,-1.0107992887496948,0.9999710321426392,0.46876564621925354,0.21172985434532166,-0.6195215582847595,0.9999496936798096,0.3435356616973877,0.21531617641448975,-0.7825695872306824,0.9999779462814331,0.4638349711894989,0.2534281313419342,-0.8983215689659119,0.9999884366989136,0.4294942617416382,0.25451698899269104,-0.9441822171211243,0.9999938011169434,0.5459166169166565,0.34672555327415466,-0.3621574640274048,0.9998897314071655,0.1860402226448059,0.366462767124176,-0.6226309537887573,0.9998698234558105,0.5897055268287659,0.5109282732009888,-0.11383360624313354,0.9782238602638245,0.14604173600673676,0.522620677947998,-0.7562727332115173,0.9872421026229858,0.6509124040603638,0.6339632868766785,-0.38103097677230835,0.9814130067825317,0.2857373058795929,0.5556021928787231,-1.1712466478347778,0.9682446122169495,0.6684608459472656,0.6779879331588745,-0.47281163930892944,0.9660528898239136,0.3405323922634125,0.5665192604064941,-1.2889971733093262,0.9512826204299927,0.6520590782165527,0.6771978735923767,-0.5693224668502808,0.9686629772186279,0.3456408381462097,0.5417638421058655,-1.3421647548675537,0.952525794506073,0.6411322355270386,0.6685660481452942,-0.42428457736968994,0.9692481160163879,0.3288886547088623,0.5359165072441101,-1.197087287902832,0.9424450397491455,0.49896329641342163,0.6327061057090759,0.10145676881074905,0.9969696402549744,0.3236619234085083,0.6540994644165039,-0.10111920535564423,0.9981022477149963,0.49024897813796997,0.8352395296096802,0.4136081039905548,0.9579401612281799,0.3453117907047272,0.8701514005661011,0.1260155439376831,0.9843587875366211,0.48736295104026794,0.9640936851501465,1.1352803707122803,0.9063345193862915,0.36307013034820557,0.9925848841667175,0.7180219888687134,0.9342214465141296,0.46516233682632446,0.9758946299552917,1.1877753734588623,0.8602807521820068,0.3638375997543335,1.0231422185897827,0.762438952922821,0.7466564774513245,0.5536853671073914,1.0232218503952026,0.9084827899932861,0.8728330135345459,0.4026155471801758,1.0940349102020264,0.37490323185920715,0.839539647102356
18985.804825985924,0.4512719213962555,0.22898000478744507,-1.0182609558105469,0.9999849796295166,0.4578721821308136,0.20586025714874268,-0.9618512392044067,0.999968409538269,0.4671380817890167,0.2051621675491333,-0.9619256854057312,0.9999629259109497,0.47587820887565613,0.20468109846115112,-0.9618912935256958,0.9999570846557617,0.4231172502040863,0.20587888360023499,-0.9914669394493103,0.9999743700027466,0.40587422251701355,0.2051491141319275,-0.9915685057640076,0.9999717473983765,0.3876517415046692,0.20482000708580017,-0.991685688495636,0.9999699592590332,0.4706503748893738,0.2126932442188263,-0.605726957321167,0.9999527931213379,0.34078484773635864,0.21437689661979675,-0.7530036568641663,0.9999765157699585,0.460869699716568,0.25281867384910583,-0.8837297558784485,0.9999890327453613,0.42458197474479675,0.2534288763999939,-0.9250099062919617,0.9999939203262329,0.5454354882240295,0.3469617962837219,-0.35870251059532166,0.9998974800109863,0.18760383129119873,0.3658284842967987,-0.5866978168487549,0.9998406171798706,0.5927774906158447,0.5120652318000793,-0.12215998023748398,0.9816812872886658,0.14709369838237762,0.5212560892105103,-0.7149530053138733,0.9840498566627502,0.6510204076766968,0.6346915364265442,-0.39299309253692627,0.9831710457801819,0.28633132576942444,0.5590086579322815,-1.1391087770462036,0.9584853053092957,0.6689584255218506,0.6786993145942688,-0.48893818259239197,0.9689690470695496,0.34061628580093384,0.5690969228744507,-1.255249261856079,0.938871443271637,0.6505306959152222,0.677327036857605,-0.5842572450637817,0.9715553522109985,0.34502723813056946,0.5444551706314087,-1.3109849691390991,0.9409632086753845,0.6394646167755127,0.6687984466552734,-0.43540623784065247,0.9720926284790039,0.32807520031929016,0.5390221476554871,-1.1658720970153809,0.9303683638572693,0.4972531199455261,0.6328731775283813,0.08867298811674118,0.9967249035835266,0.32260170578956604,0.6538295745849609,-0.08822480589151382,0.9978298544883728,0.48845380544662476,0.837745726108551,0.3266744017601013,0.9523119330406189,0.3439689874649048,0.8729749321937561,0.08611491322517395,0.9785593152046204,0.4871942698955536,0.9652312994003296,1.0460801124572754,0.8816998600959778,0.3612697124481201,0.9926684498786926,0.6626049876213074,0.9135154485702515,0.4658353626728058,0.9750613570213318,1.0981966257095337,0.8341848850250244,0.3621990978717804,1.0250585079193115,0.7053132057189941,0.6986575126647949,0.5501391291618347,1.023531436920166,0.8151751756668091,0.8326680064201355,0.39199012517929077,1.0947829484939575,0.3160640001296997,0.7915763258934021
19002.471492652592,0.45344674587249756,0.2331371307373047,-0.9953189492225647,0.9999854564666748,0.4582270085811615,0.20797574520111084,-0.9382927417755127,0.9999697208404541,0.46662625670433044,0.20631492137908936,-0.9383772015571594,0.9999641180038452,0.4745453894138336,0.20494839549064636,-0.938377857208252,0.9999586343765259,0.42476728558540344,0.21073007583618164,-0.9695431590080261,0.999976396560669,0.40842533111572266,0.2109679877758026,-0.9696342349052429,0.9999735355377197,0.389370858669281,0.21133458614349365,-0.9697190523147583,0.9999723434448242,0.4672335684299469,0.21217560768127441,-0.5816130042076111,0.9999560117721558,0.34163686633110046,0.22065222263336182,-0.7357766032218933,0.9999805688858032,0.4641180634498596,0.25407156348228455,-0.8603768348693848,0.9999895095825195,0.42945536971092224,0.2576691806316376,-0.9037144184112549,0.9999942779541016,0.5449711084365845,0.3471653461456299,-0.32948175072669983,0.9998950958251953,0.19050657749176025,0.36803656816482544,-0.5790364742279053,0.999879002571106,0.5899386405944824,0.5107229351997375,-0.0922224372625351,0.9744392037391663,0.14550241827964783,0.5165654420852661,-0.7176767587661743,0.9844473600387573,0.6477658748626709,0.6322791576385498,-0.35690581798553467,0.9763054847717285,0.2821773886680603,0.5563236474990845,-1.1357039213180542,0.9540600180625916,0.6673465967178345,0.6758131384849548,-0.4476073980331421,0.9588099122047424,0.3366789221763611,0.5689097046852112,-1.2541096210479736,0.9316802024841309,0.6500660181045532,0.6749780774116516,-0.5443856120109558,0.961955189704895,0.34316423535346985,0.5434846878051758,-1.3054677248001099,0.932934582233429,0.638798177242279,0.6664307117462158,-0.40025484561920166,0.962097704410553,0.3255769908428192,0.5376324653625488,-1.1617763042449951,0.9197195172309875,0.49591967463493347,0.6330286264419556,0.09679476916790009,0.9971593618392944,0.32313773036003113,0.653845489025116,-0.09644699096679688,0.9982584118843079,0.4871060848236084,0.8362003564834595,0.42192840576171875,0.9582592248916626,0.3397316634654999,0.8688543438911438,0.13433995842933655,0.9853251576423645,0.48687171936035156,0.9684519171714783,1.1001020669937134,0.9131781458854675,0.3586505353450775,0.9983314871788025,0.7031203508377075,0.9384768605232239,0.46254244446754456,0.9812988042831421,1.1482799053192139,0.8628895878791809,0.3581339120864868,1.0245401859283447,0.7447102069854736,0.7462576627731323,0.5513583421707153,1.0250072479248047,0.8636329174041748,0.8812987804412842,0.3900560140609741,1.0927153825759888,0.3561108708381653,0.8460708260536194
19019.13815931926,0.45522528886795044,0.2347317337989807,-0.9743620157241821,0.9999866485595703,0.46044549345970154,0.21008950471878052,-0.9176380038261414,0.9999725818634033,0.4690484404563904,0.20881277322769165,-0.9177203178405762,0.9999679327011108,0.47713735699653625,0.20777690410614014,-0.9176968932151794,0.9999622106552124,0.42636731266975403,0.21201542019844055,-0.9487464427947998,0.9999784231185913,0.40926969051361084,0.21205392479896545,-0.9488101005554199,0.999976634979248,0.3907054364681244,0.21240904927253723,-0.9488739371299744,0.9999746084213257,0.4690886437892914,0.2151210904121399,-0.5643998384475708,0.9999607801437378,0.34321439266204834,0.22168275713920593,-0.718285083770752,0.9999834299087524,0.46443498134613037,0.256143718957901,-0.8409015536308289,0.9999905824661255,0.4293140172958374,0.2584148049354553,-0.8841166496276855,0.9999949932098389,0.5429307818412781,0.34820306301116943,-0.30870604515075684,0.9999098777770996,0.18962357938289642,0.36668363213539124,-0.5698909759521484,0.9998903274536133,0.5913512706756592,0.5088325142860413,-0.05820828303694725,0.9763033390045166,0.14385263621807098,0.5183361768722534,-0.7139103412628174,0.985426664352417,0.648751974105835,0.6350973844528198,-0.3123282790184021,0.9790549278259277,0.2735978066921234,0.5570276379585266,-1.1376200914382935,0.9564567804336548,0.6682590246200562,0.6785482168197632,-0.39923524856567383,0.9634080529212952,0.3277726173400879,0.5689221620559692,-1.2560006380081177,0.9358400106430054,0.6516997814178467,0.6776717901229858,-0.4948306381702423,0.9663189649581909,0.3347782492637634,0.5434982776641846,-1.308263897895813,0.937720000743866,0.6410154104232788,0.6681962609291077,-0.3547183573246002,0.9663422107696533,0.3183251917362213,0.5380415320396423,-1.1642704010009766,0.9258924722671509,0.49382472038269043,0.6294776797294617,0.10533927381038666,0.9978183507919312,0.32508063316345215,0.650210440158844,-0.10500143468379974,0.9985654950141907,0.48870429396629333,0.8324156999588013,0.48063990473747253,0.9573773145675659,0.3425235152244568,0.8647494316101074,0.1686459183692932,0.9855515956878662,0.48426225781440735,0.9613392949104309,1.1575740575790405,0.9088358879089355,0.35495710372924805,0.9886566400527954,0.7412370443344116,0.9337899684906006,0.4593639373779297,0.9730818271636963,1.2068376541137695,0.8634981513023376,0.35405775904655457,0.9892222285270691,0.7853633761405945,0.758991539478302,0.5528591871261597,1.0151108503341675,0.9353957772254944,0.8696494102478027,0.3917746841907501,1.0789885520935059,0.41430991888046265,0.8300468921661377
19035.804825985928,0.4539560377597809,0.2355767786502838,-0.9810126423835754,0.9999833106994629,0.4595099985599518,0.21056050062179565,-0.9246494770050049,0.9999666213989258,0.46818453073501587,0.20919007062911987,-0.9247502684593201,0.9999618530273438,0.47629475593566895,0.20806002616882324,-0.9247635006904602,0.9999561309814453,0.42488229274749756,0.21261835098266602,-0.9552499651908875,0.9999724626541138,0.40749213099479675,0.21267101168632507,-0.9553067088127136,0.9999697208404541,0.3891375958919525,0.21304601430892944,-0.9553869366645813,0.9999662637710571,0.4685320556163788,0.21508613228797913,-0.5662639737129211,0.9999550580978394,0.34165167808532715,0.22243604063987732,-0.7179986238479614,0.9999779462814331,0.4631068706512451,0.2573443055152893,-0.8451094627380371,0.9999885559082031,0.4278889298439026,0.2598753571510315,-0.8877447843551636,0.9999933242797852,0.5428171753883362,0.34798744320869446,-0.3056151866912842,0.9999014139175415,0.1888887733221054,0.36573460698127747,-0.5639567971229553,0.9998492002487183,0.5925357937812805,0.507520854473114,-0.05324449762701988,0.9756161570549011,0.15032581984996796,0.5148555040359497,-0.6947227120399475,0.9777956008911133,0.6518038511276245,0.6367632746696472,-0.3035881817340851,0.9756461977958679,0.2734948992729187,0.5607216954231262,-1.1115230321884155,0.930195689201355,0.6693049073219299,0.6800261735916138,-0.3910703957080841,0.9582606554031372,0.32666459679603577,0.573013424873352,-1.2281808853149414,0.9059070944786072,0.6526182293891907,0.6790601015090942,-0.48896855115890503,0.9618352651596069,0.33202436566352844,0.5465912222862244,-1.2888174057006836,0.9097185134887695,0.6424887180328369,0.6694532632827759,-0.3470498025417328,0.962531328201294,0.3147107660770416,0.540813684463501,-1.14201021194458,0.8967598080635071,0.49621400237083435,0.6289620995521545,0.10528331249952316,0.9971856474876404,0.32417353987693787,0.6511210799217224,-0.10484326630830765,0.9980809688568115,0.48951414227485657,0.8355444669723511,0.4339386820793152,0.9584791660308838,0.34367987513542175,0.8670008778572083,0.12564218044281006,0.9851345419883728,0.48703455924987793,0.9653282165527344,1.0948431491851807,0.907931387424469,0.36076831817626953,0.992070198059082,0.675764799118042,0.9321834444999695,0.4648098647594452,0.9764997959136963,1.141422986984253,0.8597040772438049,0.3636793792247772,0.991889238357544,0.7165114879608154,0.7399230003356934,0.555214524269104,1.0188376903533936,0.8599740862846375,0.8595984578132629,0.39069920778274536,1.0874807834625244,0.33341872692108154,0.8185737729072571
19052.471492652596,0.45282289385795593,0.23480159044265747,-0.970261812210083,0.9999833106994629,0.4586902856826782,0.2099665105342865,-0.9140159487724304,0.9999667406082153,0.46741580963134766,0.20858299732208252,-0.9141179323196411,0.999962329864502,0.4754910171031952,0.2074861228466034,-0.9141418933868408,0.9999561309814453,0.4245118498802185,0.21198219060897827,-0.94601970911026,0.9999728202819824,0.4071347415447235,0.21203181147575378,-0.9460773468017578,0.9999706745147705,0.3885168433189392,0.2122458815574646,-0.9461495280265808,0.9999675750732422,0.4678596556186676,0.21436214447021484,-0.5593221187591553,0.9999544620513916,0.3403404653072357,0.22175896167755127,-0.716416597366333,0.9999778270721436,0.46225598454475403,0.2569493353366852,-0.8354178667068481,0.9999890327453613,0.4270123541355133,0.2596185803413391,-0.8794954419136047,0.9999938011169434,0.5458088517189026,0.3472413718700409,-0.30448687076568604,0.9999105930328369,0.18531160056591034,0.36736226081848145,-0.5621386766433716,0.9998531341552734,0.5906859636306763,0.5093175768852234,-0.06396441161632538,0.9781576991081238,0.14789989590644836,0.5192086696624756,-0.7019726634025574,0.9827250838279724,0.6513112783432007,0.6385021209716797,-0.3344627320766449,0.9794993996620178,0.2766224145889282,0.5575375556945801,-1.123908519744873,0.9518616199493408,0.6684211492538452,0.6807196736335754,-0.4269607365131378,0.9638838768005371,0.32826492190361023,0.5670448541641235,-1.2415934801101685,0.9306294322013855,0.6512786149978638,0.6794090270996094,-0.5211631655693054,0.9671230912208557,0.33277758955955505,0.5400707721710205,-1.2935134172439575,0.9330255389213562,0.6415331363677979,0.6701368689537048,-0.3766625225543976,0.9670285582542419,0.3172938823699951,0.5347689986228943,-1.1498976945877075,0.9198243618011475,0.4950295388698578,0.6312882304191589,0.10895222425460815,0.9969655871391296,0.32430851459503174,0.6516408920288086,-0.10860424488782883,0.9978244304656982,0.488189697265625,0.836786150932312,0.42733949422836304,0.9380651116371155,0.3459694981575012,0.8657853603363037,0.1223304495215416,0.9773048162460327,0.48547402024269104,0.9622383117675781,1.1219754219055176,0.8629127740859985,0.35921603441238403,0.9915163516998291,0.6951349377632141,0.8984211683273315,0.4621123671531677,0.9746490716934204,1.1731683015823364,0.8130416870117188,0.3480141758918762,1.0171096324920654,0.7394003868103027,0.6906089186668396,0.5558252930641174,1.0161045789718628,0.9009492993354797,0.8090317845344543,0.40085405111312866,1.0844148397445679,0.3653567433357239,0.7610751390457153
19069.138159319264,0.45219525694847107,0.23458117246627808,-1.014231562614441,0.9999853372573853,0.4580468237400055,0.20960789918899536,-0.958636462688446,0.9999688863754272,0.4667060375213623,0.20804041624069214,-0.9587209820747375,0.9999635219573975,0.47464171051979065,0.20675590634346008,-0.958728015422821,0.9999572038650513,0.42399686574935913,0.21188148856163025,-0.9893010854721069,0.999975323677063,0.406781405210495,0.2118455171585083,-0.9893803596496582,0.9999728202819824,0.38803422451019287,0.21191206574440002,-0.989447832107544,0.9999710321426392,0.4679628312587738,0.21305805444717407,-0.6000161170959473,0.9999547004699707,0.3405168056488037,0.22066110372543335,-0.7505885362625122,0.99997878074646,0.4625715911388397,0.2561427056789398,-0.877337634563446,0.9999891519546509,0.4276637136936188,0.25878196954727173,-0.9196677803993225,0.9999940395355225,0.5463542342185974,0.3464778959751129,-0.33939820528030396,0.9999048709869385,0.18690332770347595,0.3671872019767761,-0.5819026231765747,0.9998650550842285,0.5909123420715332,0.5077789425849915,-0.09203602373600006,0.9796500205993652,0.145361989736557,0.5209674835205078,-0.7170872688293457,0.9856107234954834,0.6520965695381165,0.6370924711227417,-0.35974207520484924,0.9804736375808716,0.2770240902900696,0.5563632249832153,-1.1457794904708862,0.9618714451789856,0.6689713001251221,0.6797486543655396,-0.4507127106189728,0.964576005935669,0.33019232749938965,0.5683075189590454,-1.2645246982574463,0.9419651031494141,0.6520115733146667,0.6782036423683167,-0.5474684238433838,0.9674949645996094,0.33855798840522766,0.542807936668396,-1.314988136291504,0.9434484839439392,0.6422430276870728,0.6688970923423767,-0.4028628170490265,0.9676317572593689,0.320618599653244,0.5364782214164734,-1.171182632446289,0.9311667084693909,0.49547892808914185,0.6316179037094116,0.09316015988588333,0.9973095655441284,0.32344260811805725,0.6525895595550537,-0.09279265254735947,0.9982094764709473,0.48914095759391785,0.8365582227706909,0.4003760516643524,0.9588029384613037,0.3439390957355499,0.8692583441734314,0.13196498155593872,0.9835700392723083,0.48695966601371765,0.9661880135536194,1.1116381883621216,0.9031842350959778,0.35988014936447144,0.9940844774246216,0.7208622097969055,0.9298508763313293,0.4642919600009918,0.9761021137237549,1.1634572744369507,0.8487483859062195,0.36170098185539246,0.9944003820419312,0.7655550241470337,0.7348188161849976,0.5568696856498718,1.0219115018844604,0.8799155354499817,0.8620312809944153,0.39021778106689453,1.085350751876831,0.3818083703517914,0.826434850692749
19085.80482598593,0.45254552364349365,0.2351108193397522,-0.9874998331069946,0.9999843835830688,0.45790380239486694,0.20977097749710083,-0.931830883026123,0.9999680519104004,0.4664788544178009,0.20810994505882263,-0.9319287538528442,0.9999626874923706,0.47446221113204956,0.20672643184661865,-0.931933581829071,0.999955415725708,0.4236823618412018,0.21248963475227356,-0.9618035554885864,0.9999747276306152,0.40616440773010254,0.21269193291664124,-0.9619024991989136,0.999972939491272,0.38746699690818787,0.21298903226852417,-0.9620212912559509,0.9999713897705078,0.46722933650016785,0.21374660730361938,-0.5766138434410095,0.9999556541442871,0.33953848481178284,0.2225360870361328,-0.723498523235321,0.9999809265136719,0.46300867199897766,0.25702768564224243,-0.852189838886261,0.99998939037323,0.4280390441417694,0.26033106446266174,-0.8934141397476196,0.9999945163726807,0.5449956059455872,0.3475322723388672,-0.31043827533721924,0.9999005794525146,0.18728995323181152,0.3678531050682068,-0.5706696510314941,0.9998854398727417,0.5905753374099731,0.5099194049835205,-0.06046618893742561,0.9746719598770142,0.14421558380126953,0.5216597318649292,-0.7249801158905029,0.9867448210716248,0.6489279866218567,0.6348825097084045,-0.3208969831466675,0.9763566255569458,0.28516265749931335,0.5572429895401001,-1.1709308624267578,0.9655287861824036,0.668138861656189,0.6782154440879822,-0.40953347086906433,0.9596980214118958,0.33744266629219055,0.5666470527648926,-1.289309024810791,0.9477859735488892,0.6513829231262207,0.6768651604652405,-0.502892792224884,0.9629273414611816,0.3423548936843872,0.5414588451385498,-1.3399159908294678,0.9489943385124207,0.6409419775009155,0.668023943901062,-0.36245349049568176,0.9636529684066772,0.3264644145965576,0.5363678932189941,-1.1960740089416504,0.937711775302887,0.49403610825538635,0.6324645280838013,0.10313568264245987,0.9971237778663635,0.3234477937221527,0.6531350612640381,-0.10275202244520187,0.9980948567390442,0.48808348178863525,0.8360100984573364,0.3643156886100769,0.9430269002914429,0.34347808361053467,0.8701910972595215,0.09134475886821747,0.9784204363822937,0.48563817143440247,0.9627693295478821,1.060763955116272,0.8755720257759094,0.35864120721817017,0.9944271445274353,0.6570020914077759,0.9102581739425659,0.4607699513435364,0.9736735224723816,1.1112573146820068,0.8311411738395691,0.3508051335811615,1.0232375860214233,0.6995644569396973,0.7094376087188721,0.5567219853401184,1.0179848670959473,0.835067868232727,0.8280563354492188,0.3983043432235718,1.0908310413360596,0.31662338972091675,0.787168562412262
19102.4714926526,0.4530858099460602,0.23399531841278076,-1.0184917449951172,0.999984622001648,0.45893117785453796,0.20877960324287415,-0.9634471535682678,0.9999682903289795,0.46767139434814453,0.20719510316848755,-0.9635183215141296,0.999962329864502,0.4758335053920746,0.20593014359474182,-0.9635319709777832,0.9999574422836304,0.42451968789100647,0.2115098237991333,-0.992759108543396,0.9999740123748779,0.40720078349113464,0.21183359622955322,-0.9928290843963623,0.9999704360961914,0.38856926560401917,0.21230295300483704,-0.9928858876228333,0.9999685287475586,0.4693949818611145,0.21338587999343872,-0.6076048612594604,0.9999521970748901,0.34156978130340576,0.2220524549484253,-0.7543401718139648,0.9999771118164062,0.4641527831554413,0.2560461759567261,-0.8831101655960083,0.9999884366989136,0.4289494454860687,0.25897714495658875,-0.9243362545967102,0.9999933242797852,0.5449119210243225,0.34755948185920715,-0.3493203818798065,0.9999020099639893,0.19413875043392181,0.3649310767650604,-0.5924797654151917,0.9998586177825928,0.5923721790313721,0.508257269859314,-0.10622946918010712,0.9756882190704346,0.14876489341259003,0.5139007568359375,-0.7201008796691895,0.98049396276474,0.6473161578178406,0.6321046948432922,-0.35449957847595215,0.9770591855049133,0.27878350019454956,0.5584238767623901,-1.1206697225570679,0.9386376142501831,0.6655875444412231,0.6764864921569824,-0.4413940906524658,0.9594990015029907,0.33167076110839844,0.5714980363845825,-1.2367452383041382,0.912105143070221,0.6491233706474304,0.675767183303833,-0.5391835570335388,0.9625336527824402,0.3397359549999237,0.5453553199768066,-1.288728952407837,0.9140976071357727,0.6383700370788574,0.6669951677322388,-0.397495299577713,0.962670624256134,0.3221561014652252,0.5392969846725464,-1.1471481323242188,0.9001155495643616,0.4963436722755432,0.6303552389144897,0.09899928420782089,0.9975073933601379,0.32347527146339417,0.651316225528717,-0.09868624806404114,0.998275637626648,0.48628830909729004,0.8358303904533386,0.43418920040130615,0.9581737518310547,0.3415358066558838,0.8627790212631226,0.1389864981174469,0.9864614605903625,0.48570942878723145,0.9675854444503784,1.0954387187957764,0.9169845581054688,0.36002081632614136,0.9930073022842407,0.7019643783569336,0.9436193704605103,0.46049338579177856,0.9805978536605835,1.141780138015747,0.8670558929443359,0.36031240224838257,0.9945268630981445,0.743359386920929,0.758683443069458,0.5526971817016602,1.0229225158691406,0.8579785227775574,0.8827953338623047,0.3865981101989746,1.0853288173675537,0.36220401525497437,0.8550515174865723
19119.138159319267,0.4517093598842621,0.2343374490737915,-0.9984148144721985,0.9999802112579346,0.4590149521827698,0.2104206383228302,-0.9460828900337219,0.9999574422836304,0.46819254755973816,0.20917758345603943,-0.9461668729782104,0.9999499320983887,0.4764021933078766,0.20797893404960632,-0.9462005496025085,0.9999425411224365,0.42492222785949707,0.21154546737670898,-0.9765816926956177,0.9999668598175049,0.4081491529941559,0.21112722158432007,-0.9767387509346008,0.9999641180038452,0.3899381458759308,0.21079504489898682,-0.9768651723861694,0.999962568283081,0.46928903460502625,0.21427011489868164,-0.5974244475364685,0.9999370574951172,0.3428463935852051,0.21894091367721558,-0.7499076128005981,0.9999722242355347,0.461189329624176,0.2566847503185272,-0.8642818927764893,0.999985933303833,0.4265044927597046,0.2582549750804901,-0.9071486592292786,0.9999924898147583,0.5429888963699341,0.3468357026576996,-0.3456032872200012,0.9998853206634521,0.18564362823963165,0.3660180866718292,-0.5793662071228027,0.9998655319213867,0.5881354808807373,0.5086783170700073,-0.10616735368967056,0.9799495339393616,0.1457211822271347,0.5200124979019165,-0.6984660625457764,0.9840598106384277,0.6478627324104309,0.6357450485229492,-0.36913934350013733,0.980198323726654,0.28317832946777344,0.5562841892242432,-1.1066190004348755,0.9556925892829895,0.6653280258178711,0.6783563494682312,-0.46047160029411316,0.964409589767456,0.3355880677700043,0.5668027997016907,-1.2199691534042358,0.9356985092163086,0.6486614942550659,0.6774963140487671,-0.5556319952011108,0.9673829674720764,0.34183719754219055,0.5413116216659546,-1.2734875679016113,0.9378505349159241,0.6377288103103638,0.6689407825469971,-0.41085758805274963,0.9677503108978271,0.3254362940788269,0.5362585783004761,-1.1320948600769043,0.9256497025489807,0.49678096175193787,0.6312491297721863,0.0899801105260849,0.9958401918411255,0.3216117024421692,0.6488837599754333,-0.089719258248806,0.997410237789154,0.48344460129737854,0.8392439484596252,0.36023709177970886,0.9367461800575256,0.34026038646698,0.8670271039009094,0.08887235820293427,0.973526120185852,0.48489972949028015,0.9653888940811157,1.02598237991333,0.8585304021835327,0.359947144985199,0.9963244199752808,0.6216854453086853,0.9003736972808838,0.45912671089172363,0.9780669212341309,1.0743762254714966,0.8064089417457581,0.35219210386276245,1.032994031906128,0.6600398421287537,0.6639986038208008,0.5478484034538269,1.0230534076690674,0.8005204200744629,0.8169116973876953,0.39073115587234497,1.1012928485870361,0.2714758813381195,0.7721201181411743
19135.804825985935,0.4506702423095703,0.23440012335777283,-1.0568019151687622,0.9999876022338867,0.4577329158782959,0.20961180329322815,-1.0036033391952515,0.9999727010726929,0.4670603275299072,0.2078855037689209,-1.0036553144454956,0.9999673366546631,0.4753299951553345,0.20632460713386536,-1.0036486387252808,0.9999622106552124,0.4226568043231964,0.21193605661392212,-1.0315607786178589,0.9999783039093018,0.4045628011226654,0.21189135313034058,-1.031661868095398,0.9999759197235107,0.3861449062824249,0.2118765413761139,-1.03172767162323,0.9999746084213257,0.46970853209495544,0.21256598830223083,-0.6495977640151978,0.9999576807022095,0.3389718234539032,0.22036948800086975,-0.7899871468544006,0.9999810457229614,0.46153807640075684,0.25609639286994934,-0.9212925434112549,0.9999903440475464,0.4256535470485687,0.2586584985256195,-0.9606677889823914,0.9999947547912598,0.5439586639404297,0.3465011417865753,-0.3862456977367401,0.9999085664749146,0.18697386980056763,0.3662847578525543,-0.616871178150177,0.9998892545700073,0.5884996056556702,0.5093813538551331,-0.14075656235218048,0.9795616865158081,0.14421100914478302,0.5187488198280334,-0.742125928401947,0.986396312713623,0.6451452970504761,0.6310898065567017,-0.39879468083381653,0.9817860722541809,0.28339534997940063,0.5557116270065308,-1.156005859375,0.9620751142501831,0.6656662821769714,0.6745181679725647,-0.4887046813964844,0.9667772054672241,0.3366452157497406,0.5660666227340698,-1.274054765701294,0.9419424533843994,0.6481081247329712,0.6739202737808228,-0.5866111516952515,0.969151496887207,0.34425485134124756,0.5410634279251099,-1.3238199949264526,0.9429408311843872,0.6365991830825806,0.6657740473747253,-0.4416847825050354,0.9691690802574158,0.3279365301132202,0.5360671877861023,-1.180963158607483,0.9316367506980896,0.4954456388950348,0.6295642852783203,0.09361525624990463,0.997220516204834,0.3222218453884125,0.6492279767990112,-0.0933331549167633,0.998228132724762,0.48735082149505615,0.8343945741653442,0.41768988966941833,0.9573850631713867,0.34080007672309875,0.8641265630722046,0.1367625743150711,0.9862664937973022,0.48539504408836365,0.9682522416114807,1.0846267938613892,0.9123939871788025,0.35912296175956726,0.9960474967956543,0.6936822533607483,0.9424687623977661,0.46002843976020813,0.9817076325416565,1.1317272186279297,0.8613372445106506,0.35893547534942627,0.9980577230453491,0.7342666983604431,0.7587354779243469,0.5566580295562744,1.0212041139602661,0.850047767162323,0.8792409896850586,0.3899834156036377,1.0897717475891113,0.35034266114234924,0.8520262837409973
19152.471492652603,0.45245617628097534,0.2343353033065796,-1.0245366096496582,0.9999904632568359,0.45845016837120056,0.20926108956336975,-0.9675102233886719,0.9999798536300659,0.4672923982143402,0.2075747847557068,-0.9675719738006592,0.9999765157699585,0.4753277003765106,0.2061648964881897,-0.9675517082214355,0.9999725818634033,0.4239373505115509,0.21184194087982178,-0.9957743287086487,0.9999836683273315,0.40621963143348694,0.21196314692497253,-0.9958446621894836,0.9999821186065674,0.3875320255756378,0.21220549941062927,-0.9959045052528381,0.9999805688858032,0.46905115246772766,0.21276777982711792,-0.6045066118240356,0.9999700784683228,0.33987873792648315,0.22148895263671875,-0.746406078338623,0.9999866485595703,0.4628792703151703,0.25613710284233093,-0.8870657086372375,0.9999926090240479,0.42805665731430054,0.25891485810279846,-0.9268831014633179,0.9999959468841553,0.5449683666229248,0.3464823365211487,-0.3343319892883301,0.9999239444732666,0.1935437023639679,0.3666326105594635,-0.590314507484436,0.9999032020568848,0.5883106589317322,0.5087909698486328,-0.08505649864673615,0.9770789742469788,0.14592602849006653,0.5162937641143799,-0.7381560802459717,0.9853073358535767,0.6494947671890259,0.6339136958122253,-0.3431675434112549,0.9807892441749573,0.28385716676712036,0.5578787922859192,-1.1738662719726562,0.9551883339881897,0.6674502491950989,0.6782578229904175,-0.43168383836746216,0.9662252068519592,0.3362060785293579,0.5693674087524414,-1.2956441640853882,0.9332403540611267,0.6507773995399475,0.6771981716156006,-0.5303176641464233,0.96869957447052,0.34328529238700867,0.5447520613670349,-1.3462375402450562,0.934513509273529,0.640343427658081,0.668445885181427,-0.38667014241218567,0.9684188961982727,0.3269559144973755,0.5393340587615967,-1.2000900506973267,0.9220499992370605,0.49704626202583313,0.631402313709259,0.10737568140029907,0.9977073669433594,0.3253631293773651,0.6526714563369751,-0.10705795884132385,0.9984984397888184,0.48852288722991943,0.8337746858596802,0.4607491195201874,0.958210825920105,0.3427535891532898,0.8633133172988892,0.1430538445711136,0.987646222114563,0.48560333251953125,0.9649244546890259,1.1326053142547607,0.9170677065849304,0.36157914996147156,0.9944237470626831,0.705122709274292,0.9442591071128845,0.4588675796985626,0.9773932695388794,1.1803627014160156,0.8712444305419922,0.3617774546146393,0.9958558082580566,0.7468692064285278,0.7666253447532654,0.5569751262664795,1.0196971893310547,0.8993747234344482,0.8861230611801147,0.4015932083129883,1.0888365507125854,0.3611592650413513,0.8546584844589233
19169.13815931927,0.4515218734741211,0.23597493767738342,-1.0355582237243652,0.9999827146530151,0.4576169550418854,0.21166837215423584,-0.9812349081039429,0.9999639987945557,0.4665239155292511,0.21020537614822388,-0.9813193082809448,0.9999575614929199,0.47446608543395996,0.20878684520721436,-0.9813472628593445,0.999950647354126,0.42406660318374634,0.21341365575790405,-1.0113506317138672,0.9999713897705078,0.4058498740196228,0.21314150094985962,-1.0114680528640747,0.9999688863754272,0.3875578045845032,0.21291878819465637,-1.011583685874939,0.9999675750732422,0.4675118923187256,0.2151208519935608,-0.6215012669563293,0.9999473094940186,0.3404349684715271,0.22146958112716675,-0.7703978419303894,0.9999768733978271,0.46110591292381287,0.2583475410938263,-0.8974952697753906,0.9999879598617554,0.4265981912612915,0.26058071851730347,-0.9394134879112244,0.9999936819076538,0.5406965613365173,0.34649568796157837,-0.3501754403114319,0.9998865127563477,0.18680110573768616,0.36682969331741333,-0.598771870136261,0.9998700618743896,0.5883500576019287,0.5113787055015564,-0.10277456045150757,0.9748423099517822,0.14691950380802155,0.5197130441665649,-0.7224700450897217,0.9841289520263672,0.6458703279495239,0.6363949179649353,-0.3670560419559479,0.9723600149154663,0.28272515535354614,0.5569100379943848,-1.1405924558639526,0.9551113247871399,0.664853572845459,0.6766502857208252,-0.45845553278923035,0.9520218372344971,0.33216795325279236,0.5659316778182983,-1.2568562030792236,0.9334967136383057,0.6476554870605469,0.6759235262870789,-0.5536831617355347,0.9558702111244202,0.3357345461845398,0.5400716066360474,-1.3098268508911133,0.9352662563323975,0.6359384059906006,0.6678473353385925,-0.40955644845962524,0.9570649266242981,0.3210127651691437,0.5356708765029907,-1.1662015914916992,0.9221276640892029,0.49576911330223083,0.6316892504692078,0.10098618268966675,0.9963628649711609,0.3233470916748047,0.6514952778816223,-0.10063416510820389,0.9976192116737366,0.48682859539985657,0.8356419801712036,0.35029760003089905,0.9390610456466675,0.3420369327068329,0.8677590489387512,0.07647642493247986,0.9773659706115723,0.4855089783668518,0.9644465446472168,1.0457919836044312,0.8658671379089355,0.3585682213306427,0.9952108860015869,0.6391323208808899,0.9076406359672546,0.4596554636955261,0.975006639957428,1.0959258079528809,0.8138088583946228,0.35132336616516113,1.0256478786468506,0.6806198358535767,0.6813621520996094,0.5531508326530457,1.0194960832595825,0.8125197291374207,0.8212871551513672,0.39931225776672363,1.0944316387176514,0.2879926562309265,0.7838488817214966
19185.80482598594,0.4539334177970886,0.23585963249206543,-1.0023170709609985,0.9999891519546509,0.4599679708480835,0.2110348343849182,-0.94595867395401,0.9999779462814331,0.46867650747299194,0.2094346582889557,-0.9460269808769226,0.999974250793457,0.4765729308128357,0.2080295979976654,-0.9460371732711792,0.9999706745147705,0.42574015259742737,0.21337249875068665,-0.9746566414833069,0.9999814033508301,0.4081573486328125,0.2133823037147522,-0.9747119545936584,0.9999793767929077,0.3892638385295868,0.21349534392356873,-0.9747503995895386,0.999977707862854,0.4693359434604645,0.21434548497200012,-0.5902305841445923,0.9999678134918213,0.34139660000801086,0.22261208295822144,-0.7343999743461609,0.9999840259552002,0.4641152024269104,0.2576412558555603,-0.8677313923835754,0.9999918937683105,0.42959126830101013,0.2601170837879181,-0.9081803560256958,0.9999953508377075,0.5438988208770752,0.3470804691314697,-0.3338841497898102,0.9999179840087891,0.19520360231399536,0.3650133013725281,-0.5817449688911438,0.9998775720596313,0.5908268690109253,0.508759081363678,-0.09224671870470047,0.974252462387085,0.14729152619838715,0.5143662095069885,-0.7190312743186951,0.9807441830635071,0.6498053073883057,0.6345558166503906,-0.33678925037384033,0.9763594269752502,0.2817409932613373,0.558079719543457,-1.1247730255126953,0.9365787506103516,0.667617917060852,0.6780966520309448,-0.42284512519836426,0.9592581391334534,0.33484941720962524,0.5704094171524048,-1.2413394451141357,0.9099414944648743,0.6512093544006348,0.6770104169845581,-0.5186902284622192,0.9622648358345032,0.3414761424064636,0.5444093942642212,-1.2901806831359863,0.9116829037666321,0.640080451965332,0.6678431034088135,-0.3789278566837311,0.9622149467468262,0.3246036469936371,0.5385636687278748,-1.1501421928405762,0.8972164988517761,0.49802258610725403,0.6301846504211426,0.10629883408546448,0.9977485537528992,0.32558682560920715,0.6514718532562256,-0.10599462687969208,0.9983823299407959,0.4892442226409912,0.8331218361854553,0.440361887216568,0.9522373080253601,0.3425271213054657,0.8618211150169373,0.13560748100280762,0.9859937429428101,0.48500874638557434,0.960856556892395,1.1080201864242554,0.909224808216095,0.35737544298171997,0.989517867565155,0.6936466097831726,0.9405338168144226,0.45838823914527893,0.974319338798523,1.1562954187393188,0.8633105158805847,0.3456335663795471,1.0147716999053955,0.7355623245239258,0.7566607594490051,0.5585953593254089,1.0185542106628418,0.8852458596229553,0.8767996430397034,0.3969537615776062,1.0837762355804443,0.3622940480709076,0.8462163805961609
19202.471492652607,0.45236167311668396,0.2368699610233307,-1.0170278549194336,0.9999916553497314,0.45919111371040344,0.21216097474098206,-0.9596638083457947,0.9999831914901733,0.4680913984775543,0.21065467596054077,-0.9597309231758118,0.999980092048645,0.47601449489593506,0.2092825472354889,-0.9596861600875854,0.9999761581420898,0.4248371720314026,0.21421238780021667,-0.9885268807411194,0.9999865293502808,0.407050222158432,0.21421459317207336,-0.9886012673377991,0.9999854564666748,0.38866546750068665,0.2142845094203949,-0.988664448261261,0.9999840259552002,0.4693596065044403,0.21543225646018982,-0.5953385829925537,0.999975323677063,0.34071290493011475,0.22338032722473145,-0.7396313548088074,0.9999895095825195,0.46253594756126404,0.258859246969223,-0.879290759563446,0.9999936819076538,0.4276610016822815,0.2609621584415436,-0.9197397828102112,0.9999966621398926,0.54542076587677,0.34788191318511963,-0.32411032915115356,0.9999287128448486,0.19051270186901093,0.36602240800857544,-0.5840259790420532,0.9999079704284668,0.5911805033683777,0.5099591016769409,-0.0657171979546547,0.9783046245574951,0.14613449573516846,0.5172432661056519,-0.7437729835510254,0.9862704873085022,0.6525280475616455,0.6378509998321533,-0.3236808180809021,0.9810876250267029,0.2780724763870239,0.5579333305358887,-1.2022807598114014,0.9595927000045776,0.6691792607307434,0.6809529066085815,-0.40992626547813416,0.9665002822875977,0.32922375202178955,0.5697628855705261,-1.3248014450073242,0.9399343729019165,0.6524860858917236,0.6793277859687805,-0.5079632997512817,0.969176709651947,0.3378634750843048,0.5442211627960205,-1.3779385089874268,0.9419346451759338,0.6422758102416992,0.6698837876319885,-0.36683419346809387,0.9693073630332947,0.32109126448631287,0.5387617349624634,-1.22990083694458,0.9310198426246643,0.49684804677963257,0.6307414174079895,0.1043822169303894,0.9981378316879272,0.3257383406162262,0.654360294342041,-0.10401231795549393,0.9987444877624512,0.4904435873031616,0.8324710726737976,0.45184171199798584,0.9605835676193237,0.3448771834373474,0.8660646080970764,0.15089260041713715,0.9863784313201904,0.4870005249977112,0.9629360437393188,1.140491247177124,0.9164931774139404,0.3579278588294983,0.9908738732337952,0.7260233759880066,0.9405638575553894,0.4626733362674713,0.9741984009742737,1.1903343200683594,0.8774018883705139,0.35780730843544006,0.9920013546943665,0.7700673341751099,0.7725359797477722,0.5579861402511597,1.0193581581115723,0.9119778871536255,0.8782102465629578,0.3922901451587677,1.0833947658538818,0.39089369773864746,0.8423175811767578
19219.138159319275,0.4525667428970337,0.23665297031402588,-1.059253454208374,0.9999885559082031,0.45898017287254333,0.2120051383972168,-1.0052582025527954,0.9999756813049316,0.4679136276245117,0.21041661500930786,-1.0053040981292725,0.9999717473983765,0.47589075565338135,0.20895496010780334,-1.0052987337112427,0.9999661445617676,0.42530375719070435,0.21419233083724976,-1.0357346534729004,0.9999814033508301,0.4074735641479492,0.21422255039215088,-1.0358366966247559,0.999980092048645,0.38900327682495117,0.21434566378593445,-1.0359176397323608,0.9999784231185913,0.46921563148498535,0.21497440338134766,-0.6439805626869202,0.9999644756317139,0.3414061367511749,0.22338494658470154,-0.7952045202255249,0.9999860525131226,0.46293678879737854,0.25847098231315613,-0.9203545451164246,0.9999910593032837,0.4288467466831207,0.2610093653202057,-0.9628392457962036,0.9999953508377075,0.5424661636352539,0.3458229601383209,-0.35458797216415405,0.9999066591262817,0.18830470740795135,0.3671826720237732,-0.6348777413368225,0.9999076128005981,0.5884276628494263,0.5081807374954224,-0.09007696062326431,0.973773717880249,0.14799730479717255,0.5207127332687378,-0.7760377526283264,0.9869691133499146,0.6464176177978516,0.6312145590782166,-0.334096223115921,0.976997971534729,0.28367331624031067,0.5563114881515503,-1.1964991092681885,0.960760772228241,0.6652892231941223,0.6747100353240967,-0.41700872778892517,0.9598921537399292,0.3359107971191406,0.5662360191345215,-1.3151006698608398,0.9403842091560364,0.6502112150192261,0.6743510365486145,-0.5138832926750183,0.962960958480835,0.33982741832733154,0.5401792526245117,-1.3660162687301636,0.9415632486343384,0.6397911310195923,0.6657988429069519,-0.37650126218795776,0.9630312323570251,0.32378754019737244,0.5353255271911621,-1.2220007181167603,0.9294073581695557,0.4939872920513153,0.6302207708358765,0.11177906394004822,0.9970149993896484,0.32517457008361816,0.6507697701454163,-0.11152981221675873,0.9981639981269836,0.48663365840911865,0.8338624238967896,0.4747656285762787,0.9497362375259399,0.34064167737960815,0.8661286234855652,0.14089320600032806,0.985124409198761,0.48423269391059875,0.9647411108016968,1.1076046228408813,0.9093166589736938,0.3558860123157501,0.9982725977897644,0.6736213564872742,0.937324047088623,0.45683157444000244,0.9783213138580322,1.1517047882080078,0.8679219484329224,0.3524640202522278,0.9988703727722168,0.7124078869819641,0.7577805519104004,0.5571498274803162,1.019469976425171,0.8735769391059875,0.8777583837509155,0.4028618037700653,1.0950968265533447,0.3272790014743805,0.8397558331489563
19235.804825985942,0.4527409076690674,0.2338922619819641,-1.0154609680175781,0.9999860525131226,0.45969370007514954,0.20863115787506104,-0.9583054780960083,0.9999710321426392,0.4687856435775757,0.20741236209869385,-0.9583935141563416,0.9999659061431885,0.47726571559906006,0.2064010202884674,-0.9584162831306458,0.9999618530273438,0.424838662147522,0.2106754183769226,-0.9894692301750183,0.9999760389328003,0.40726569294929504,0.21076297760009766,-0.98956698179245,0.9999728202819824,0.3890610337257385,0.2113422453403473,-0.9896366000175476,0.999970555305481,0.4715179204940796,0.21378037333488464,-0.593968391418457,0.999957799911499,0.34171053767204285,0.2211521863937378,-0.7498866319656372,0.9999781847000122,0.46307173371315,0.2557821571826935,-0.8772022128105164,0.9999892711639404,0.426652193069458,0.25734978914260864,-0.9211585521697998,0.9999935626983643,0.5459641814231873,0.3469380736351013,-0.334788054227829,0.9998955726623535,0.189860537648201,0.3642902076244354,-0.5877705812454224,0.9998482465744019,0.5904170870780945,0.5068514943122864,-0.0976363867521286,0.9749919176101685,0.15302380919456482,0.5148955583572388,-0.7156822681427002,0.9745814800262451,0.6490879654884338,0.6313926577568054,-0.3573233187198639,0.974969208240509,0.2748422622680664,0.557911217212677,-1.1278220415115356,0.9165289402008057,0.6673890352249146,0.676235020160675,-0.4459514021873474,0.9565096497535706,0.3267063498497009,0.571713387966156,-1.2461001873016357,0.8888313174247742,0.650046706199646,0.675556480884552,-0.5456416606903076,0.9599634408950806,0.3348861336708069,0.5454046726226807,-1.3039274215698242,0.8924931883811951,0.6391142010688782,0.6665925979614258,-0.40146195888519287,0.9599263072013855,0.3176385164260864,0.5393269658088684,-1.1574994325637817,0.8770100474357605,0.49973031878471375,0.6282795071601868,0.10041109472513199,0.9967535138130188,0.32535988092422485,0.6490901112556458,-0.10005122423171997,0.9980565905570984,0.4880465567111969,0.8325228691101074,0.4415263235569,0.9602658748626709,0.33983033895492554,0.8629611730575562,0.1093914732336998,0.9865027666091919,0.4822961986064911,0.9635053873062134,1.1125167608261108,0.9181010723114014,0.3567856252193451,0.9952858090400696,0.6465150117874146,0.9450232982635498,0.45617932081222534,0.976725161075592,1.1597650051116943,0.8686526417732239,0.3522261083126068,1.022778034210205,0.6838131546974182,0.7482081651687622,0.5528083443641663,1.019576072692871,0.8744747042655945,0.8863016963005066,0.3853289783000946,1.0917006731033325,0.28776851296424866,0.8544502258300781
19252.47149265261,0.4543604552745819,0.23533043265342712,-1.011146903038025,0.999982476234436,0.45901811122894287,0.21026340126991272,-0.9498366117477417,0.9999693632125854,0.4674447774887085,0.2087337076663971,-0.9499682188034058,0.9999649524688721,0.47513681650161743,0.207365483045578,-0.9500107169151306,0.9999593496322632,0.425518274307251,0.21233642101287842,-0.9842731356620789,0.9999727010726929,0.40754348039627075,0.21221783757209778,-0.9844005703926086,0.9999704360961914,0.38848328590393066,0.2121763825416565,-0.9845085144042969,0.9999668598175049,0.4663074016571045,0.21405833959579468,-0.5726330876350403,0.9999618530273438,0.33979037404060364,0.22163626551628113,-0.7411149740219116,0.9999759197235107,0.4629780054092407,0.25794923305511475,-0.8687828183174133,0.9999891519546509,0.4293912947177887,0.260580837726593,-0.9163333773612976,0.9999927282333374,0.5424043536186218,0.3480896055698395,-0.3090175688266754,0.9999086856842041,0.18924136459827423,0.3704889416694641,-0.5750178694725037,0.9997599720954895,0.5894230604171753,0.5111443996429443,-0.07118993997573853,0.9763922095298767,0.15416479110717773,0.5269368886947632,-0.7668865919113159,0.9739543199539185,0.6473970413208008,0.6371760964393616,-0.34734171628952026,0.9769721031188965,0.25627583265304565,0.5485382676124573,-1.265205979347229,0.9403725862503052,0.6646498441696167,0.6796355843544006,-0.4348330795764923,0.958876371383667,0.31067007780075073,0.5596352815628052,-1.3889951705932617,0.9189055562019348,0.6482069492340088,0.6793593764305115,-0.5297346115112305,0.9624263048171997,0.30283671617507935,0.5299460887908936,-1.4370728731155396,0.9214312434196472,0.6364384889602661,0.6711518168449402,-0.3891630172729492,0.9627683162689209,0.2888958156108856,0.5248461961746216,-1.2915782928466797,0.9055920839309692,0.4985593855381012,0.6361966133117676,0.1069876179099083,0.9973013997077942,0.32617101073265076,0.6593464612960815,-0.10660422593355179,0.9977390766143799,0.4897878170013428,0.8453062772750854,0.34664085507392883,0.9358543157577515,0.3428916335105896,0.8785043358802795,0.07196051627397537,0.9693325757980347,0.48813578486442566,0.9619636535644531,1.1024975776672363,0.8486663699150085,0.3600207567214966,0.9914781451225281,0.6879396438598633,0.8831108212471008,0.46540316939353943,0.9738931059837341,1.1585838794708252,0.80192631483078,0.35627567768096924,1.0267581939697266,0.7352089285850525,0.6392932534217834,0.556033194065094,1.021552562713623,0.8702731132507324,0.7975378632545471,0.4030323028564453,1.0970596075057983,0.3397270441055298,0.7455694675445557
