0,1,2,3,4
14571.607065113501,0.9465509057044983,1.0615097284317017,1.166429877281189,1.4334259033203125
14571.609065173563,0.9475224018096924,1.062319278717041,1.1669156551361084,1.433749794960022
14571.611065233623,0.9465509057044983,1.0632907152175903,1.166106104850769,1.433749794960022
14571.613065293683,0.9454175233840942,1.0634527206420898,1.1646488904953003,1.4342354536056519
14571.615065353744,0.946874737739563,1.0637764930725098,1.1638392210006714,1.4342354536056519
14571.617065413804,0.9467127919197083,1.0626431703567505,1.1635154485702515,1.4332640171051025
14571.619065473864,0.9467127919197083,1.0634527206420898,1.1646488904953003,1.4334259033203125
14571.621065533926,0.947036623954773,1.0628050565719604,1.1651345491409302,1.433749794960022
14571.623065593985,0.9471985697746277,1.062481164932251,1.164001226425171,1.433749794960022
14571.625065654047,0.9446079134941101,1.0636146068572998,1.1643249988555908,1.4321305751800537
14571.627065714107,0.9442841410636902,1.0636146068572998,1.163029670715332,1.4316449165344238
14571.629065774167,0.9449317455291748,1.062481164932251,1.162867784500122,1.4322925806045532
14571.631065834228,0.9454175233840942,1.062157392501831,1.1622201204299927,1.4329402446746826
14571.633065894288,0.9447698593139648,1.062319278717041,1.1625440120697021,1.4329402446746826
14571.63506595435,0.9460651874542236,1.0632907152175903,1.162867784500122,1.4332640171051025
14571.63706601441,0.9455794095993042,1.062481164932251,1.1625440120697021,1.4332640171051025
14571.63906607447,0.9462270736694336,1.061995506286621,1.1622201204299927,1.432778239250183
14571.64106613453,0.9460651874542236,1.062157392501831,1.1617343425750732,1.4332640171051025
14571.64306619459,0.9473604559898376,1.0618335008621216,1.1618963479995728,1.4334259033203125
14571.64506625465,0.9454175233840942,1.062157392501831,1.1618963479995728,1.4334259033203125
14571.647066314712,0.9457413554191589,1.062481164932251,1.1625440120697021,1.433587908744812
14571.649066374772,0.9449317455291748,1.062481164932251,1.1622201204299927,1.4331021308898926
14571.651066434832,0.9441221952438354,1.062481164932251,1.1622201204299927,1.4329402446746826
14571.653066494893,0.9429888129234314,1.0628050565719604,1.1617343425750732,1.4326163530349731
14571.655066554953,0.9441221952438354,1.062481164932251,1.1617343425750732,1.4331021308898926
14571.657066615015,0.9447698593139648,1.061995506286621,1.1618963479995728,1.4329402446746826
14571.659066675074,0.9452555775642395,1.062481164932251,1.1615724563598633,1.4329402446746826
14571.661066735134,0.9455794095993042,1.0636146068572998,1.1615724563598633,1.432778239250183
14571.663066795196,0.9459032416343689,1.0636146068572998,1.160439133644104,1.432778239250183
14571.665066855256,0.9444460272789001,1.0629669427871704,1.159629464149475,1.4322925806045532
14571.667066915315,0.9431506991386414,1.061995506286621,1.159629464149475,1.4326163530349731
14571.669066975377,0.9431506991386414,1.0626431703567505,1.160439133644104,1.432778239250183
14571.671067035437,0.9433126449584961,1.062319278717041,1.160439133644104,1.4329402446746826
14571.673067095497,0.9428268671035767,1.0618335008621216,1.160439133644104,1.4322925806045532
14571.675067155558,0.9454175233840942,1.0616716146469116,1.160601019859314,1.4324544668197632
14571.677067215618,0.9454175233840942,1.0626431703567505,1.1599533557891846,1.4329402446746826
14571.67906727568,0.9452555775642395,1.062481164932251,1.1601152420043945,1.4331021308898926
14571.68106733574,0.9452555775642395,1.062319278717041,1.160762906074524,1.433587908744812
14571.6830673958,0.9454175233840942,1.062481164932251,1.1612486839294434,1.4326163530349731
14571.685067455861,0.9442841410636902,1.0616716146469116,1.160601019859314,1.4321305751800537
14571.68706751592,0.9444460272789001,1.062157392501831,1.1609247922897339,1.4334259033203125
14571.689067575982,0.9455794095993042,1.0631288290023804,1.160762906074524,1.4324544668197632
14571.691067636042,0.9455794095993042,1.0632907152175903,1.1601152420043945,1.4321305751800537
14571.693067696102,0.9439603090286255,1.062319278717041,1.1599533557891846,1.4324544668197632
14571.695067756164,0.9450936913490295,1.0616716146469116,1.1599533557891846,1.433911681175232
14571.697067816223,0.9452555775642395,1.0611858367919922,1.160601019859314,1.4334259033203125
14571.699067876283,0.9452555775642395,1.0616716146469116,1.1614105701446533,1.4343974590301514
14571.701067936345,0.9457413554191589,1.062157392501831,1.160601019859314,1.433587908744812
14571.703067996405,0.9455794095993042,1.0616716146469116,1.1609247922897339,1.433587908744812
14571.705068056464,0.9447698593139648,1.0610239505767822,1.1612486839294434,1.4342354536056519
14571.707068116526,0.9446079134941101,1.0610239505767822,1.1612486839294434,1.4343974590301514
14571.709068176586,0.9439603090286255,1.0613478422164917,1.160439133644104,1.4334259033203125
14571.711068236647,0.9437983632087708,1.0613478422164917,1.1609247922897339,1.4331021308898926
14571.713068296707,0.9444460272789001,1.0613478422164917,1.160762906074524,1.4332640171051025
14571.715068356767,0.9462270736694336,1.061995506286621,1.1609247922897339,1.4347212314605713
14571.717068416829,0.9460651874542236,1.062481164932251,1.160601019859314,1.433911681175232
14571.719068476888,0.9462270736694336,1.062481164932251,1.160439133644104,1.4329402446746826
14571.721068536948,0.9467127919197083,1.062319278717041,1.160601019859314,1.434073567390442
14571.72306859701,0.9478462338447571,1.062157392501831,1.160762906074524,1.4343974590301514
14571.72506865707,0.9465509057044983,1.062319278717041,1.1612486839294434,1.4343974590301514
14571.72706871713,0.9457413554191589,1.0629669427871704,1.1609247922897339,1.4343974590301514
14571.729068777191,0.9465509057044983,1.0631288290023804,1.1612486839294434,1.4343974590301514
14571.73106883725,0.9460651874542236,1.062157392501831,1.1618963479995728,1.433749794960022
14571.733068897312,0.9460651874542236,1.0616716146469116,1.1615724563598633,1.433749794960022
14571.735068957372,0.947036623954773,1.062157392501831,1.1612486839294434,1.4345593452453613
14571.737069017432,0.9473604559898376,1.0628050565719604,1.1617343425750732,1.4350451231002808
14571.739069077494,0.9465509057044983,1.062481164932251,1.1609247922897339,1.4343974590301514
14571.741069137553,0.9460651874542236,1.0616716146469116,1.1610867977142334,1.433587908744812
14571.743069197613,0.946874737739563,1.0618335008621216,1.160601019859314,1.4334259033203125
14571.745069257675,0.9452555775642395,1.062481164932251,1.1614105701446533,1.4334259033203125
14571.747069317735,0.9449317455291748,1.062319278717041,1.1617343425750732,1.4345593452453613
14571.749069377795,0.9455794095993042,1.0618335008621216,1.1615724563598633,1.4345593452453613
14571.751069437856,0.9463890194892883,1.0618335008621216,1.1612486839294434,1.434073567390442
14571.753069497916,0.9457413554191589,1.0611858367919922,1.1615724563598633,1.4329402446746826
14571.755069557978,0.947036623954773,1.0611858367919922,1.1609247922897339,1.433587908744812
14571.757069618037,0.9460651874542236,1.0610239505767822,1.1612486839294434,1.4332640171051025
14571.759069678097,0.9457413554191589,1.0616716146469116,1.1615724563598633,1.433587908744812
14571.761069738159,0.9462270736694336,1.062319278717041,1.1618963479995728,1.433911681175232
14571.763069798219,0.9476842880249023,1.062157392501831,1.1615724563598633,1.4334259033203125
14571.76506985828,0.9460651874542236,1.0618335008621216,1.1614105701446533,1.433749794960022
14571.76706991834,0.9463890194892883,1.0613478422164917,1.1610867977142334,1.4342354536056519
14571.7690699784,0.9463890194892883,1.0610239505767822,1.1623820066452026,1.433911681175232
14571.771070038461,0.9463890194892883,1.0607001781463623,1.162705898284912,1.433911681175232
14571.773070098521,0.9455794095993042,1.0607001781463623,1.1625440120697021,1.434073567390442
14571.775070158581,0.9473604559898376,1.0618335008621216,1.1618963479995728,1.4332640171051025
14571.777070218643,0.9478462338447571,1.0613478422164917,1.1617343425750732,1.4343974590301514
14571.779070278702,0.947036623954773,1.061995506286621,1.1614105701446533,1.4342354536056519
14571.781070338762,0.947036623954773,1.061995506286621,1.1618963479995728,1.433587908744812
14571.783070398824,0.9478462338447571,1.0618335008621216,1.1615724563598633,1.433587908744812
14571.785070458884,0.9459032416343689,1.0616716146469116,1.1614105701446533,1.433587908744812
14571.787070518945,0.9465509057044983,1.0616716146469116,1.1618963479995728,1.4352070093154907
14571.789070579005,0.9473604559898376,1.061995506286621,1.1617343425750732,1.4348831176757812
14571.791070639065,0.9467127919197083,1.061995506286621,1.1618963479995728,1.433911681175232
14571.793070699126,0.9455794095993042,1.0618335008621216,1.1620582342147827,1.433749794960022
14571.795070759186,0.9476842880249023,1.0618335008621216,1.1620582342147827,1.433587908744812
14571.797070819246,0.9475224018096924,1.0618335008621216,1.1618963479995728,1.434073567390442
14571.799070879308,0.9478462338447571,1.0616716146469116,1.1615724563598633,1.433749794960022
14571.801070939367,0.9473604559898376,1.0613478422164917,1.1615724563598633,1.433749794960022
14571.803070999427,0.9481700658798218,1.0608620643615723,1.160762906074524,1.433587908744812
14571.805071059489,0.9467127919197083,1.0610239505767822,1.160601019859314,1.4331021308898926
14571.807071119549,0.9459032416343689,1.0613478422164917,1.160601019859314,1.433749794960022
14571.80907117961,0.9462270736694336,1.0607001781463623,1.1615724563598633,1.4342354536056519
14571.81107123967,0.9463890194892883,1.0605382919311523,1.1617343425750732,1.434073567390442
14571.81307129973,0.9459032416343689,1.0608620643615723,1.1610867977142334,1.4329402446746826
14571.815071359792,0.9478462338447571,1.0607001781463623,1.160601019859314,1.4329402446746826
14571.817071419851,0.9475224018096924,1.0610239505767822,1.160439133644104,1.4331021308898926
14571.819071479913,0.9471985697746277,1.0610239505767822,1.160601019859314,1.4342354536056519
14571.821071539973,0.9475224018096924,1.0605382919311523,1.1609247922897339,1.4331021308898926
14571.823071600033,0.9481700658798218,1.0605382919311523,1.1609247922897339,1.4326163530349731
14571.825071660092,0.9460651874542236,1.0603762865066528,1.160439133644104,1.4318068027496338
14571.827071720154,0.946874737739563,1.060052514076233,1.1609247922897339,1.4316449165344238
14571.829071780214,0.9471985697746277,1.0595667362213135,1.1599533557891846,1.4319686889648438
14571.831071840275,0.9471985697746277,1.0602144002914429,1.1601152420043945,1.4322925806045532
14571.833071900335,0.9463890194892883,1.0595667362213135,1.1599533557891846,1.4329402446746826
14571.835071960395,0.948008120059967,1.0592429637908936,1.1602771282196045,1.432778239250183
14571.837072020457,0.9486557841300964,1.060052514076233,1.1609247922897339,1.432778239250183
14571.839072080516,0.9483319520950317,1.0597286224365234,1.1609247922897339,1.4329402446746826
14571.841072140578,0.948008120059967,1.0597286224365234,1.1599533557891846,1.4326163530349731
14571.843072200638,0.9484938979148865,1.0594048500061035,1.160601019859314,1.4318068027496338
14571.845072260698,0.946874737739563,1.0592429637908936,1.1609247922897339,1.4309972524642944
14571.84707232076,0.9473604559898376,1.059080958366394,1.1614105701446533,1.4316449165344238
14571.849072380819,0.948008120059967,1.0594048500061035,1.1602771282196045,1.4322925806045532
14571.851072440879,0.9481700658798218,1.0592429637908936,1.160601019859314,1.4326163530349731
14571.85307250094,0.947036623954773,1.0597286224365234,1.1609247922897339,1.4332640171051025
14571.855072561,0.9496272802352905,1.0594048500061035,1.1602771282196045,1.432778239250183
14571.85707262106,0.9493034482002258,1.0585952997207642,1.1602771282196045,1.4324544668197632
14571.859072681122,0.9484938979148865,1.0585952997207642,1.1597914695739746,1.432778239250183
14571.861072741181,0.9484938979148865,1.0587571859359741,1.1594675779342651,1.4324544668197632
14571.863072801243,0.9496272802352905,1.059080958366394,1.1599533557891846,1.4332640171051025
14571.865072861303,0.948008120059967,1.0587571859359741,1.1599533557891846,1.4332640171051025
14571.867072921363,0.9475224018096924,1.059080958366394,1.159629464149475,1.432778239250183
14571.869072981424,0.948008120059967,1.0587571859359741,1.159629464149475,1.4332640171051025
14571.871073041484,0.9483319520950317,1.0582714080810547,1.1591438055038452,1.4322925806045532
14571.873073101544,0.9488176703453064,1.0585952997207642,1.1583342552185059,1.4324544668197632
14571.875073161606,0.9499511122703552,1.058919072151184,1.1584961414337158,1.4331021308898926
14571.877073221665,0.9497891664505005,1.0587571859359741,1.1588199138641357,1.4331021308898926
14571.879073281725,0.9491415023803711,1.0581095218658447,1.1586580276489258,1.433587908744812
14571.881073341787,0.9493034482002258,1.0582714080810547,1.1591438055038452,1.433587908744812
14571.883073401847,0.9507606625556946,1.0582714080810547,1.1593056917190552,1.433587908744812
14571.885073461908,0.9486557841300964,1.0579476356506348,1.1586580276489258,1.4326163530349731
14571.887073521968,0.9486557841300964,1.0576237440109253,1.1584961414337158,1.4331021308898926
14571.889073582028,0.9491415023803711,1.0572999715805054,1.1602771282196045,1.432778239250183
14571.89107364209,0.9486557841300964,1.0577857494354248,1.1601152420043945,1.4332640171051025
14571.89307370215,0.9478462338447571,1.0577857494354248,1.1593056917190552,1.4329402446746826
14571.89507376221,0.9507606625556946,1.0572999715805054,1.1589818000793457,1.4331021308898926
14571.89707382227,0.9512463808059692,1.056976079940796,1.1588199138641357,1.4334259033203125
14571.89907388233,0.9510844945907593,1.0576237440109253,1.1593056917190552,1.433587908744812
14571.901073942392,0.9505987763404846,1.0571380853652954,1.1594675779342651,1.433587908744812
14571.903074002452,0.9520559906959534,1.056652307510376,1.1597914695739746,1.4343974590301514
14571.905074062512,0.9505987763404846,1.056814193725586,1.1602771282196045,1.433749794960022
14571.907074122573,0.9517321586608887,1.0571380853652954,1.160601019859314,1.434073567390442
14571.909074182633,0.9517321586608887,1.0574618577957153,1.160601019859314,1.433587908744812
14571.911074242693,0.9522178769111633,1.0574618577957153,1.1602771282196045,1.433749794960022
14571.913074302754,0.9517321586608887,1.0584334135055542,1.160762906074524,1.433911681175232
14571.915074362814,0.9541608691215515,1.0579476356506348,1.1610867977142334,1.4350451231002808
14571.917074422876,0.9546465873718262,1.0574618577957153,1.1610867977142334,1.4356927871704102
14571.919074482936,0.9535132050514221,1.0577857494354248,1.1612486839294434,1.4355307817459106
14571.921074542995,0.9538370370864868,1.0579476356506348,1.1614105701446533,1.4358546733856201
14571.923074603057,0.9552942514419556,1.0577857494354248,1.1625440120697021,1.43601655960083
14571.925074663117,0.9544847011566162,1.0576237440109253,1.1620582342147827,1.4352070093154907
14571.927074723177,0.9554561376571655,1.056814193725586,1.1623820066452026,1.4350451231002808
14571.929074783238,0.955941915512085,1.056328535079956,1.1625440120697021,1.4350451231002808
14571.931074843298,0.9554561376571655,1.056652307510376,1.163029670715332,1.4352070093154907
14571.933074903358,0.9549704194068909,1.0574618577957153,1.1631916761398315,1.4350451231002808
14571.93507496342,0.9564276337623596,1.0576237440109253,1.1633535623550415,1.4353688955307007
14571.93707502348,0.9572372436523438,1.0574618577957153,1.162705898284912,1.4350451231002808
14571.939075083541,0.9575610160827637,1.0581095218658447,1.1625440120697021,1.4353688955307007
14571.9410751436,0.9572372436523438,1.0577857494354248,1.1622201204299927,1.4355307817459106
14571.94307520366,0.9583706259727478,1.0572999715805054,1.1620582342147827,1.43617844581604
14571.945075263722,0.9573991298675537,1.056976079940796,1.162705898284912,1.4358546733856201
14571.947075323782,0.9565895795822144,1.056652307510376,1.162705898284912,1.43617844581604
14571.949075383842,0.9562657475471497,1.0555188655853271,1.162867784500122,1.43617844581604
14571.951075443903,0.957075297832489,1.0550332069396973,1.1633535623550415,1.4350451231002808
14571.953075503963,0.9561038017272949,1.0556808710098267,1.162867784500122,1.4348831176757812
14571.955075564023,0.9575610160827637,1.056652307510376,1.1625440120697021,1.4355307817459106
14571.957075624085,0.9583706259727478,1.056652307510376,1.162705898284912,1.4363404512405396
14571.959075684144,0.9583706259727478,1.0571380853652954,1.1618963479995728,1.43617844581604
14571.961075744206,0.9588563442230225,1.056976079940796,1.162867784500122,1.4366642236709595
14571.963075804266,0.9593421220779419,1.056652307510376,1.1633535623550415,1.4358546733856201
14571.965075864326,0.9573991298675537,1.056814193725586,1.1633535623550415,1.4358546733856201
14571.967075924387,0.9583706259727478,1.0560046434402466,1.1636773347854614,1.43601655960083
14571.969075984447,0.9586944580078125,1.0561665296554565,1.1633535623550415,1.4356927871704102
14571.971076044509,0.9573991298675537,1.0561665296554565,1.1641631126403809,1.4345593452453613
14571.973076104568,0.955941915512085,1.0550332069396973,1.1644868850708008,1.4343974590301514
14571.975076164628,0.9582086801528931,1.0553569793701172,1.1641631126403809,1.4347212314605713
14571.97707622469,0.9588563442230225,1.0556808710098267,1.1643249988555908,1.4350451231002808
14571.97907628475,0.9588563442230225,1.0561665296554565,1.164001226425171,1.4353688955307007
14571.98107634481,0.9588563442230225,1.056490421295166,1.163029670715332,1.4356927871704102
14571.983076404871,0.9591801762580872,1.056976079940796,1.1633535623550415,1.4358546733856201
14571.98507646493,0.9572372436523438,1.056652307510376,1.1638392210006714,1.4355307817459106
14571.98707652499,0.9572372436523438,1.056490421295166,1.1644868850708008,1.4348831176757812
14571.989076585052,0.9575610160827637,1.056328535079956,1.1646488904953003,1.4352070093154907
14571.991076645112,0.9580467939376831,1.0555188655853271,1.1659440994262695,1.4352070093154907
14571.993076705174,0.9572372436523438,1.0548712015151978,1.1652965545654297,1.4350451231002808
14571.995076765234,0.9582086801528931,1.0548712015151978,1.1651345491409302,1.4345593452453613
14571.997076825293,0.9585325121879578,1.0556808710098267,1.1654584407806396,1.4347212314605713
14571.999076885355,0.9585325121879578,1.056814193725586,1.1654584407806396,1.4343974590301514
14572.001076945415,0.9586944580078125,1.0571380853652954,1.166429877281189,1.4350451231002808
14572.003077005475,0.9591801762580872,1.0572999715805054,1.166106104850769,1.4347212314605713
14572.005077065536,0.9567514657974243,1.0576237440109253,1.1657822132110596,1.4342354536056519
14572.007077125596,0.9578848481178284,1.0572999715805054,1.1659440994262695,1.433911681175232
14572.009077185656,0.9573991298675537,1.0574618577957153,1.1657822132110596,1.433749794960022
14572.011077245717,0.9580467939376831,1.0579476356506348,1.1672394275665283,1.4329402446746826
14572.013077305777,0.9573991298675537,1.0579476356506348,1.1669156551361084,1.4332640171051025
14572.015077365839,0.9588563442230225,1.0576237440109253,1.1675633192062378,1.4342354536056519
14572.017077425899,0.9586944580078125,1.0572999715805054,1.1683728694915771,1.4343974590301514
14572.019077485958,0.9586944580078125,1.056976079940796,1.1683728694915771,1.4343974590301514
14572.02107754602,0.9593421220779419,1.0572999715805054,1.1680489778518677,1.4342354536056519
14572.02307760608,0.9601516723632812,1.0582714080810547,1.1675633192062378,1.4343974590301514
14572.025077666141,0.9590182900428772,1.0574618577957153,1.1683728694915771,1.4342354536056519
14572.027077726201,0.9588563442230225,1.056814193725586,1.1682109832763672,1.4332640171051025
14572.029077786261,0.9588563442230225,1.0572999715805054,1.1688586473464966,1.434073567390442
14572.031077846323,0.9583706259727478,1.0576237440109253,1.1688586473464966,1.433911681175232
14572.033077906382,0.9565895795822144,1.056490421295166,1.1675633192062378,1.4332640171051025
14572.035077966442,0.9582086801528931,1.056490421295166,1.1677252054214478,1.433911681175232
14572.037078026504,0.9588563442230225,1.056328535079956,1.168696641921997,1.4334259033203125
14572.039078086564,0.9586944580078125,1.056814193725586,1.1680489778518677,1.4321305751800537
14572.041078146623,0.9582086801528931,1.056652307510376,1.1680489778518677,1.4326163530349731
14572.043078206685,0.9590182900428772,1.0571380853652954,1.1688586473464966,1.4329402446746826
14572.045078266745,0.9572372436523438,1.0574618577957153,1.169506311416626,1.4316449165344238
14572.047078326807,0.9578848481178284,1.0577857494354248,1.1690205335617065,1.4313210248947144
14572.049078386866,0.957075297832489,1.0572999715805054,1.1693443059921265,1.4318068027496338
14572.051078446926,0.9565895795822144,1.056976079940796,1.169506311416626,1.4319686889648438
14572.053078506988,0.955941915512085,1.056814193725586,1.1682109832763672,1.4314830303192139
14572.055078567048,0.9582086801528931,1.056976079940796,1.1678870916366577,1.4321305751800537
14572.057078627107,0.9577229619026184,1.056814193725586,1.1683728694915771,1.4318068027496338
14572.059078687169,0.9578848481178284,1.056976079940796,1.168696641921997,1.432778239250183
14572.061078747229,0.9582086801528931,1.0561665296554565,1.168696641921997,1.4326163530349731
14572.063078807289,0.9582086801528931,1.056328535079956,1.168534755706787,1.4314830303192139
14572.06507886735,0.9562657475471497,1.0558427572250366,1.169506311416626,1.4311591386795044
14572.06707892741,0.956913411617279,1.0556808710098267,1.1690205335617065,1.4308353662490845
14572.069078987472,0.9562657475471497,1.0551950931549072,1.168696641921997,1.430673360824585
14572.071079047531,0.9564276337623596,1.0553569793701172,1.1682109832763672,1.430349588394165
14572.073079107591,0.9556180834770203,1.0556808710098267,1.1682109832763672,1.430673360824585
14572.075079167653,0.9577229619026184,1.0558427572250366,1.1682109832763672,1.430673360824585
14572.077079227713,0.9577229619026184,1.0553569793701172,1.168696641921997,1.4308353662490845
14572.079079287772,0.9567514657974243,1.0553569793701172,1.168696641921997,1.4316449165344238
14572.081079347834,0.9572372436523438,1.0550332069396973,1.1683728694915771,1.4309972524642944
14572.083079407894,0.9575610160827637,1.0556808710098267,1.168534755706787,1.4297019243240356
14572.085079467954,0.955941915512085,1.0547093152999878,1.1683728694915771,1.4295400381088257
14572.087079528015,0.9549704194068909,1.0542235374450684,1.1675633192062378,1.4298638105392456
14572.089079588075,0.9548085331916809,1.0538997650146484,1.1677252054214478,1.4297019243240356
14572.091079648137,0.9543227553367615,1.053413987159729,1.1677252054214478,1.4285684823989868
14572.093079708196,0.9535132050514221,1.053090214729309,1.1670775413513184,1.4279208183288574
14572.095079768256,0.9548085331916809,1.053413987159729,1.1670775413513184,1.428244709968567
14572.097079828318,0.9552942514419556,1.053413987159729,1.166267991065979,1.4274351596832275
14572.099079888378,0.9548085331916809,1.053252100944519,1.166106104850769,1.4266256093978882
14572.10107994844,0.9546465873718262,1.0535759925842285,1.1667537689208984,1.427111268043518
14572.1030800085,0.9554561376571655,1.0540616512298584,1.1674014329910278,1.4267874956130981
14572.105080068559,0.9536750912666321,1.0540616512298584,1.1672394275665283,1.4261398315429688
14572.10708012862,0.9536750912666321,1.0542235374450684,1.166429877281189,1.4264636039733887
14572.10908018868,0.9535132050514221,1.0535759925842285,1.166591763496399,1.427273154258728
14572.11108024874,0.9531893730163574,1.0535759925842285,1.1670775413513184,1.4267874956130981
14572.113080308802,0.9517321586608887,1.053413987159729,1.1667537689208984,1.4261398315429688
14572.115080368862,0.9528655409812927,1.0535759925842285,1.166106104850769,1.4267874956130981
14572.117080428921,0.9531893730163574,1.0535759925842285,1.1654584407806396,1.4264636039733887
14572.119080488983,0.9536750912666321,1.0537378787994385,1.1656203269958496,1.4259779453277588
14572.121080549043,0.9543227553367615,1.053413987159729,1.1656203269958496,1.426949381828308
14572.123080609104,0.9546465873718262,1.0537378787994385,1.1657822132110596,1.427111268043518
14572.125080669164,0.9522178769111633,1.0537378787994385,1.1656203269958496,1.4261398315429688
14572.127080729224,0.9523798227310181,1.0537378787994385,1.1657822132110596,1.4259779453277588
14572.129080789286,0.9527036547660828,1.0537378787994385,1.1651345491409302,1.4267874956130981
14572.131080849345,0.9522178769111633,1.0540616512298584,1.1654584407806396,1.4259779453277588
14572.133080909405,0.951408326625824,1.0537378787994385,1.1657822132110596,1.4264636039733887
14572.135080969467,0.9528655409812927,1.0529283285140991,1.1657822132110596,1.4267874956130981
14572.137081029527,0.9541608691215515,1.053090214729309,1.1657822132110596,1.4254921674728394
14572.139081089586,0.9533512592315674,1.053090214729309,1.166106104850769,1.42500638961792
14572.141081149648,0.9539989233016968,1.0527663230895996,1.1667537689208984,1.4266256093978882
14572.143081209708,0.9551323652267456,1.053252100944519,1.1669156551361084,1.4263017177581787
14572.14508126977,0.9533512592315674,1.0535759925842285,1.166591763496399,1.4258159399032593
14572.14708132983,0.952541708946228,1.0537378787994385,1.166591763496399,1.426949381828308
14572.149081389889,0.9527036547660828,1.0545474290847778,1.1669156551361084,1.427111268043518
14572.15108144995,0.9530274868011475,1.0547093152999878,1.1674014329910278,1.4275970458984375
14572.15308151001,0.952541708946228,1.0550332069396973,1.1677252054214478,1.427111268043518
14572.155081570072,0.9541608691215515,1.0555188655853271,1.1680489778518677,1.427273154258728
14572.157081630132,0.9541608691215515,1.0547093152999878,1.168696641921997,1.4279208183288574
14572.159081690192,0.9538370370864868,1.0542235374450684,1.1682109832763672,1.4279208183288574
14572.161081750251,0.9541608691215515,1.0547093152999878,1.1675633192062378,1.4284065961837769
14572.163081810313,0.9551323652267456,1.0548712015151978,1.1680489778518677,1.4288923740386963
14572.165081870373,0.9538370370864868,1.0551950931549072,1.1688586473464966,1.428082823753357
14572.167081930435,0.9539989233016968,1.0558427572250366,1.1683728694915771,1.428082823753357
14572.169081990494,0.9541608691215515,1.0561665296554565,1.1680489778518677,1.4285684823989868
14572.171082050554,0.9544847011566162,1.0560046434402466,1.1680489778518677,1.4288923740386963
14572.173082110616,0.9523798227310181,1.056490421295166,1.168534755706787,1.4284065961837769
14572.175082170676,0.9543227553367615,1.056814193725586,1.1690205335617065,1.428244709968567
14572.177082230737,0.9549704194068909,1.056490421295166,1.168534755706787,1.4285684823989868
14572.179082290797,0.9546465873718262,1.056814193725586,1.1683728694915771,1.4292161464691162
14572.181082350857,0.9557799696922302,1.056814193725586,1.1690205335617065,1.4297019243240356
14572.183082410918,0.956913411617279,1.056814193725586,1.169506311416626,1.4295400381088257
14572.185082470978,0.9551323652267456,1.056976079940796,1.1701538562774658,1.4293781518936157
14572.187082531038,0.9557799696922302,1.056976079940796,1.169668197631836,1.4290542602539062
14572.1890825911,0.9561038017272949,1.0572999715805054,1.169830083847046,1.4298638105392456
14572.19108265116,0.9548085331916809,1.0585952997207642,1.169668197631836,1.4300256967544556
14572.19308271122,0.9536750912666321,1.0584334135055542,1.169830083847046,1.4298638105392456
14572.19508277128,0.955941915512085,1.0577857494354248,1.1708015203475952,1.430349588394165
14572.19708283134,0.9564276337623596,1.0579476356506348,1.1703158617019653,1.430349588394165
14572.199082891402,0.9565895795822144,1.0585952997207642,1.1699919700622559,1.4308353662490845
14572.201082951462,0.9557799696922302,1.0585952997207642,1.1701538562774658,1.4295400381088257
14572.203083011522,0.9572372436523438,1.058919072151184,1.1714491844177246,1.430349588394165
14572.205083071583,0.9552942514419556,1.0595667362213135,1.1716111898422241,1.430349588394165
14572.207083131643,0.9549704194068909,1.0597286224365234,1.1709635257720947,1.4311591386795044
14572.209083191703,0.9549704194068909,1.0592429637908936,1.1706396341323853,1.4298638105392456
14572.211083251765,0.9549704194068909,1.058919072151184,1.1712872982025146,1.4290542602539062
14572.213083311824,0.9538370370864868,1.0584334135055542,1.1709635257720947,1.4297019243240356
14572.215083371884,0.9548085331916809,1.0587571859359741,1.1711254119873047,1.430511474609375
14572.217083431946,0.9561038017272949,1.0594048500061035,1.1709635257720947,1.4308353662490845
14572.219083492006,0.9556180834770203,1.0597286224365234,1.1699919700622559,1.4308353662490845
14572.221083552067,0.9549704194068909,1.0585952997207642,1.169668197631836,1.4313210248947144
14572.223083612127,0.9556180834770203,1.0582714080810547,1.1699919700622559,1.4316449165344238
14572.225083672187,0.9538370370864868,1.0587571859359741,1.1691824197769165,1.4293781518936157
14572.227083732249,0.9535132050514221,1.0592429637908936,1.169506311416626,1.4300256967544556
14572.229083792308,0.9528655409812927,1.059080958366394,1.169506311416626,1.4292161464691162
14572.23108385237,0.9522178769111633,1.0581095218658447,1.1683728694915771,1.428244709968567
14572.23308391243,0.9515702128410339,1.0579476356506348,1.1675633192062378,1.428244709968567
14572.23508397249,0.9533512592315674,1.0587571859359741,1.1675633192062378,1.4298638105392456
14572.237084032551,0.9528655409812927,1.058919072151184,1.1682109832763672,1.4293781518936157
14572.239084092611,0.9531893730163574,1.0587571859359741,1.1675633192062378,1.4293781518936157
14572.24108415267,0.9533512592315674,1.0595667362213135,1.1667537689208984,1.4293781518936157
14572.243084212732,0.9536750912666321,1.0594048500061035,1.166106104850769,1.4300256967544556
14572.245084272792,0.9512463808059692,1.0587571859359741,1.166429877281189,1.4292161464691162
14572.247084332852,0.9505987763404846,1.0592429637908936,1.1669156551361084,1.4285684823989868
14572.249084392914,0.9510844945907593,1.0592429637908936,1.166267991065979,1.4288923740386963
14572.251084452973,0.9496272802352905,1.058919072151184,1.1657822132110596,1.4295400381088257
14572.253084513035,0.9496272802352905,1.0585952997207642,1.1649726629257202,1.4293781518936157
14572.255084573095,0.9509226083755493,1.0585952997207642,1.1648107767105103,1.4285684823989868
14572.257084633155,0.9510844945907593,1.0584334135055542,1.1644868850708008,1.428244709968567
14572.259084693216,0.9512463808059692,1.0587571859359741,1.1641631126403809,1.4284065961837769
14572.261084753276,0.951408326625824,1.0576237440109253,1.1644868850708008,1.4293781518936157
14572.263084813336,0.9515702128410339,1.0582714080810547,1.1646488904953003,1.4298638105392456
14572.265084873397,0.9496272802352905,1.0587571859359741,1.1654584407806396,1.4295400381088257
14572.267084933457,0.9499511122703552,1.0581095218658447,1.1656203269958496,1.4292161464691162
14572.269084993517,0.9494653344154358,1.0581095218658447,1.1646488904953003,1.4288923740386963
14572.271085053579,0.9497891664505005,1.0584334135055542,1.1648107767105103,1.4277589321136475
14572.273085113638,0.9494653344154358,1.0585952997207642,1.1643249988555908,1.428082823753357
14572.2750851737,0.951408326625824,1.059080958366394,1.1641631126403809,1.4287304878234863
14572.27708523376,0.9510844945907593,1.059080958366394,1.1641631126403809,1.4290542602539062
14572.27908529382,0.9510844945907593,1.058919072151184,1.1646488904953003,1.4288923740386963
14572.281085353881,0.9507606625556946,1.0592429637908936,1.1648107767105103,1.4292161464691162
14572.283085413941,0.9515702128410339,1.0587571859359741,1.1648107767105103,1.4298638105392456
14572.285085474,0.9496272802352905,1.059080958366394,1.1651345491409302,1.4292161464691162
14572.287085534062,0.9502749443054199,1.0587571859359741,1.1651345491409302,1.4295400381088257
14572.289085594122,0.9504368305206299,1.0595667362213135,1.1657822132110596,1.4290542602539062
14572.291085654182,0.9509226083755493,1.0597286224365234,1.1659440994262695,1.4292161464691162
14572.293085714244,0.9504368305206299,1.0594048500061035,1.166429877281189,1.4298638105392456
14572.295085774304,0.9510844945907593,1.0594048500061035,1.1654584407806396,1.4298638105392456
14572.297085834365,0.9509226083755493,1.060052514076233,1.1652965545654297,1.430349588394165
14572.299085894425,0.9509226083755493,1.0595667362213135,1.1670775413513184,1.430349588394165
14572.301085954485,0.9520559906959534,1.0597286224365234,1.1670775413513184,1.430673360824585
14572.303086014546,0.9533512592315674,1.0603762865066528,1.1659440994262695,1.4308353662490845
14572.305086074606,0.9517321586608887,1.0603762865066528,1.166267991065979,1.4300256967544556
14572.307086134668,0.9509226083755493,1.059890627861023,1.166106104850769,1.4297019243240356
14572.309086194728,0.9504368305206299,1.059890627861023,1.166106104850769,1.4297019243240356
14572.311086254787,0.9497891664505005,1.0602144002914429,1.166106104850769,1.4308353662490845
14572.313086314849,0.9491415023803711,1.0610239505767822,1.1667537689208984,1.4318068027496338
14572.315086374909,0.951408326625824,1.0608620643615723,1.1669156551361084,1.4309972524642944
14572.317086434969,0.9522178769111633,1.0611858367919922,1.1669156551361084,1.430673360824585
14572.31908649503,0.9517321586608887,1.0616716146469116,1.1674014329910278,1.430349588394165
14572.32108655509,0.9507606625556946,1.0611858367919922,1.1675633192062378,1.4311591386795044
14572.32308661515,0.951408326625824,1.0603762865066528,1.1677252054214478,1.4318068027496338
14572.325086675211,0.9499511122703552,1.0603762865066528,1.1678870916366577,1.430673360824585
14572.327086735271,0.9496272802352905,1.0613478422164917,1.1680489778518677,1.4300256967544556
14572.329086795333,0.9504368305206299,1.061995506286621,1.1672394275665283,1.430187702178955
14572.331086855393,0.9494653344154358,1.0616716146469116,1.1667537689208984,1.430673360824585
14572.333086915452,0.9481700658798218,1.062157392501831,1.1669156551361084,1.4308353662490845
14572.335086975514,0.9501129984855652,1.0628050565719604,1.1674014329910278,1.4318068027496338
14572.337087035574,0.951408326625824,1.062157392501831,1.1683728694915771,1.4321305751800537
14572.339087095634,0.9510844945907593,1.061995506286621,1.168696641921997,1.4321305751800537
14572.341087155695,0.951408326625824,1.062319278717041,1.1688586473464966,1.4319686889648438
14572.343087215755,0.9517321586608887,1.061995506286621,1.1693443059921265,1.4321305751800537
14572.345087275815,0.9501129984855652,1.061995506286621,1.1691824197769165,1.4316449165344238
14572.347087335876,0.9499511122703552,1.0636146068572998,1.1701538562774658,1.4316449165344238
14572.349087395936,0.9501129984855652,1.0641003847122192,1.1701538562774658,1.4319686889648438
14572.351087455998,0.9497891664505005,1.0641003847122192,1.169668197631836,1.4319686889648438
14572.353087516058,0.9497891664505005,1.0636146068572998,1.1704777479171753,1.4319686889648438
14572.355087576118,0.9520559906959534,1.0639383792877197,1.1704777479171753,1.4321305751800537
14572.35708763618,0.9520559906959534,1.0647480487823486,1.1712872982025146,1.4329402446746826
14572.359087696239,0.951408326625824,1.0649099349975586,1.1708015203475952,1.4331021308898926
14572.3610877563,0.951408326625824,1.0647480487823486,1.1712872982025146,1.4321305751800537
14572.36308781636,0.9518940448760986,1.0653955936431885,1.1712872982025146,1.4322925806045532
14572.36508787642,0.9502749443054199,1.0652337074279785,1.1711254119873047,1.4321305751800537
14572.367087936482,0.9502749443054199,1.0649099349975586,1.1714491844177246,1.4324544668197632
14572.369087996542,0.9507606625556946,1.0639383792877197,1.1724207401275635,1.4324544668197632
14572.371088056601,0.9507606625556946,1.0644241571426392,1.171934962272644,1.4316449165344238
14572.373088116663,0.9496272802352905,1.0649099349975586,1.1725826263427734,1.4316449165344238
14572.375088176723,0.9510844945907593,1.065557599067688,1.1724207401275635,1.4324544668197632
14572.377088236783,0.9515702128410339,1.065881371498108,1.172096848487854,1.4322925806045532
14572.379088296844,0.9518940448760986,1.0660432577133179,1.171934962272644,1.4321305751800537
14572.381088356904,0.9523798227310181,1.0660432577133179,1.1725826263427734,1.4329402446746826
14572.383088416966,0.9527036547660828,1.065719485282898,1.1735540628433228,1.432778239250183
14572.385088477025,0.9505987763404846,1.0644241571426392,1.1732302904129028,1.4326163530349731
14572.387088537085,0.9502749443054199,1.0639383792877197,1.1730684041976929,1.4318068027496338
14572.389088597147,0.9501129984855652,1.0642622709274292,1.1725826263427734,1.4318068027496338
14572.391088657207,0.9501129984855652,1.0642622709274292,1.1732302904129028,1.4314830303192139
14572.393088717266,0.9502749443054199,1.0652337074279785,1.1725826263427734,1.4322925806045532
14572.395088777328,0.9510844945907593,1.0653955936431885,1.171773076057434,1.4324544668197632
14572.397088837388,0.9509226083755493,1.065881371498108,1.1714491844177246,1.4311591386795044
14572.399088897448,0.9510844945907593,1.065557599067688,1.1722588539123535,1.4318068027496338
14572.40108895751,0.9520559906959534,1.0653955936431885,1.1722588539123535,1.4316449165344238
14572.403089017569,0.9522178769111633,1.065719485282898,1.1709635257720947,1.4318068027496338
14572.40508907763,0.9494653344154358,1.0665290355682373,1.1714491844177246,1.4319686889648438
14572.40708913769,0.9502749443054199,1.0660432577133179,1.171773076057434,1.4321305751800537
14572.40908919775,0.9499511122703552,1.065557599067688,1.1716111898422241,1.4319686889648438
14572.411089257812,0.9496272802352905,1.065557599067688,1.171773076057434,1.4308353662490845
14572.413089317872,0.9481700658798218,1.065881371498108,1.171773076057434,1.4314830303192139
14572.415089377932,0.9494653344154358,1.0662052631378174,1.172096848487854,1.4313210248947144
14572.417089437993,0.9484938979148865,1.0650718212127686,1.1703158617019653,1.4308353662490845
14572.419089498053,0.9484938979148865,1.0644241571426392,1.1704777479171753,1.430349588394165
14572.421089558113,0.9481700658798218,1.0653955936431885,1.1708015203475952,1.4308353662490845
14572.423089618174,0.9488176703453064,1.0652337074279785,1.1703158617019653,1.4309972524642944
14572.425089678234,0.9471985697746277,1.0652337074279785,1.1704777479171753,1.4308353662490845
14572.427089738296,0.947036623954773,1.0650718212127686,1.1699919700622559,1.430349588394165
14572.429089798356,0.9471985697746277,1.0641003847122192,1.1693443059921265,1.4293781518936157
14572.431089858415,0.947036623954773,1.0645860433578491,1.168696641921997,1.4293781518936157
14572.433089918477,0.9459032416343689,1.0645860433578491,1.1675633192062378,1.4290542602539062
14572.435089978537,0.9463890194892883,1.0641003847122192,1.1675633192062378,1.4284065961837769
14572.437090038598,0.9455794095993042,1.0629669427871704,1.1675633192062378,1.4284065961837769
14572.439090098658,0.9457413554191589,1.0636146068572998,1.1672394275665283,1.4277589321136475
14572.441090158718,0.9455794095993042,1.0637764930725098,1.1672394275665283,1.4285684823989868
14572.44309021878,0.9459032416343689,1.0637764930725098,1.1672394275665283,1.428244709968567
14572.44509027884,0.9442841410636902,1.0639383792877197,1.1667537689208984,1.426949381828308
14572.4470903389,0.9436364769935608,1.0642622709274292,1.1669156551361084,1.427273154258728
14572.44909039896,0.9436364769935608,1.0647480487823486,1.166106104850769,1.4277589321136475
14572.45109045902,0.9439603090286255,1.0639383792877197,1.166591763496399,1.4266256093978882
14572.45309051908,0.943474531173706,1.0629669427871704,1.166267991065979,1.4263017177581787
14572.455090579142,0.9442841410636902,1.0639383792877197,1.1657822132110596,1.4264636039733887
14572.457090639202,0.9439603090286255,1.0639383792877197,1.1659440994262695,1.427111268043518
14572.459090699263,0.9431506991386414,1.0636146068572998,1.1657822132110596,1.4263017177581787
14572.461090759323,0.9426649808883667,1.0636146068572998,1.1667537689208984,1.4264636039733887
14572.463090819383,0.9433126449584961,1.0642622709274292,1.1675633192062378,1.4266256093978882
14572.465090879445,0.9420173168182373,1.0639383792877197,1.1669156551361084,1.4264636039733887
14572.467090939504,0.9420173168182373,1.0631288290023804,1.166429877281189,1.4261398315429688
14572.469090999564,0.9413696527481079,1.0629669427871704,1.166106104850769,1.4256540536880493
14572.471091059626,0.9413696527481079,1.0634527206420898,1.1667537689208984,1.4251682758331299
14572.473091119686,0.9413696527481079,1.0637764930725098,1.166429877281189,1.42452073097229
14572.475091179746,0.942503035068512,1.0629669427871704,1.166267991065979,1.4251682758331299
14572.477091239807,0.9426649808883667,1.0628050565719604,1.166106104850769,1.42500638961792
14572.479091299867,0.9426649808883667,1.0639383792877197,1.166429877281189,1.4246826171875
14572.481091359929,0.9426649808883667,1.0644241571426392,1.1667537689208984,1.4253302812576294
14572.483091419988,0.9431506991386414,1.0650718212127686,1.1669156551361084,1.4251682758331299
14572.485091480048,0.9415315985679626,1.0644241571426392,1.1674014329910278,1.4246826171875
14572.48709154011,0.9413696527481079,1.0639383792877197,1.1674014329910278,1.42452073097229
14572.48909160017,0.942341148853302,1.0642622709274292,1.1674014329910278,1.4243587255477905
14572.491091660231,0.9408839344978333,1.0641003847122192,1.1675633192062378,1.4241968393325806
14572.493091720291,0.9397505521774292,1.0632907152175903,1.1670775413513184,1.4243587255477905
14572.49509178035,0.9415315985679626,1.0639383792877197,1.1674014329910278,1.4246826171875
14572.49709184041,0.9418554306030273,1.0642622709274292,1.1678870916366577,1.42452073097229
14572.499091900472,0.9428268671035767,1.0637764930725098,1.1675633192062378,1.4251682758331299
14572.501091960532,0.9431506991386414,1.0639383792877197,1.1678870916366577,1.42500638961792
14572.503092020594,0.9437983632087708,1.0647480487823486,1.1683728694915771,1.42500638961792
14572.505092080653,0.942503035068512,1.0649099349975586,1.168534755706787,1.4253302812576294
14572.507092140713,0.942341148853302,1.0644241571426392,1.1683728694915771,1.4258159399032593
14572.509092200775,0.9418554306030273,1.0641003847122192,1.1680489778518677,1.4259779453277588
14572.511092260835,0.9416934847831726,1.0642622709274292,1.1683728694915771,1.4251682758331299
14572.513092320896,0.9420173168182373,1.0636146068572998,1.1690205335617065,1.4259779453277588
14572.515092380956,0.9436364769935608,1.0647480487823486,1.169506311416626,1.426949381828308
14572.517092441016,0.9429888129234314,1.0650718212127686,1.169830083847046,1.4266256093978882
14572.519092501077,0.9431506991386414,1.0650718212127686,1.1709635257720947,1.4263017177581787
14572.521092561137,0.9442841410636902,1.0649099349975586,1.1716111898422241,1.4264636039733887
14572.523092621197,0.9447698593139648,1.065719485282898,1.171934962272644,1.4258159399032593
14572.525092681259,0.9429888129234314,1.065557599067688,1.1722588539123535,1.42484450340271
14572.527092741318,0.9429888129234314,1.065719485282898,1.1722588539123535,1.42500638961792
14572.529092801378,0.943474531173706,1.0653955936431885,1.1727445125579834,1.4259779453277588
14572.53109286144,0.9433126449584961,1.0650718212127686,1.1730684041976929,1.4263017177581787
14572.5330929215,0.942341148853302,1.0649099349975586,1.1727445125579834,1.4256540536880493
14572.535092981561,0.9444460272789001,1.0647480487823486,1.1730684041976929,1.4261398315429688
14572.537093041621,0.9447698593139648,1.0650718212127686,1.1730684041976929,1.4259779453277588
14572.539093101681,0.9433126449584961,1.0653955936431885,1.1725826263427734,1.4266256093978882
14572.541093161743,0.9439603090286255,1.0662052631378174,1.1733921766281128,1.4259779453277588
14572.543093221802,0.9447698593139648,1.0668529272079468,1.1733921766281128,1.4259779453277588
14572.545093281862,0.9437983632087708,1.0670148134231567,1.1732302904129028,1.4259779453277588
14572.547093341924,0.9439603090286255,1.0665290355682373,1.1743637323379517,1.4264636039733887
14572.549093401984,0.9442841410636902,1.0660432577133179,1.1743637323379517,1.4263017177581787
14572.551093462043,0.9437983632087708,1.065719485282898,1.1742017269134521,1.4254921674728394
14572.553093522105,0.9433126449584961,1.0660432577133179,1.1725826263427734,1.4266256093978882
14572.555093582165,0.9454175233840942,1.0663671493530273,1.1738779544830322,1.4267874956130981
14572.557093642226,0.9450936913490295,1.0660432577133179,1.1743637323379517,1.4266256093978882
14572.559093702286,0.9444460272789001,1.0668529272079468,1.1740398406982422,1.4254921674728394
14572.561093762346,0.9441221952438354,1.0671766996383667,1.1748493909835815,1.4254921674728394
14572.563093822408,0.9450936913490295,1.0668529272079468,1.1745256185531616,1.4251682758331299
14572.565093882467,0.9441221952438354,1.0665290355682373,1.175497055053711,1.4259779453277588
14572.567093942529,0.9439603090286255,1.0673385858535767,1.175335168838501,1.4258159399032593
14572.569094002589,0.9436364769935608,1.0676624774932861,1.1740398406982422,1.4258159399032593
14572.571094062649,0.9429888129234314,1.0670148134231567,1.1750112771987915,1.4256540536880493
14572.57309412271,0.942179262638092,1.0668529272079468,1.1750112771987915,1.4254921674728394
14572.57509418277,0.9437983632087708,1.0671766996383667,1.1750112771987915,1.42500638961792
14572.57709424283,0.9447698593139648,1.0675004720687866,1.1743637323379517,1.42484450340271
14572.579094302891,0.9447698593139648,1.067824363708496,1.175173282623291,1.42500638961792
14572.581094362951,0.9439603090286255,1.067986249923706,1.1758209466934204,1.4253302812576294
14572.583094423011,0.9439603090286255,1.067824363708496,1.1766304969787598,1.4253302812576294
14572.585094483073,0.9426649808883667,1.0673385858535767,1.175497055053711,1.4246826171875
14572.587094543132,0.943474531173706,1.0676624774932861,1.1745256185531616,1.42500638961792
14572.589094603194,0.9441221952438354,1.0673385858535767,1.1748493909835815,1.42500638961792
14572.591094663254,0.943474531173706,1.0668529272079468,1.1748493909835815,1.4243587255477905
14572.593094723314,0.9426649808883667,1.0670148134231567,1.175497055053711,1.4238730669021606
14572.595094783375,0.9442841410636902,1.0668529272079468,1.1746875047683716,1.4246826171875
14572.597094843435,0.9431506991386414,1.0666909217834473,1.1750112771987915,1.4246826171875
14572.599094903495,0.9428268671035767,1.0660432577133179,1.175497055053711,1.4246826171875
14572.601094963557,0.9429888129234314,1.0666909217834473,1.175335168838501,1.4253302812576294
14572.603095023616,0.9441221952438354,1.0673385858535767,1.1758209466934204,1.4259779453277588
14572.605095083676,0.9431506991386414,1.0670148134231567,1.1748493909835815,1.42500638961792
14572.607095143738,0.942503035068512,1.0668529272079468,1.1737160682678223,1.4237110614776611
14572.609095203798,0.942341148853302,1.0673385858535767,1.1732302904129028,1.4233872890472412
14572.61109526386,0.942179262638092,1.0671766996383667,1.1738779544830322,1.4238730669021606
14572.613095323919,0.9418554306030273,1.0670148134231567,1.1748493909835815,1.4246826171875
14572.615095383979,0.9437983632087708,1.0676624774932861,1.1742017269134521,1.42500638961792
14572.61709544404,0.9431506991386414,1.0671766996383667,1.1735540628433228,1.42452073097229
14572.6190955041,0.942341148853302,1.0671766996383667,1.1742017269134521,1.4241968393325806
14572.621095564162,0.942503035068512,1.067986249923706,1.1745256185531616,1.4243587255477905
14572.623095624222,0.9439603090286255,1.0675004720687866,1.1743637323379517,1.4240349531173706
14572.625095684281,0.942341148853302,1.067986249923706,1.1733921766281128,1.4238730669021606
14572.627095744341,0.942341148853302,1.0673385858535767,1.1737160682678223,1.4241968393325806
14572.629095804403,0.942341148853302,1.0676624774932861,1.1738779544830322,1.4237110614776611
14572.631095864463,0.9420173168182373,1.0676624774932861,1.1740398406982422,1.4241968393325806
14572.633095924524,0.9407219886779785,1.0670148134231567,1.1740398406982422,1.4246826171875
14572.635095984584,0.9413696527481079,1.0673385858535767,1.1730684041976929,1.4253302812576294
14572.637096044644,0.9413696527481079,1.0666909217834473,1.1742017269134521,1.4246826171875
14572.639096104705,0.942503035068512,1.0670148134231567,1.1738779544830322,1.4238730669021606
14572.641096164765,0.9433126449584961,1.0673385858535767,1.1730684041976929,1.42484450340271
14572.643096224827,0.9433126449584961,1.0673385858535767,1.1727445125579834,1.42452073097229
14572.645096284887,0.9413696527481079,1.0673385858535767,1.1733921766281128,1.4240349531173706
14572.647096344946,0.9416934847831726,1.0675004720687866,1.1738779544830322,1.4241968393325806
14572.649096405008,0.943474531173706,1.0675004720687866,1.1740398406982422,1.4241968393325806
14572.651096465068,0.9429888129234314,1.0671766996383667,1.1735540628433228,1.4241968393325806
14572.653096525128,0.942179262638092,1.0670148134231567,1.1732302904129028,1.4240349531173706
14572.65509658519,0.943474531173706,1.0673385858535767,1.1729063987731934,1.4243587255477905
14572.65709664525,0.942503035068512,1.0671766996383667,1.1729063987731934,1.4243587255477905
14572.659096705309,0.942341148853302,1.0666909217834473,1.1732302904129028,1.4240349531173706
14572.66109676537,0.9428268671035767,1.0670148134231567,1.1729063987731934,1.4241968393325806
14572.66309682543,0.9439603090286255,1.0666909217834473,1.1730684041976929,1.4241968393325806
14572.665096885492,0.942341148853302,1.0662052631378174,1.1724207401275635,1.4243587255477905
14572.667096945552,0.942503035068512,1.0670148134231567,1.1732302904129028,1.4240349531173706
14572.669097005612,0.9428268671035767,1.067824363708496,1.1733921766281128,1.4237110614776611
14572.671097065673,0.942503035068512,1.0675004720687866,1.1732302904129028,1.4229015111923218
14572.673097125733,0.9416934847831726,1.065881371498108,1.1729063987731934,1.4240349531173706
14572.675097185793,0.9433126449584961,1.065881371498108,1.1725826263427734,1.42484450340271
14572.677097245854,0.9428268671035767,1.0665290355682373,1.1725826263427734,1.42452073097229
14572.679097305914,0.943474531173706,1.0666909217834473,1.1738779544830322,1.4241968393325806
14572.681097365974,0.9436364769935608,1.0666909217834473,1.1733921766281128,1.4259779453277588
14572.683097426036,0.9444460272789001,1.0670148134231567,1.1732302904129028,1.4261398315429688
14572.685097486095,0.943474531173706,1.0670148134231567,1.1743637323379517,1.42500638961792
14572.687097546157,0.9433126449584961,1.0668529272079468,1.1738779544830322,1.4237110614776611
14572.689097606217,0.943474531173706,1.0665290355682373,1.1735540628433228,1.4235491752624512
14572.691097666277,0.943474531173706,1.0665290355682373,1.1738779544830322,1.4240349531173706
14572.693097726338,0.942179262638092,1.0660432577133179,1.1737160682678223,1.4233872890472412
14572.695097786398,0.9442841410636902,1.0666909217834473,1.1729063987731934,1.4240349531173706
14572.69709784646,0.9449317455291748,1.0668529272079468,1.1730684041976929,1.4241968393325806
14572.69909790652,0.9441221952438354,1.0670148134231567,1.1737160682678223,1.4241968393325806
14572.70109796658,0.9442841410636902,1.065557599067688,1.1737160682678223,1.4241968393325806
14572.70309802664,0.9452555775642395,1.065557599067688,1.1729063987731934,1.42500638961792
14572.7050980867,0.9431506991386414,1.0652337074279785,1.1730684041976929,1.4240349531173706
14572.70709814676,0.943474531173706,1.0650718212127686,1.1725826263427734,1.4240349531173706
14572.709098206822,0.9439603090286255,1.0645860433578491,1.1727445125579834,1.4246826171875
14572.711098266882,0.9442841410636902,1.0641003847122192,1.1729063987731934,1.4258159399032593
14572.713098326942,0.943474531173706,1.0642622709274292,1.1724207401275635,1.42484450340271
14572.715098387003,0.9444460272789001,1.0653955936431885,1.1724207401275635,1.4246826171875
14572.717098447063,0.9439603090286255,1.0652337074279785,1.1722588539123535,1.4238730669021606
14572.719098507125,0.9444460272789001,1.065881371498108,1.171934962272644,1.42452073097229
14572.721098567185,0.9450936913490295,1.0660432577133179,1.1722588539123535,1.42500638961792
14572.723098627244,0.9460651874542236,1.065881371498108,1.1725826263427734,1.4251682758331299
14572.725098687306,0.9449317455291748,1.065719485282898,1.1725826263427734,1.4246826171875
14572.727098747366,0.9444460272789001,1.0649099349975586,1.1722588539123535,1.42500638961792
14572.729098807426,0.9446079134941101,1.065719485282898,1.1730684041976929,1.4253302812576294
14572.731098867487,0.9444460272789001,1.0649099349975586,1.1735540628433228,1.4246826171875
14572.733098927547,0.9441221952438354,1.0644241571426392,1.1732302904129028,1.42500638961792
14572.735098987607,0.9462270736694336,1.0650718212127686,1.1733921766281128,1.42500638961792
14572.737099047668,0.9462270736694336,1.065557599067688,1.1733921766281128,1.4261398315429688
14572.739099107728,0.9457413554191589,1.0647480487823486,1.1732302904129028,1.4266256093978882
14572.74109916779,0.946874737739563,1.0644241571426392,1.1733921766281128,1.4263017177581787
14572.74309922785,0.9471985697746277,1.0647480487823486,1.1743637323379517,1.4263017177581787
14572.74509928791,0.9459032416343689,1.0642622709274292,1.1742017269134521,1.4256540536880493
14572.747099347971,0.9457413554191589,1.0645860433578491,1.1737160682678223,1.4253302812576294
14572.74909940803,0.9460651874542236,1.0650718212127686,1.1738779544830322,1.4254921674728394
14572.75109946809,0.946874737739563,1.0649099349975586,1.1743637323379517,1.4251682758331299
14572.753099528152,0.9455794095993042,1.0652337074279785,1.1743637323379517,1.4254921674728394
14572.755099588212,0.947036623954773,1.0653955936431885,1.1748493909835815,1.4261398315429688
14572.757099648272,0.9476842880249023,1.0647480487823486,1.1742017269134521,1.4258159399032593
14572.759099708333,0.9478462338447571,1.0645860433578491,1.1743637323379517,1.4263017177581787
14572.761099768393,0.9476842880249023,1.0644241571426392,1.1743637323379517,1.427111268043518
14572.763099828455,0.9478462338447571,1.0639383792877197,1.1737160682678223,1.427111268043518
14572.765099888515,0.9471985697746277,1.0636146068572998,1.1735540628433228,1.4266256093978882
14572.767099948574,0.9478462338447571,1.0642622709274292,1.1730684041976929,1.4263017177581787
14572.769100008636,0.9484938979148865,1.0645860433578491,1.1735540628433228,1.427111268043518
14572.771100068696,0.9476842880249023,1.0645860433578491,1.1743637323379517,1.4264636039733887
14572.773100128758,0.9467127919197083,1.0632907152175903,1.1742017269134521,1.4264636039733887
14572.775100188817,0.9481700658798218,1.0629669427871704,1.1745256185531616,1.426949381828308
14572.777100248877,0.9484938979148865,1.0629669427871704,1.1738779544830322,1.4258159399032593
14572.779100308939,0.948008120059967,1.0637764930725098,1.1738779544830322,1.4261398315429688
14572.781100368999,0.9497891664505005,1.0634527206420898,1.1746875047683716,1.4259779453277588
14572.783100429058,0.9499511122703552,1.0628050565719604,1.1740398406982422,1.4256540536880493
14572.78510048912,0.9476842880249023,1.0629669427871704,1.1745256185531616,1.4263017177581787
14572.78710054918,0.9471985697746277,1.062481164932251,1.1735540628433228,1.4266256093978882
14572.78910060924,0.9471985697746277,1.0616716146469116,1.1724207401275635,1.426949381828308
14572.791100669301,0.9473604559898376,1.062157392501831,1.1737160682678223,1.4267874956130981
14572.793100729361,0.9463890194892883,1.061995506286621,1.1737160682678223,1.4267874956130981
14572.795100789423,0.9486557841300964,1.0616716146469116,1.1730684041976929,1.426949381828308
14572.797100849482,0.9483319520950317,1.0618335008621216,1.1709635257720947,1.4267874956130981
14572.799100909542,0.9484938979148865,1.0616716146469116,1.171773076057434,1.4259779453277588
14572.801100969604,0.9483319520950317,1.0613478422164917,1.1724207401275635,1.4254921674728394
14572.803101029664,0.9494653344154358,1.0611858367919922,1.172096848487854,1.4251682758331299
14572.805101089723,0.9475224018096924,1.0611858367919922,1.1716111898422241,1.4254921674728394
14572.807101149785,0.9475224018096924,1.0602144002914429,1.171934962272644,1.4258159399032593
14572.809101209845,0.9475224018096924,1.060052514076233,1.171934962272644,1.4254921674728394
14572.811101269905,0.9475224018096924,1.059890627861023,1.1714491844177246,1.4254921674728394
14572.813101329966,0.9473604559898376,1.060052514076233,1.1711254119873047,1.42500638961792
14572.815101390026,0.9491415023803711,1.0602144002914429,1.1704777479171753,1.4256540536880493
14572.817101450088,0.9488176703453064,1.0605382919311523,1.1712872982025146,1.4258159399032593
14572.819101510147,0.9481700658798218,1.0615097284317017,1.1704777479171753,1.4261398315429688
14572.821101570207,0.9481700658798218,1.0613478422164917,1.1703158617019653,1.4253302812576294
14572.823101630269,0.9497891664505005,1.0615097284317017,1.1708015203475952,1.4251682758331299
14572.825101690329,0.9483319520950317,1.0616716146469116,1.1708015203475952,1.4258159399032593
14572.82710175039,0.9481700658798218,1.0615097284317017,1.1708015203475952,1.4261398315429688
14572.82910181045,0.9486557841300964,1.0616716146469116,1.1704777479171753,1.4264636039733887
14572.83110187051,0.9489796161651611,1.0611858367919922,1.1704777479171753,1.4259779453277588
14572.83310193057,0.9473604559898376,1.0607001781463623,1.1691824197769165,1.4251682758331299
14572.835101990631,0.9491415023803711,1.060052514076233,1.1703158617019653,1.4254921674728394
14572.837102050691,0.9494653344154358,1.0608620643615723,1.1701538562774658,1.4258159399032593
14572.839102110753,0.9483319520950317,1.0602144002914429,1.1690205335617065,1.4251682758331299
14572.841102170813,0.9476842880249023,1.0585952997207642,1.1688586473464966,1.4259779453277588
14572.843102230872,0.9481700658798218,1.0581095218658447,1.1690205335617065,1.4253302812576294
14572.845102290934,0.9476842880249023,1.0584334135055542,1.1693443059921265,1.4253302812576294
14572.847102350994,0.9473604559898376,1.0584334135055542,1.1688586473464966,1.4253302812576294
14572.849102411055,0.947036623954773,1.058919072151184,1.168696641921997,1.42500638961792
14572.851102471115,0.9467127919197083,1.0585952997207642,1.1688586473464966,1.4246826171875
14572.853102531175,0.9459032416343689,1.0587571859359741,1.1682109832763672,1.4251682758331299
14572.855102591237,0.9478462338447571,1.0585952997207642,1.1678870916366577,1.4258159399032593
14572.857102651296,0.9484938979148865,1.059080958366394,1.1680489778518677,1.4256540536880493
14572.859102711356,0.948008120059967,1.0602144002914429,1.169506311416626,1.4259779453277588
14572.861102771418,0.9489796161651611,1.060052514076233,1.1703158617019653,1.4259779453277588
14572.863102831478,0.9493034482002258,1.059890627861023,1.1703158617019653,1.4258159399032593
14572.865102891537,0.9481700658798218,1.0605382919311523,1.1693443059921265,1.4253302812576294
14572.867102951599,0.9486557841300964,1.0615097284317017,1.1701538562774658,1.4256540536880493
14572.869103011659,0.9488176703453064,1.0608620643615723,1.1693443059921265,1.4259779453277588
14572.87110307172,0.9496272802352905,1.0613478422164917,1.1699919700622559,1.4266256093978882
14572.87310313178,0.9486557841300964,1.0610239505767822,1.1701538562774658,1.4279208183288574
14572.87510319184,0.9493034482002258,1.0605382919311523,1.1712872982025146,1.4277589321136475
14572.877103251902,0.9499511122703552,1.0615097284317017,1.171934962272644,1.427273154258728
14572.879103311961,0.9491415023803711,1.0613478422164917,1.1724207401275635,1.4274351596832275
14572.881103372021,0.9501129984855652,1.0618335008621216,1.171773076057434,1.428082823753357
14572.883103432083,0.9505987763404846,1.0628050565719604,1.1714491844177246,1.4277589321136475
14572.885103492143,0.9491415023803711,1.0626431703567505,1.171934962272644,1.427111268043518
14572.887103552202,0.9488176703453064,1.062319278717041,1.172096848487854,1.4275970458984375
14572.889103612264,0.9491415023803711,1.0631288290023804,1.1722588539123535,1.4266256093978882
14572.891103672324,0.9494653344154358,1.0645860433578491,1.1733921766281128,1.4267874956130981
14572.893103732385,0.9484938979148865,1.0637764930725098,1.1724207401275635,1.427111268043518
14572.895103792445,0.9499511122703552,1.0634527206420898,1.1716111898422241,1.427273154258728
14572.897103852505,0.9493034482002258,1.0626431703567505,1.172096848487854,1.4267874956130981
14572.899103912567,0.9491415023803711,1.0631288290023804,1.1722588539123535,1.4267874956130981
14572.901103972627,0.9491415023803711,1.062481164932251,1.171934962272644,1.4277589321136475
14572.903104032688,0.9502749443054199,1.0629669427871704,1.172096848487854,1.4275970458984375
14572.905104092748,0.9476842880249023,1.0637764930725098,1.171934962272644,1.4259779453277588
14572.907104152808,0.9478462338447571,1.0644241571426392,1.171773076057434,1.4264636039733887
14572.90910421287,0.9481700658798218,1.0644241571426392,1.1714491844177246,1.427273154258728
14572.91110427293,0.9475224018096924,1.0644241571426392,1.1714491844177246,1.4275970458984375
14572.913104332989,0.947036623954773,1.0641003847122192,1.1714491844177246,1.4277589321136475
14572.91510439305,0.9484938979148865,1.0644241571426392,1.171773076057434,1.427273154258728
14572.91710445311,0.9476842880249023,1.0645860433578491,1.171773076057434,1.4267874956130981
14572.91910451317,0.9476842880249023,1.0645860433578491,1.1711254119873047,1.426949381828308
14572.921104573232,0.9483319520950317,1.065557599067688,1.171773076057434,1.4275970458984375
14572.923104633292,0.9494653344154358,1.065557599067688,1.171773076057434,1.4275970458984375
14572.925104693353,0.9475224018096924,1.0650718212127686,1.171934962272644,1.426949381828308
14572.927104753413,0.9475224018096924,1.0647480487823486,1.1714491844177246,1.4267874956130981
14572.929104813473,0.9473604559898376,1.0653955936431885,1.1712872982025146,1.4261398315429688
14572.931104873534,0.9475224018096924,1.0660432577133179,1.171934962272644,1.4266256093978882
14572.933104933594,0.9463890194892883,1.065557599067688,1.172096848487854,1.4275970458984375
14572.935104993654,0.948008120059967,1.065719485282898,1.1724207401275635,1.4285684823989868
14572.937105053716,0.9484938979148865,1.0663671493530273,1.1727445125579834,1.4284065961837769
14572.939105113775,0.9473604559898376,1.0663671493530273,1.172096848487854,1.4284065961837769
14572.941105173835,0.947036623954773,1.0665290355682373,1.171773076057434,1.4284065961837769
14572.943105233897,0.9476842880249023,1.0665290355682373,1.1724207401275635,1.4284065961837769
14572.945105293957,0.9463890194892883,1.0670148134231567,1.1724207401275635,1.4285684823989868
14572.947105354018,0.9460651874542236,1.0668529272079468,1.1724207401275635,1.4285684823989868
14572.949105414078,0.9465509057044983,1.0673385858535767,1.1722588539123535,1.428082823753357
14572.951105474138,0.9471985697746277,1.0675004720687866,1.1724207401275635,1.428082823753357
14572.9531055342,0.9463890194892883,1.0676624774932861,1.171934962272644,1.4285684823989868
14572.95510559426,0.9475224018096924,1.0670148134231567,1.1712872982025146,1.428082823753357
14572.957105654321,0.9467127919197083,1.0670148134231567,1.1716111898422241,1.4284065961837769
14572.95910571438,0.9475224018096924,1.0670148134231567,1.171934962272644,1.428244709968567
14572.96110577444,0.948008120059967,1.0671766996383667,1.172096848487854,1.428244709968567
14572.9631058345,0.948008120059967,1.0668529272079468,1.1724207401275635,1.428244709968567
14572.965105894562,0.9459032416343689,1.0670148134231567,1.1722588539123535,1.427273154258728
14572.967105954622,0.9454175233840942,1.0663671493530273,1.1724207401275635,1.4279208183288574
14572.969106014683,0.9459032416343689,1.0673385858535767,1.172096848487854,1.428244709968567
14572.971106074743,0.9450936913490295,1.0671766996383667,1.1722588539123535,1.426949381828308
14572.973106134803,0.9449317455291748,1.0671766996383667,1.172096848487854,1.4274351596832275
14572.975106194865,0.9463890194892883,1.0668529272079468,1.1716111898422241,1.4288923740386963
14572.977106254924,0.946874737739563,1.0671766996383667,1.172096848487854,1.4284065961837769
14572.979106314986,0.946874737739563,1.0673385858535767,1.1724207401275635,1.4287304878234863
14572.981106375046,0.9460651874542236,1.0673385858535767,1.1714491844177246,1.4290542602539062
14572.983106435106,0.9463890194892883,1.0668529272079468,1.1712872982025146,1.4290542602539062
14572.985106495167,0.9450936913490295,1.0671766996383667,1.1709635257720947,1.4287304878234863
14572.987106555227,0.9454175233840942,1.0670148134231567,1.1708015203475952,1.4287304878234863
14572.989106615287,0.9457413554191589,1.0673385858535767,1.1708015203475952,1.4285684823989868
14572.991106675348,0.9454175233840942,1.0666909217834473,1.1704777479171753,1.428082823753357
14572.993106735408,0.9447698593139648,1.0668529272079468,1.1701538562774658,1.4275970458984375
14572.995106795468,0.9457413554191589,1.0665290355682373,1.1706396341323853,1.4284065961837769
14572.99710685553,0.9454175233840942,1.0673385858535767,1.169668197631836,1.4274351596832275
14572.99910691559,0.9455794095993042,1.0675004720687866,1.169830083847046,1.4277589321136475
14573.001106975651,0.9459032416343689,1.0675004720687866,1.1703158617019653,1.4285684823989868
14573.00310703571,0.947036623954773,1.0668529272079468,1.1706396341323853,1.4285684823989868
14573.00510709577,0.9459032416343689,1.0663671493530273,1.1708015203475952,1.4279208183288574
14573.007107155832,0.9449317455291748,1.0662052631378174,1.1712872982025146,1.427273154258728
14573.009107215892,0.9457413554191589,1.0663671493530273,1.1716111898422241,1.4274351596832275
14573.011107275952,0.9452555775642395,1.0668529272079468,1.1712872982025146,1.4275970458984375
14573.013107336013,0.9444460272789001,1.0662052631378174,1.1706396341323853,1.4279208183288574
14573.015107396073,0.9454175233840942,1.065881371498108,1.1706396341323853,1.4279208183288574
14573.017107456133,0.9457413554191589,1.0662052631378174,1.1711254119873047,1.4285684823989868
14573.019107516195,0.9459032416343689,1.0666909217834473,1.1708015203475952,1.4284065961837769
14573.021107576255,0.947036623954773,1.0668529272079468,1.1703158617019653,1.4279208183288574
14573.023107636316,0.9473604559898376,1.0670148134231567,1.1711254119873047,1.428082823753357
14573.025107696376,0.9449317455291748,1.0673385858535767,1.1716111898422241,1.428244709968567
14573.027107756436,0.9450936913490295,1.067986249923706,1.1714491844177246,1.4287304878234863
14573.029107816497,0.9455794095993042,1.0683101415634155,1.1709635257720947,1.4284065961837769
14573.031107876557,0.9454175233840942,1.0683101415634155,1.1722588539123535,1.4275970458984375
14573.033107936619,0.9452555775642395,1.067986249923706,1.1716111898422241,1.428082823753357
14573.035107996679,0.9465509057044983,1.067986249923706,1.1725826263427734,1.4284065961837769
14573.037108056738,0.9463890194892883,1.0686339139938354,1.1714491844177246,1.4275970458984375
14573.0391081168,0.9463890194892883,1.067986249923706,1.1706396341323853,1.4277589321136475
14573.04110817686,0.9467127919197083,1.0673385858535767,1.1709635257720947,1.4274351596832275
14573.04310823692,0.9471985697746277,1.0665290355682373,1.1714491844177246,1.4264636039733887
14573.045108296981,0.9455794095993042,1.0653955936431885,1.172096848487854,1.427273154258728
14573.047108357041,0.9452555775642395,1.065881371498108,1.1716111898422241,1.428082823753357
14573.0491084171,0.9454175233840942,1.0663671493530273,1.171773076057434,1.428244709968567
14573.051108477162,0.9457413554191589,1.0666909217834473,1.171934962272644,1.427273154258728
14573.053108537222,0.9442841410636902,1.0662052631378174,1.1716111898422241,1.4266256093978882
14573.055108597284,0.9455794095993042,1.0666909217834473,1.1712872982025146,1.427111268043518
14573.057108657344,0.9457413554191589,1.0673385858535767,1.1711254119873047,1.4267874956130981
14573.059108717403,0.9454175233840942,1.0665290355682373,1.171773076057434,1.4259779453277588
14573.061108777465,0.9457413554191589,1.0666909217834473,1.1714491844177246,1.427111268043518
14573.063108837525,0.9450936913490295,1.0666909217834473,1.1716111898422241,1.428082823753357
14573.065108897585,0.9441221952438354,1.065881371498108,1.1706396341323853,1.4266256093978882
14573.067108957646,0.9454175233840942,1.065719485282898,1.1712872982025146,1.4256540536880493
14573.069109017706,0.9455794095993042,1.065719485282898,1.1711254119873047,1.4254921674728394
14573.071109077766,0.9450936913490295,1.065719485282898,1.1711254119873047,1.4264636039733887
14573.073109137827,0.9441221952438354,1.0652337074279785,1.1711254119873047,1.4266256093978882
14573.075109197887,0.9457413554191589,1.0650718212127686,1.1712872982025146,1.426949381828308
14573.077109257949,0.9455794095993042,1.0652337074279785,1.1712872982025146,1.4261398315429688
14573.079109318009,0.9449317455291748,1.0652337074279785,1.1714491844177246,1.4258159399032593
14573.081109378069,0.9444460272789001,1.0650718212127686,1.1711254119873047,1.42484450340271
14573.08310943813,0.9462270736694336,1.0650718212127686,1.1708015203475952,1.42500638961792
14573.08510949819,0.9446079134941101,1.0649099349975586,1.1712872982025146,1.4246826171875
14573.08710955825,0.9439603090286255,1.0652337074279785,1.1722588539123535,1.42452073097229
14573.089109618311,0.9436364769935608,1.0650718212127686,1.1712872982025146,1.4241968393325806
14573.091109678371,0.9439603090286255,1.0649099349975586,1.1704777479171753,1.4237110614776611
14573.093109738431,0.9437983632087708,1.0647480487823486,1.1712872982025146,1.4243587255477905
14573.095109798493,0.9455794095993042,1.0652337074279785,1.1716111898422241,1.42500638961792
14573.097109858552,0.9447698593139648,1.0660432577133179,1.1722588539123535,1.42484450340271
14573.099109918614,0.9446079134941101,1.065719485282898,1.172096848487854,1.4238730669021606
14573.101109978674,0.9447698593139648,1.0647480487823486,1.1714491844177246,1.4235491752624512
14573.103110038734,0.9449317455291748,1.0644241571426392,1.1716111898422241,1.4235491752624512
14573.105110098795,0.9444460272789001,1.0647480487823486,1.1711254119873047,1.4227396249771118
14573.107110158855,0.9442841410636902,1.0642622709274292,1.1706396341323853,1.4238730669021606
14573.109110218917,0.9444460272789001,1.0647480487823486,1.1706396341323853,1.4235491752624512
14573.111110278976,0.9442841410636902,1.0645860433578491,1.1716111898422241,1.4235491752624512
14573.113110339036,0.9433126449584961,1.0650718212127686,1.171773076057434,1.4230633974075317
14573.115110399098,0.9457413554191589,1.0649099349975586,1.1724207401275635,1.4237110614776611
14573.117110459158,0.9454175233840942,1.0644241571426392,1.1716111898422241,1.4238730669021606
14573.119110519217,0.9447698593139648,1.0644241571426392,1.171773076057434,1.4235491752624512
14573.121110579279,0.9454175233840942,1.065557599067688,1.1725826263427734,1.4230633974075317
14573.123110639339,0.9462270736694336,1.0653955936431885,1.1732302904129028,1.4230633974075317
14573.125110699399,0.9442841410636902,1.0647480487823486,1.1725826263427734,1.4220919609069824
14573.12711075946,0.9436364769935608,1.0650718212127686,1.1732302904129028,1.4232254028320312
14573.12911081952,0.9441221952438354,1.0653955936431885,1.1738779544830322,1.4243587255477905
14573.131110879582,0.9431506991386414,1.0653955936431885,1.1733921766281128,1.4233872890472412
14573.133110939641,0.943474531173706,1.065719485282898,1.1733921766281128,1.4233872890472412
14573.135110999701,0.9452555775642395,1.065719485282898,1.1742017269134521,1.4238730669021606
14573.137111059763,0.9459032416343689,1.065719485282898,1.1748493909835815,1.4235491752624512
14573.139111119823,0.9460651874542236,1.065557599067688,1.175173282623291,1.4235491752624512
14573.141111179883,0.9460651874542236,1.0662052631378174,1.1750112771987915,1.4233872890472412
14573.143111239944,0.9473604559898376,1.065719485282898,1.1750112771987915,1.4237110614776611
14573.145111300004,0.9455794095993042,1.065881371498108,1.175497055053711,1.4235491752624512
14573.147111360064,0.9454175233840942,1.0662052631378174,1.1759828329086304,1.4235491752624512
14573.149111420125,0.9454175233840942,1.0662052631378174,1.1763066053390503,1.4232254028320312
14573.151111480185,0.9446079134941101,1.0663671493530273,1.1763066053390503,1.4225777387619019
14573.153111540247,0.9436364769935608,1.0663671493530273,1.1763066053390503,1.4232254028320312
14573.155111600307,0.9457413554191589,1.0666909217834473,1.1763066053390503,1.4235491752624512
14573.157111660366,0.9452555775642395,1.0668529272079468,1.175658941268921,1.4233872890472412
14573.159111720428,0.9460651874542236,1.0666909217834473,1.175497055053711,1.4237110614776611
14573.161111780488,0.946874737739563,1.0663671493530273,1.1758209466934204,1.4241968393325806
14573.16311184055,0.9475224018096924,1.0673385858535767,1.1761447191238403,1.4233872890472412
14573.16511190061,0.9460651874542236,1.0665290355682373,1.1758209466934204,1.4233872890472412
14573.167111960669,0.9460651874542236,1.0665290355682373,1.1759828329086304,1.4233872890472412
14573.169112020729,0.9459032416343689,1.0666909217834473,1.1763066053390503,1.4230633974075317
14573.17111208079,0.9455794095993042,1.0670148134231567,1.1764686107635498,1.4229015111923218
14573.17311214085,0.9449317455291748,1.0663671493530273,1.1764686107635498,1.4230633974075317
14573.175112200912,0.947036623954773,1.0670148134231567,1.1769542694091797,1.4227396249771118
14573.177112260972,0.9462270736694336,1.0668529272079468,1.1767923831939697,1.4230633974075317
14573.179112321031,0.9457413554191589,1.0675004720687866,1.1767923831939697,1.4241968393325806
14573.181112381093,0.9467127919197083,1.0675004720687866,1.1769542694091797,1.4240349531173706
14573.183112441153,0.9484938979148865,1.0668529272079468,1.1771161556243896,1.4233872890472412
14573.185112501214,0.9462270736694336,1.0671766996383667,1.1766304969787598,1.4235491752624512
14573.187112561274,0.9460651874542236,1.0663671493530273,1.1759828329086304,1.4233872890472412
14573.189112621334,0.9462270736694336,1.0670148134231567,1.1771161556243896,1.4235491752624512
14573.191112681396,0.9459032416343689,1.0670148134231567,1.1780877113342285,1.4229015111923218
14573.193112741455,0.9452555775642395,1.0668529272079468,1.1774400472640991,1.4222538471221924
14573.195112801515,0.9459032416343689,1.0673385858535767,1.1774400472640991,1.4219300746917725
14573.197112861577,0.947036623954773,1.0665290355682373,1.1771161556243896,1.4219300746917725
14573.199112921637,0.9467127919197083,1.0665290355682373,1.1782495975494385,1.421444296836853
14573.201112981696,0.9463890194892883,1.0668529272079468,1.1780877113342285,1.4225777387619019
14573.203113041758,0.9462270736694336,1.0666909217834473,1.177763819694519,1.422415852546692
14573.205113101818,0.9455794095993042,1.0665290355682373,1.177763819694519,1.421606183052063
14573.20711316188,0.9457413554191589,1.065881371498108,1.1779258251190186,1.4220919609069824
14573.20911322194,0.9462270736694336,1.0663671493530273,1.1780877113342285,1.4217681884765625
14573.211113282,0.9459032416343689,1.0665290355682373,1.1779258251190186,1.4217681884765625
14573.21311334206,0.9449317455291748,1.0666909217834473,1.1784114837646484,1.4219300746917725
14573.21511340212,0.947036623954773,1.0665290355682373,1.178573489189148,1.4232254028320312
14573.21711346218,0.9473604559898376,1.0673385858535767,1.1795449256896973,1.4230633974075317
14573.219113522242,0.946874737739563,1.0670148134231567,1.1798686981201172,1.4220919609069824
14573.221113582302,0.9475224018096924,1.0675004720687866,1.1792210340499878,1.4219300746917725
14573.223113642362,0.9478462338447571,1.0670148134231567,1.1795449256896973,1.4220919609069824
14573.225113702423,0.9459032416343689,1.0668529272079468,1.1797068119049072,1.4222538471221924
14573.227113762483,0.9457413554191589,1.0676624774932861,1.1800307035446167,1.4219300746917725
14573.229113822545,0.9454175233840942,1.0675004720687866,1.181002140045166,1.421444296836853
14573.231113882604,0.9457413554191589,1.0670148134231567,1.180678367614746,1.421444296836853
14573.233113942664,0.9457413554191589,1.0663671493530273,1.1800307035446167,1.4217681884765625
14573.235114002726,0.9478462338447571,1.0665290355682373,1.1800307035446167,1.422415852546692
14573.237114062786,0.9475224018096924,1.065881371498108,1.181002140045166,1.4217681884765625
14573.239114122847,0.9467127919197083,1.0668529272079468,1.180840253829956,1.421606183052063
14573.241114182907,0.9475224018096924,1.0666909217834473,1.181164026260376,1.4217681884765625
14573.243114242967,0.9484938979148865,1.0666909217834473,1.1803544759750366,1.4217681884765625
14573.245114303028,0.9467127919197083,1.0670148134231567,1.180840253829956,1.4219300746917725
14573.247114363088,0.9460651874542236,1.0662052631378174,1.1803544759750366,1.421606183052063
14573.249114423148,0.9467127919197083,1.0662052631378174,1.180678367614746,1.4209585189819336
14573.25111448321,0.9459032416343689,1.0670148134231567,1.181002140045166,1.421282410621643
14573.25311454327,0.9444460272789001,1.0663671493530273,1.181164026260376,1.4209585189819336
14573.25511460333,0.947036623954773,1.0666909217834473,1.180678367614746,1.4220919609069824
14573.25711466339,0.9478462338447571,1.0670148134231567,1.181164026260376,1.4219300746917725
14573.25911472345,0.9476842880249023,1.0665290355682373,1.181002140045166,1.4204728603363037
14573.261114783512,0.9473604559898376,1.0665290355682373,1.1805163621902466,1.4207966327667236
14573.263114843572,0.9484938979148865,1.0666909217834473,1.1803544759750366,1.421282410621643
14573.265114903632,0.946874737739563,1.0666909217834473,1.1800307035446167,1.421606183052063
14573.267114963694,0.9462270736694336,1.0676624774932861,1.1797068119049072,1.421444296836853
14573.269115023753,0.9455794095993042,1.0670148134231567,1.1793830394744873,1.421282410621643
14573.271115083813,0.9454175233840942,1.0670148134231567,1.1793830394744873,1.4209585189819336
14573.273115143875,0.9454175233840942,1.0665290355682373,1.1793830394744873,1.4207966327667236
14573.275115203935,0.9473604559898376,1.0673385858535767,1.1790591478347778,1.4203108549118042
14573.277115263994,0.9473604559898376,1.0668529272079468,1.1790591478347778,1.4206347465515137
14573.279115324056,0.9465509057044983,1.0663671493530273,1.1795449256896973,1.421282410621643
14573.281115384116,0.9473604559898376,1.0663671493530273,1.1790591478347778,1.4217681884765625
14573.283115444177,0.9481700658798218,1.0670148134231567,1.178735375404358,1.4219300746917725
14573.285115504237,0.9473604559898376,1.0666909217834473,1.1790591478347778,1.4207966327667236
14573.287115564297,0.9467127919197083,1.065719485282898,1.1793830394744873,1.4198251962661743
14573.289115624359,0.9463890194892883,1.065557599067688,1.1790591478347778,1.4203108549118042
14573.291115684418,0.946874737739563,1.0662052631378174,1.1793830394744873,1.4201489686965942
14573.29311574448,0.947036623954773,1.0653955936431885,1.1797068119049072,1.4198251962661743
14573.29511580454,0.9478462338447571,1.0652337074279785,1.1805163621902466,1.4198251962661743
14573.2971158646,0.9471985697746277,1.065557599067688,1.1795449256896973,1.4193394184112549
14573.29911592466,0.9471985697746277,1.0653955936431885,1.178735375404358,1.4193394184112549
14573.301115984721,0.9471985697746277,1.0652337074279785,1.1792210340499878,1.4199870824813843
14573.30311604478,0.9475224018096924,1.0647480487823486,1.1800307035446167,1.4201489686965942
14573.305116104842,0.9459032416343689,1.0649099349975586,1.1801925897598267,1.4198251962661743
14573.307116164902,0.9455794095993042,1.065719485282898,1.1792210340499878,1.4198251962661743
14573.309116224962,0.9465509057044983,1.0653955936431885,1.1792210340499878,1.4195013046264648
14573.311116285024,0.946874737739563,1.065881371498108,1.1798686981201172,1.4193394184112549
14573.313116345083,0.9462270736694336,1.0653955936431885,1.1798686981201172,1.4193394184112549
14573.315116405145,0.9475224018096924,1.065557599067688,1.180840253829956,1.4204728603363037
14573.317116465205,0.9473604559898376,1.0649099349975586,1.1797068119049072,1.4199870824813843
14573.319116525265,0.9467127919197083,1.0662052631378174,1.178735375404358,1.4203108549118042
14573.321116585326,0.946874737739563,1.065881371498108,1.1788972616195679,1.4199870824813843
14573.323116645386,0.9478462338447571,1.0653955936431885,1.1793830394744873,1.4199870824813843
14573.325116705446,0.9465509057044983,1.0650718212127686,1.1798686981201172,1.4196633100509644
14573.327116765508,0.9463890194892883,1.0647480487823486,1.1800307035446167,1.4201489686965942
14573.329116825567,0.9473604559898376,1.065557599067688,1.1803544759750366,1.4198251962661743
14573.331116885627,0.9467127919197083,1.0652337074279785,1.1801925897598267,1.4198251962661743
14573.333116945689,0.9462270736694336,1.065557599067688,1.1800307035446167,1.4217681884765625
14573.335117005749,0.9476842880249023,1.0650718212127686,1.1798686981201172,1.4217681884765625
14573.33711706581,0.9484938979148865,1.0650718212127686,1.1801925897598267,1.4207966327667236
14573.33911712587,0.9476842880249023,1.0653955936431885,1.1795449256896973,1.4206347465515137
14573.34111718593,0.9476842880249023,1.065719485282898,1.1795449256896973,1.421120524406433
14573.343117245991,0.9476842880249023,1.065557599067688,1.1803544759750366,1.4209585189819336
14573.345117306051,0.9462270736694336,1.0649099349975586,1.1800307035446167,1.4207966327667236
14573.347117366111,0.9465509057044983,1.0653955936431885,1.1795449256896973,1.4199870824813843
14573.349117426173,0.946874737739563,1.0650718212127686,1.1795449256896973,1.4206347465515137
14573.351117486232,0.946874737739563,1.0644241571426392,1.1805163621902466,1.421120524406433
14573.353117546292,0.9471985697746277,1.0644241571426392,1.1795449256896973,1.421282410621643
14573.355117606354,0.9488176703453064,1.0642622709274292,1.1790591478347778,1.4206347465515137
14573.357117666414,0.9484938979148865,1.0650718212127686,1.1788972616195679,1.4198251962661743
14573.359117726475,0.9484938979148865,1.0649099349975586,1.1800307035446167,1.4217681884765625
14573.361117786535,0.9478462338447571,1.065557599067688,1.1805163621902466,1.421120524406433
14573.363117846595,0.9484938979148865,1.0653955936431885,1.180678367614746,1.4206347465515137
14573.365117906656,0.9478462338447571,1.0647480487823486,1.1795449256896973,1.4198251962661743
14573.367117966716,0.9471985697746277,1.0637764930725098,1.1790591478347778,1.4207966327667236
14573.369118026778,0.946874737739563,1.0639383792877197,1.1795449256896973,1.4204728603363037
14573.371118086838,0.9465509057044983,1.0647480487823486,1.1797068119049072,1.419015645980835
14573.373118146897,0.9467127919197083,1.0647480487823486,1.1790591478347778,1.4195013046264648
14573.375118206959,0.9475224018096924,1.0647480487823486,1.178573489189148,1.4196633100509644
14573.377118267019,0.9476842880249023,1.0649099349975586,1.178573489189148,1.4201489686965942
14573.379118327079,0.9473604559898376,1.0647480487823486,1.1790591478347778,1.4198251962661743
14573.38111838714,0.948008120059967,1.0641003847122192,1.178735375404358,1.4198251962661743
14573.3831184472,0.9483319520950317,1.0641003847122192,1.1780877113342285,1.4201489686965942
14573.38511850726,0.9465509057044983,1.0645860433578491,1.178573489189148,1.4199870824813843
14573.387118567322,0.9475224018096924,1.0647480487823486,1.1784114837646484,1.4196633100509644
14573.389118627381,0.9476842880249023,1.0649099349975586,1.1790591478347778,1.4199870824813843
14573.391118687443,0.9478462338447571,1.0644241571426392,1.1790591478347778,1.4203108549118042
14573.393118747503,0.9476842880249023,1.0639383792877197,1.178573489189148,1.4201489686965942
14573.395118807563,0.9489796161651611,1.0645860433578491,1.178735375404358,1.4201489686965942
14573.397118867624,0.9476842880249023,1.0639383792877197,1.1782495975494385,1.4195013046264648
14573.399118927684,0.946874737739563,1.0632907152175903,1.1788972616195679,1.4206347465515137
14573.401118987744,0.947036623954773,1.0631288290023804,1.1790591478347778,1.4203108549118042
14573.403119047805,0.9481700658798218,1.0647480487823486,1.178573489189148,1.4188536405563354
14573.405119107865,0.947036623954773,1.0644241571426392,1.1784114837646484,1.4188536405563354
14573.407119167925,0.9471985697746277,1.0652337074279785,1.1790591478347778,1.4196633100509644
14573.409119227987,0.9471985697746277,1.065719485282898,1.1792210340499878,1.419177532196045
14573.411119288046,0.9473604559898376,1.0647480487823486,1.1795449256896973,1.419177532196045
14573.413119348108,0.9465509057044983,1.0644241571426392,1.1782495975494385,1.4193394184112549
14573.415119408168,0.9486557841300964,1.0645860433578491,1.1771161556243896,1.4199870824813843
14573.417119468228,0.948008120059967,1.0642622709274292,1.177601933479309,1.4203108549118042
14573.41911952829,0.9476842880249023,1.0639383792877197,1.177763819694519,1.4198251962661743
14573.421119588349,0.9476842880249023,1.0636146068572998,1.1784114837646484,1.4199870824813843
14573.423119648409,0.9481700658798218,1.0636146068572998,1.178735375404358,1.4203108549118042
14573.42511970847,0.9465509057044983,1.0637764930725098,1.178573489189148,1.419177532196045
14573.42711976853,0.9465509057044983,1.0639383792877197,1.1780877113342285,1.4198251962661743
14573.42911982859,0.9465509057044983,1.0637764930725098,1.1788972616195679,1.4204728603363037
14573.431119888652,0.9462270736694336,1.0642622709274292,1.1782495975494385,1.4195013046264648
14573.433119948711,0.9465509057044983,1.0645860433578491,1.1780877113342285,1.4193394184112549
14573.435120008773,0.9483319520950317,1.0647480487823486,1.1780877113342285,1.4201489686965942
14573.437120068833,0.9476842880249023,1.0647480487823486,1.1782495975494385,1.4201489686965942
14573.439120128893,0.946874737739563,1.0645860433578491,1.1790591478347778,1.4204728603363037
14573.441120188954,0.9481700658798218,1.0644241571426392,1.1788972616195679,1.4207966327667236
14573.443120249014,0.9481700658798218,1.0644241571426392,1.1790591478347778,1.4206347465515137
14573.445120309076,0.9463890194892883,1.0634527206420898,1.1780877113342285,1.4201489686965942
14573.447120369136,0.9462270736694336,1.0636146068572998,1.177763819694519,1.4196633100509644
14573.449120429195,0.946874737739563,1.0639383792877197,1.178573489189148,1.4203108549118042
14573.451120489257,0.9467127919197083,1.0642622709274292,1.178573489189148,1.4196633100509644
14573.453120549317,0.9459032416343689,1.0650718212127686,1.177763819694519,1.4195013046264648
14573.455120609377,0.948008120059967,1.0649099349975586,1.1772781610488892,1.4193394184112549
14573.457120669438,0.9483319520950317,1.0645860433578491,1.177763819694519,1.4198251962661743
14573.459120729498,0.9484938979148865,1.0650718212127686,1.1780877113342285,1.4206347465515137
14573.461120789558,0.9488176703453064,1.0642622709274292,1.177763819694519,1.4206347465515137
14573.46312084962,0.9491415023803711,1.0644241571426392,1.178735375404358,1.4206347465515137
14573.46512090968,0.9471985697746277,1.0647480487823486,1.1790591478347778,1.4207966327667236
14573.46712096974,0.9471985697746277,1.0649099349975586,1.1793830394744873,1.4206347465515137
14573.4691210298,0.9476842880249023,1.0644241571426392,1.178573489189148,1.4209585189819336
14573.47112108986,0.9475224018096924,1.0644241571426392,1.178573489189148,1.4201489686965942
14573.473121149922,0.9467127919197083,1.0645860433578491,1.178573489189148,1.4201489686965942
14573.475121209982,0.9476842880249023,1.0645860433578491,1.177763819694519,1.4201489686965942
14573.477121270042,0.9476842880249023,1.0653955936431885,1.1771161556243896,1.421120524406433
14573.479121330103,0.9483319520950317,1.0642622709274292,1.1784114837646484,1.4201489686965942
14573.481121390163,0.9478462338447571,1.0647480487823486,1.1782495975494385,1.421120524406433
14573.483121450223,0.9484938979148865,1.0641003847122192,1.178735375404358,1.4206347465515137
14573.485121510284,0.9465509057044983,1.0641003847122192,1.1782495975494385,1.4206347465515137
14573.487121570344,0.9463890194892883,1.0641003847122192,1.1780877113342285,1.4204728603363037
14573.489121630406,0.9467127919197083,1.0647480487823486,1.1780877113342285,1.421120524406433
14573.491121690466,0.9462270736694336,1.0653955936431885,1.1782495975494385,1.4201489686965942
14573.493121750525,0.9465509057044983,1.0650718212127686,1.1774400472640991,1.4199870824813843
14573.495121810587,0.9493034482002258,1.0647480487823486,1.177763819694519,1.4203108549118042
14573.497121870647,0.9484938979148865,1.0644241571426392,1.177601933479309,1.4204728603363037
14573.499121930708,0.948008120059967,1.0642622709274292,1.177601933479309,1.421120524406433
14573.501121990768,0.9481700658798218,1.0639383792877197,1.1771161556243896,1.421282410621643
14573.503122050828,0.9484938979148865,1.0636146068572998,1.1771161556243896,1.4209585189819336
14573.50512211089,0.946874737739563,1.0637764930725098,1.177601933479309,1.4209585189819336
14573.50712217095,0.948008120059967,1.0644241571426392,1.1779258251190186,1.4203108549118042
14573.50912223101,0.9481700658798218,1.0653955936431885,1.1782495975494385,1.4204728603363037
14573.511122291071,0.948008120059967,1.0660432577133179,1.1784114837646484,1.4209585189819336
14573.51312235113,0.9475224018096924,1.065719485282898,1.178573489189148,1.4207966327667236
14573.51512241119,0.9486557841300964,1.065557599067688,1.1782495975494385,1.4222538471221924
14573.517122471252,0.948008120059967,1.0645860433578491,1.1782495975494385,1.4227396249771118
14573.519122531312,0.9476842880249023,1.0650718212127686,1.178735375404358,1.422415852546692
14573.521122591374,0.948008120059967,1.0647480487823486,1.1774400472640991,1.421444296836853
14573.523122651433,0.9489796161651611,1.0652337074279785,1.1769542694091797,1.4207966327667236
14573.525122711493,0.9471985697746277,1.0645860433578491,1.1779258251190186,1.421444296836853
14573.527122771555,0.9476842880249023,1.0645860433578491,1.1780877113342285,1.4219300746917725
14573.529122831615,0.9484938979148865,1.0649099349975586,1.177763819694519,1.4225777387619019
14573.531122891674,0.9486557841300964,1.0653955936431885,1.1779258251190186,1.421606183052063
14573.533122951736,0.9476842880249023,1.0653955936431885,1.1780877113342285,1.421606183052063
14573.535123011796,0.948008120059967,1.0650718212127686,1.1774400472640991,1.421606183052063
14573.537123071856,0.9478462338447571,1.0653955936431885,1.1772781610488892,1.4217681884765625
14573.539123131917,0.9486557841300964,1.0652337074279785,1.1769542694091797,1.4222538471221924
14573.541123191977,0.9491415023803711,1.0649099349975586,1.1779258251190186,1.4229015111923218
14573.543123252039,0.9505987763404846,1.0645860433578491,1.1779258251190186,1.4229015111923218
14573.545123312098,0.9491415023803711,1.0650718212127686,1.177601933479309,1.4222538471221924
14573.547123372158,0.9481700658798218,1.0649099349975586,1.1774400472640991,1.4217681884765625
14573.54912343222,0.9486557841300964,1.0653955936431885,1.177601933479309,1.4222538471221924
14573.55112349228,0.9486557841300964,1.0652337074279785,1.1772781610488892,1.4220919609069824
14573.55312355234,0.9481700658798218,1.0644241571426392,1.177601933479309,1.4232254028320312
14573.555123612401,0.9496272802352905,1.0645860433578491,1.1784114837646484,1.4230633974075317
14573.55712367246,0.9499511122703552,1.0645860433578491,1.1782495975494385,1.422415852546692
14573.55912373252,0.9499511122703552,1.0642622709274292,1.1780877113342285,1.4219300746917725
14573.561123792582,0.9494653344154358,1.0652337074279785,1.177763819694519,1.4220919609069824
14573.563123852642,0.9494653344154358,1.0650718212127686,1.1767923831939697,1.4229015111923218
14573.565123912704,0.9484938979148865,1.0650718212127686,1.177763819694519,1.4227396249771118
14573.567123972764,0.9491415023803711,1.0644241571426392,1.1792210340499878,1.4243587255477905
14573.569124032823,0.9493034482002258,1.0647480487823486,1.1782495975494385,1.4240349531173706
14573.571124092885,0.9483319520950317,1.0647480487823486,1.1771161556243896,1.4222538471221924
14573.573124152945,0.9478462338447571,1.0649099349975586,1.1763066053390503,1.4217681884765625
14573.575124213006,0.9499511122703552,1.0644241571426392,1.1772781610488892,1.4220919609069824
14573.577124273066,0.9499511122703552,1.0645860433578491,1.1779258251190186,1.4232254028320312
14573.579124333126,0.9502749443054199,1.0660432577133179,1.1772781610488892,1.4240349531173706
14573.581124393188,0.9496272802352905,1.0662052631378174,1.1763066053390503,1.4232254028320312
14573.583124453247,0.9504368305206299,1.0670148134231567,1.177601933479309,1.4238730669021606
14573.585124513307,0.9491415023803711,1.0660432577133179,1.177763819694519,1.4233872890472412
14573.587124573369,0.9499511122703552,1.065557599067688,1.1769542694091797,1.4229015111923218
14573.589124633429,0.9496272802352905,1.0653955936431885,1.1771161556243896,1.4227396249771118
14573.591124693488,0.9491415023803711,1.0647480487823486,1.178573489189148,1.4220919609069824
14573.59312475355,0.948008120059967,1.0647480487823486,1.178735375404358,1.4230633974075317
14573.59512481361,0.9497891664505005,1.0649099349975586,1.1780877113342285,1.4237110614776611
14573.597124873671,0.9504368305206299,1.0645860433578491,1.1772781610488892,1.4243587255477905
14573.599124933731,0.9496272802352905,1.065881371498108,1.1771161556243896,1.4227396249771118
14573.601124993791,0.9501129984855652,1.0662052631378174,1.1771161556243896,1.4229015111923218
14573.603125053853,0.9502749443054199,1.0653955936431885,1.1767923831939697,1.4233872890472412
14573.605125113912,0.9489796161651611,1.0650718212127686,1.1771161556243896,1.4230633974075317
14573.607125173972,0.9491415023803711,1.0645860433578491,1.1771161556243896,1.4235491752624512
14573.609125234034,0.9489796161651611,1.0647480487823486,1.1772781610488892,1.4240349531173706
14573.611125294094,0.9484938979148865,1.0650718212127686,1.1769542694091797,1.4235491752624512
14573.613125354153,0.9483319520950317,1.0653955936431885,1.1763066053390503,1.4230633974075317
14573.615125414215,0.9502749443054199,1.0653955936431885,1.1766304969787598,1.4238730669021606
14573.617125474275,0.9505987763404846,1.0644241571426392,1.1769542694091797,1.4235491752624512
14573.619125534336,0.9509226083755493,1.0641003847122192,1.1767923831939697,1.4235491752624512
14573.621125594396,0.9502749443054199,1.0644241571426392,1.1766304969787598,1.4232254028320312
14573.623125654456,0.9504368305206299,1.0647480487823486,1.1772781610488892,1.4225777387619019
14573.625125714518,0.9483319520950317,1.0644241571426392,1.1764686107635498,1.4227396249771118
14573.627125774578,0.9486557841300964,1.0644241571426392,1.1764686107635498,1.4225777387619019
14573.62912583464,0.9491415023803711,1.0639383792877197,1.1764686107635498,1.4225777387619019
14573.631125894699,0.9489796161651611,1.0644241571426392,1.1759828329086304,1.4227396249771118
14573.633125954759,0.9484938979148865,1.0639383792877197,1.1769542694091797,1.4233872890472412
14573.635126014819,0.9502749443054199,1.0641003847122192,1.1771161556243896,1.4235491752624512
14573.63712607488,0.9493034482002258,1.0636146068572998,1.1764686107635498,1.4225777387619019
14573.63912613494,0.9499511122703552,1.0644241571426392,1.1761447191238403,1.4225777387619019
14573.641126195002,0.9509226083755493,1.0639383792877197,1.1766304969787598,1.4225777387619019
14573.643126255061,0.9504368305206299,1.0642622709274292,1.1764686107635498,1.4225777387619019
14573.645126315121,0.9484938979148865,1.0637764930725098,1.1761447191238403,1.4230633974075317
14573.647126375183,0.9486557841300964,1.0634527206420898,1.1761447191238403,1.4219300746917725
14573.649126435243,0.9491415023803711,1.0639383792877197,1.1759828329086304,1.4222538471221924
14573.651126495304,0.9478462338447571,1.0639383792877197,1.1766304969787598,1.4220919609069824
14573.653126555364,0.948008120059967,1.0639383792877197,1.1766304969787598,1.4225777387619019
14573.655126615424,0.9505987763404846,1.0637764930725098,1.175335168838501,1.4229015111923218
14573.657126675485,0.9494653344154358,1.0641003847122192,1.1764686107635498,1.4219300746917725
14573.659126735545,0.9491415023803711,1.0647480487823486,1.175658941268921,1.4222538471221924
14573.661126795605,0.9497891664505005,1.0644241571426392,1.1764686107635498,1.4230633974075317
14573.663126855667,0.9507606625556946,1.0642622709274292,1.1771161556243896,1.4232254028320312
14573.665126915726,0.9493034482002258,1.0637764930725098,1.1769542694091797,1.4233872890472412
14573.667126975786,0.9489796161651611,1.0632907152175903,1.1764686107635498,1.4227396249771118
14573.669127035848,0.9497891664505005,1.0631288290023804,1.175658941268921,1.4222538471221924
14573.671127095908,0.9493034482002258,1.0631288290023804,1.1763066053390503,1.4217681884765625
14573.67312715597,0.9484938979148865,1.0632907152175903,1.1764686107635498,1.4219300746917725
14573.675127216029,0.9504368305206299,1.0639383792877197,1.1759828329086304,1.4220919609069824
14573.677127276089,0.9501129984855652,1.0649099349975586,1.1766304969787598,1.4219300746917725
14573.67912733615,0.9496272802352905,1.0650718212127686,1.1767923831939697,1.4225777387619019
14573.68112739621,0.9497891664505005,1.0637764930725098,1.1761447191238403,1.4219300746917725
14573.68312745627,0.9499511122703552,1.062319278717041,1.1764686107635498,1.4220919609069824
14573.685127516332,0.9484938979148865,1.061995506286621,1.1763066053390503,1.4217681884765625
14573.687127576392,0.9493034482002258,1.0632907152175903,1.1766304969787598,1.421282410621643
14573.689127636451,0.9496272802352905,1.0639383792877197,1.1767923831939697,1.4217681884765625
14573.691127696513,0.9494653344154358,1.0637764930725098,1.1766304969787598,1.421444296836853
14573.693127756573,0.9486557841300964,1.062157392501831,1.1766304969787598,1.4220919609069824
14573.695127816634,0.9496272802352905,1.062157392501831,1.1761447191238403,1.4219300746917725
14573.697127876694,0.9499511122703552,1.0631288290023804,1.177763819694519,1.4220919609069824
14573.699127936754,0.9501129984855652,1.0629669427871704,1.1774400472640991,1.4222538471221924
14573.701127996816,0.9499511122703552,1.062481164932251,1.1763066053390503,1.4229015111923218
14573.703128056875,0.9502749443054199,1.062319278717041,1.175497055053711,1.4237110614776611
14573.705128116937,0.9486557841300964,1.062481164932251,1.1769542694091797,1.4230633974075317
14573.707128176997,0.9489796161651611,1.0626431703567505,1.1766304969787598,1.4233872890472412
14573.709128237057,0.9497891664505005,1.0631288290023804,1.1761447191238403,1.4227396249771118
14573.711128297118,0.9491415023803711,1.062481164932251,1.1764686107635498,1.4217681884765625
14573.713128357178,0.9481700658798218,1.0632907152175903,1.1763066053390503,1.4219300746917725
14573.715128417238,0.9505987763404846,1.0634527206420898,1.1766304969787598,1.422415852546692
14573.7171284773,0.9507606625556946,1.062319278717041,1.177763819694519,1.422415852546692
14573.71912853736,0.9507606625556946,1.0618335008621216,1.1782495975494385,1.4220919609069824
14573.721128597419,0.9509226083755493,1.0628050565719604,1.1766304969787598,1.4219300746917725
14573.72312865748,0.9515702128410339,1.062319278717041,1.1764686107635498,1.421606183052063
14573.72512871754,0.9504368305206299,1.062481164932251,1.1769542694091797,1.4217681884765625
14573.727128777602,0.9504368305206299,1.0634527206420898,1.1766304969787598,1.4220919609069824
14573.729128837662,0.9502749443054199,1.0632907152175903,1.1761447191238403,1.4217681884765625
14573.731128897722,0.9501129984855652,1.062157392501831,1.1769542694091797,1.421120524406433
14573.733128957783,0.9493034482002258,1.062157392501831,1.1763066053390503,1.4217681884765625
14573.735129017843,0.9510844945907593,1.062157392501831,1.1761447191238403,1.4225777387619019
14573.737129077903,0.9507606625556946,1.062319278717041,1.1759828329086304,1.4229015111923218
14573.739129137964,0.9505987763404846,1.0618335008621216,1.1767923831939697,1.4229015111923218
14573.741129198024,0.9496272802352905,1.061995506286621,1.1772781610488892,1.4233872890472412
14573.743129258084,0.9507606625556946,1.062157392501831,1.1763066053390503,1.4230633974075317
14573.745129318146,0.9497891664505005,1.0616716146469116,1.1759828329086304,1.422415852546692
14573.747129378205,0.9499511122703552,1.062157392501831,1.1769542694091797,1.4225777387619019
14573.749129438267,0.9505987763404846,1.0629669427871704,1.1772781610488892,1.4220919609069824
14573.751129498327,0.9499511122703552,1.062481164932251,1.1764686107635498,1.421444296836853
14573.753129558387,0.9494653344154358,1.062481164932251,1.1767923831939697,1.4219300746917725
14573.755129618448,0.9510844945907593,1.062319278717041,1.1767923831939697,1.4220919609069824
14573.757129678508,0.9502749443054199,1.0618335008621216,1.1766304969787598,1.4233872890472412
14573.759129738568,0.9505987763404846,1.062481164932251,1.1763066053390503,1.4227396249771118
14573.76112979863,0.9512463808059692,1.0632907152175903,1.175658941268921,1.4230633974075317
14573.76312985869,0.952541708946228,1.0631288290023804,1.175658941268921,1.4220919609069824
14573.76512991875,0.9507606625556946,1.0628050565719604,1.1750112771987915,1.4217681884765625
14573.76712997881,0.9502749443054199,1.0618335008621216,1.1750112771987915,1.4220919609069824
14573.76913003887,0.9502749443054199,1.0616716146469116,1.1745256185531616,1.4222538471221924
14573.771130098932,0.9504368305206299,1.0616716146469116,1.1745256185531616,1.4220919609069824
14573.773130158992,0.9497891664505005,1.0608620643615723,1.1742017269134521,1.4225777387619019
14573.775130219052,0.9507606625556946,1.0605382919311523,1.1745256185531616,1.4225777387619019
14573.777130279113,0.9507606625556946,1.0613478422164917,1.1745256185531616,1.4225777387619019
14573.779130339173,0.9505987763404846,1.0618335008621216,1.1745256185531616,1.4220919609069824
14573.781130399235,0.9499511122703552,1.0615097284317017,1.1742017269134521,1.4232254028320312
14573.783130459295,0.9509226083755493,1.0613478422164917,1.1742017269134521,1.4233872890472412
14573.785130519354,0.9496272802352905,1.0610239505767822,1.1750112771987915,1.4229015111923218
14573.787130579416,0.9501129984855652,1.0608620643615723,1.1746875047683716,1.4227396249771118
14573.789130639476,0.9499511122703552,1.061995506286621,1.1742017269134521,1.4230633974075317
14573.791130699536,0.9499511122703552,1.062157392501831,1.1737160682678223,1.4233872890472412
14573.793130759597,0.9497891664505005,1.0618335008621216,1.1745256185531616,1.4232254028320312
14573.795130819657,0.9502749443054199,1.0616716146469116,1.1748493909835815,1.4238730669021606
14573.797130879717,0.9505987763404846,1.061995506286621,1.175335168838501,1.4229015111923218
14573.799130939778,0.9507606625556946,1.062157392501831,1.175658941268921,1.4225777387619019
14573.801130999838,0.9510844945907593,1.0615097284317017,1.1746875047683716,1.4235491752624512
14573.8031310599,0.952541708946228,1.062157392501831,1.1740398406982422,1.4227396249771118
14573.80513111996,0.9501129984855652,1.062481164932251,1.1745256185531616,1.4230633974075317
14573.80713118002,0.9504368305206299,1.0618335008621216,1.1750112771987915,1.4225777387619019
14573.809131240081,0.9510844945907593,1.0611858367919922,1.175335168838501,1.4219300746917725
14573.811131300141,0.9497891664505005,1.0607001781463623,1.1745256185531616,1.422415852546692
14573.8131313602,0.9494653344154358,1.0605382919311523,1.1742017269134521,1.4233872890472412
14573.815131420262,0.9509226083755493,1.0611858367919922,1.1732302904129028,1.4238730669021606
14573.817131480322,0.9505987763404846,1.0615097284317017,1.1746875047683716,1.4237110614776611
14573.819131540382,0.9504368305206299,1.0615097284317017,1.1746875047683716,1.4241968393325806
14573.821131600444,0.9505987763404846,1.0605382919311523,1.175335168838501,1.4238730669021606
14573.823131660503,0.9510844945907593,1.0613478422164917,1.175335168838501,1.4233872890472412
14573.825131720565,0.9497891664505005,1.0618335008621216,1.175173282623291,1.4222538471221924
14573.827131780625,0.9497891664505005,1.0608620643615723,1.1743637323379517,1.4232254028320312
14573.829131840685,0.9494653344154358,1.061995506286621,1.1735540628433228,1.422415852546692
14573.831131900746,0.9484938979148865,1.062157392501831,1.1737160682678223,1.4219300746917725
14573.833131960806,0.9481700658798218,1.0615097284317017,1.1735540628433228,1.4220919609069824
14573.835132020868,0.9501129984855652,1.0616716146469116,1.1737160682678223,1.4227396249771118
14573.837132080927,0.9505987763404846,1.0615097284317017,1.1740398406982422,1.4237110614776611
14573.839132140987,0.9509226083755493,1.0618335008621216,1.1746875047683716,1.4238730669021606
14573.841132201049,0.9507606625556946,1.0628050565719604,1.1742017269134521,1.42452073097229
14573.843132261109,0.9515702128410339,1.062481164932251,1.1742017269134521,1.4243587255477905
14573.845132321168,0.9504368305206299,1.0618335008621216,1.1742017269134521,1.4235491752624512
14573.84713238123,0.9502749443054199,1.0618335008621216,1.1743637323379517,1.42500638961792
14573.84913244129,0.951408326625824,1.062319278717041,1.1745256185531616,1.42452073097229
14573.85113250135,0.9507606625556946,1.062481164932251,1.1746875047683716,1.42452073097229
14573.853132561411,0.9501129984855652,1.062319278717041,1.1742017269134521,1.4241968393325806
14573.855132621471,0.9509226083755493,1.062157392501831,1.1735540628433228,1.4235491752624512
14573.857132681533,0.9507606625556946,1.0618335008621216,1.1743637323379517,1.4233872890472412
14573.859132741592,0.9502749443054199,1.0618335008621216,1.1746875047683716,1.4235491752624512
14573.861132801652,0.9512463808059692,1.0618335008621216,1.1745256185531616,1.4241968393325806
14573.863132861714,0.9520559906959534,1.0616716146469116,1.1743637323379517,1.42452073097229
14573.865132921774,0.9510844945907593,1.0613478422164917,1.1746875047683716,1.4232254028320312
14573.867132981833,0.9509226083755493,1.061995506286621,1.1746875047683716,1.4235491752624512
14573.869133041895,0.951408326625824,1.062319278717041,1.1750112771987915,1.4241968393325806
14573.871133101955,0.9502749443054199,1.0628050565719604,1.1746875047683716,1.4237110614776611
14573.873133162015,0.9491415023803711,1.0626431703567505,1.1746875047683716,1.4241968393325806
14573.875133222076,0.9505987763404846,1.0626431703567505,1.1745256185531616,1.42452073097229
14573.877133282136,0.9510844945907593,1.062481164932251,1.1746875047683716,1.4241968393325806
14573.879133342198,0.9510844945907593,1.0626431703567505,1.1750112771987915,1.4240349531173706
14573.881133402258,0.9515702128410339,1.0628050565719604,1.1750112771987915,1.4246826171875
14573.883133462317,0.9523798227310181,1.0626431703567505,1.1758209466934204,1.42452073097229
14573.885133522379,0.9507606625556946,1.0628050565719604,1.175497055053711,1.4232254028320312
14573.887133582439,0.9497891664505005,1.0616716146469116,1.175497055053711,1.4233872890472412
14573.889133642499,0.9497891664505005,1.0613478422164917,1.175497055053711,1.4237110614776611
14573.89113370256,0.9496272802352905,1.0607001781463623,1.1758209466934204,1.4232254028320312
14573.89313376262,0.9491415023803711,1.0607001781463623,1.175335168838501,1.42452073097229
14573.89513382268,0.9512463808059692,1.061995506286621,1.175497055053711,1.42452073097229
14573.897133882741,0.9509226083755493,1.062157392501831,1.1758209466934204,1.4241968393325806
14573.899133942801,0.9499511122703552,1.0626431703567505,1.1759828329086304,1.42452073097229
14573.901134002863,0.9515702128410339,1.062319278717041,1.175335168838501,1.4246826171875
14573.903134062923,0.9528655409812927,1.061995506286621,1.175335168838501,1.4258159399032593
14573.905134122982,0.951408326625824,1.0615097284317017,1.1763066053390503,1.4253302812576294
14573.907134183044,0.9505987763404846,1.061995506286621,1.1761447191238403,1.42484450340271
14573.909134243104,0.9507606625556946,1.062157392501831,1.175497055053711,1.42484450340271
14573.911134303165,0.9499511122703552,1.0615097284317017,1.175658941268921,1.4235491752624512
14573.913134363225,0.9491415023803711,1.061995506286621,1.175173282623291,1.42452073097229
14573.915134423285,0.9509226083755493,1.0631288290023804,1.1748493909835815,1.42500638961792
14573.917134483347,0.9515702128410339,1.0632907152175903,1.1748493909835815,1.4251682758331299
14573.919134543406,0.9507606625556946,1.0626431703567505,1.1746875047683716,1.4254921674728394
14573.921134603466,0.9512463808059692,1.062319278717041,1.1745256185531616,1.4254921674728394
14573.923134663528,0.9522178769111633,1.0629669427871704,1.175173282623291,1.4251682758331299
14573.925134723588,0.9499511122703552,1.0628050565719604,1.1750112771987915,1.42452073097229
14573.927134783647,0.9504368305206299,1.0632907152175903,1.1746875047683716,1.4240349531173706
14573.92913484371,0.9509226083755493,1.0629669427871704,1.175173282623291,1.42452073097229
14573.931134903769,0.9507606625556946,1.062319278717041,1.175173282623291,1.4238730669021606
14573.93313496383,0.9504368305206299,1.0616716146469116,1.1746875047683716,1.4241968393325806
14573.93513502389,0.952541708946228,1.061995506286621,1.1758209466934204,1.4253302812576294
14573.93713508395,0.9520559906959534,1.062481164932251,1.175497055053711,1.4251682758331299
14573.939135144012,0.951408326625824,1.0626431703567505,1.175173282623291,1.42500638961792
14573.941135204072,0.9520559906959534,1.0632907152175903,1.1735540628433228,1.4253302812576294
14573.943135264131,0.9510844945907593,1.0639383792877197,1.1740398406982422,1.42484450340271
14573.945135324193,0.9491415023803711,1.0636146068572998,1.1746875047683716,1.4241968393325806
14573.947135384253,0.9481700658798218,1.0641003847122192,1.1745256185531616,1.4241968393325806
14573.949135444313,0.9491415023803711,1.0637764930725098,1.175173282623291,1.4254921674728394
14573.951135504374,0.9497891664505005,1.0634527206420898,1.175658941268921,1.4259779453277588
14573.953135564434,0.9491415023803711,1.0631288290023804,1.1742017269134521,1.4256540536880493
14573.955135624496,0.9504368305206299,1.0628050565719604,1.1740398406982422,1.4253302812576294
14573.957135684555,0.9505987763404846,1.0629669427871704,1.1742017269134521,1.4246826171875
14573.959135744615,0.9496272802352905,1.062319278717041,1.1742017269134521,1.42452073097229
14573.961135804677,0.9501129984855652,1.062481164932251,1.1742017269134521,1.4253302812576294
14573.963135864737,0.9502749443054199,1.0636146068572998,1.1742017269134521,1.4253302812576294
14573.965135924798,0.9493034482002258,1.0632907152175903,1.1735540628433228,1.4243587255477905
14573.967135984858,0.9494653344154358,1.0628050565719604,1.1737160682678223,1.42452073097229
14573.969136044918,0.9499511122703552,1.0626431703567505,1.1735540628433228,1.4241968393325806
14573.971136104978,0.9493034482002258,1.062157392501831,1.1738779544830322,1.4246826171875
14573.97313616504,0.9486557841300964,1.062319278717041,1.1733921766281128,1.4253302812576294
14573.975136225099,0.9502749443054199,1.0628050565719604,1.171934962272644,1.4258159399032593
14573.97713628516,0.9499511122703552,1.0628050565719604,1.171934962272644,1.4261398315429688
14573.97913634522,0.9499511122703552,1.062481164932251,1.1724207401275635,1.4254921674728394
14573.98113640528,0.9512463808059692,1.0632907152175903,1.1725826263427734,1.4241968393325806
14573.983136465342,0.9515702128410339,1.062157392501831,1.1733921766281128,1.4243587255477905
14573.985136525402,0.9493034482002258,1.062157392501831,1.1740398406982422,1.4251682758331299
14573.987136585463,0.9484938979148865,1.0634527206420898,1.1740398406982422,1.4259779453277588
14573.989136645523,0.9488176703453064,1.0637764930725098,1.1733921766281128,1.4261398315429688
14573.991136705583,0.9486557841300964,1.0641003847122192,1.1738779544830322,1.4256540536880493
14573.993136765645,0.9478462338447571,1.0636146068572998,1.1730684041976929,1.4258159399032593
14573.995136825704,0.9501129984855652,1.0637764930725098,1.1735540628433228,1.4261398315429688
14573.997136885764,0.951408326625824,1.0639383792877197,1.1740398406982422,1.4266256093978882
14573.999136945826,0.9512463808059692,1.0644241571426392,1.1737160682678223,1.4263017177581787
14574.001137005886,0.9499511122703552,1.0647480487823486,1.1740398406982422,1.4264636039733887
14574.003137065945,0.9499511122703552,1.0647480487823486,1.1745256185531616,1.4263017177581787
14574.005137126007,0.9497891664505005,1.0642622709274292,1.1740398406982422,1.4261398315429688
14574.007137186067,0.9497891664505005,1.0641003847122192,1.1745256185531616,1.4261398315429688
14574.009137246128,0.9494653344154358,1.0647480487823486,1.1750112771987915,1.4259779453277588
14574.011137306188,0.9488176703453064,1.0645860433578491,1.175173282623291,1.4263017177581787
14574.013137366248,0.9481700658798218,1.0645860433578491,1.1748493909835815,1.4261398315429688
14574.01513742631,0.9497891664505005,1.0647480487823486,1.1740398406982422,1.4258159399032593
14574.01713748637,0.9497891664505005,1.0650718212127686,1.1735540628433228,1.4253302812576294
14574.01913754643,0.9497891664505005,1.0649099349975586,1.1733921766281128,1.4253302812576294
14574.02113760649,0.9494653344154358,1.0650718212127686,1.1729063987731934,1.4267874956130981
14574.02313766655,0.9501129984855652,1.0645860433578491,1.1740398406982422,1.4266256093978882
14574.02513772661,0.9494653344154358,1.0642622709274292,1.1732302904129028,1.4264636039733887
14574.027137786672,0.9494653344154358,1.0642622709274292,1.1735540628433228,1.426949381828308
14574.029137846732,0.9488176703453064,1.0645860433578491,1.1732302904129028,1.4263017177581787
14574.031137906793,0.9488176703453064,1.0652337074279785,1.1729063987731934,1.42452073097229
14574.033137966853,0.9484938979148865,1.0645860433578491,1.1722588539123535,1.4243587255477905
14574.035138026913,0.9499511122703552,1.0639383792877197,1.1725826263427734,1.4258159399032593
14574.037138086975,0.9507606625556946,1.0644241571426392,1.171934962272644,1.4261398315429688
14574.039138147034,0.9494653344154358,1.0652337074279785,1.171773076057434,1.4259779453277588
14574.041138207096,0.9502749443054199,1.0642622709274292,1.171773076057434,1.4261398315429688
14574.043138267156,0.9504368305206299,1.0639383792877197,1.171773076057434,1.4264636039733887
14574.045138327216,0.9476842880249023,1.0628050565719604,1.172096848487854,1.4258159399032593
14574.047138387277,0.9486557841300964,1.0639383792877197,1.1725826263427734,1.4251682758331299
14574.049138447337,0.9484938979148865,1.0631288290023804,1.172096848487854,1.4258159399032593
14574.051138507397,0.9473604559898376,1.0631288290023804,1.1725826263427734,1.4256540536880493
14574.053138567459,0.9467127919197083,1.0626431703567505,1.1708015203475952,1.42484450340271
14574.055138627518,0.9478462338447571,1.062481164932251,1.1701538562774658,1.42500638961792
14574.057138687578,0.9478462338447571,1.0636146068572998,1.1703158617019653,1.4251682758331299
14574.05913874764,0.9473604559898376,1.0631288290023804,1.1712872982025146,1.4253302812576294
14574.0611388077,0.9486557841300964,1.0628050565719604,1.1709635257720947,1.4253302812576294
14574.063138867761,0.9488176703453064,1.0626431703567505,1.1711254119873047,1.4254921674728394
14574.065138927821,0.9476842880249023,1.0626431703567505,1.1706396341323853,1.42500638961792
14574.06713898788,0.9476842880249023,1.0632907152175903,1.169506311416626,1.4243587255477905
14574.069139047942,0.9473604559898376,1.0637764930725098,1.169830083847046,1.4240349531173706
14574.071139108002,0.9465509057044983,1.0636146068572998,1.1703158617019653,1.4246826171875
14574.073139168062,0.9467127919197083,1.0637764930725098,1.1711254119873047,1.4256540536880493
14574.075139228124,0.9475224018096924,1.0631288290023804,1.1712872982025146,1.42500638961792
14574.077139288183,0.9475224018096924,1.0628050565719604,1.1704777479171753,1.4246826171875
14574.079139348243,0.948008120059967,1.0628050565719604,1.1701538562774658,1.42452073097229
14574.081139408305,0.9481700658798218,1.0628050565719604,1.1708015203475952,1.42500638961792
14574.083139468365,0.9481700658798218,1.0626431703567505,1.1712872982025146,1.4246826171875
14574.085139528426,0.9465509057044983,1.0631288290023804,1.1703158617019653,1.42452073097229
14574.087139588486,0.946874737739563,1.0629669427871704,1.1704777479171753,1.4256540536880493
14574.089139648546,0.9462270736694336,1.0631288290023804,1.169830083847046,1.4246826171875
14574.091139708607,0.9462270736694336,1.062157392501831,1.1701538562774658,1.4251682758331299
14574.093139768667,0.9454175233840942,1.0615097284317017,1.1701538562774658,1.42500638961792
14574.095139828727,0.9462270736694336,1.0615097284317017,1.169830083847046,1.4253302812576294
14574.097139888789,0.9460651874542236,1.0626431703567505,1.1691824197769165,1.4258159399032593
14574.099139948848,0.9459032416343689,1.0628050565719604,1.169506311416626,1.4253302812576294
14574.101140008908,0.9463890194892883,1.0629669427871704,1.1701538562774658,1.4254921674728394
14574.10314006897,0.9467127919197083,1.0628050565719604,1.1701538562774658,1.4256540536880493
14574.10514012903,0.9459032416343689,1.062481164932251,1.1701538562774658,1.42452073097229
14574.107140189091,0.9471985697746277,1.062319278717041,1.1703158617019653,1.4241968393325806
14574.109140249151,0.9471985697746277,1.0629669427871704,1.169668197631836,1.42500638961792
14574.11114030921,0.9462270736694336,1.062319278717041,1.1691824197769165,1.4253302812576294
14574.113140369273,0.9447698593139648,1.061995506286621,1.1699919700622559,1.4246826171875
14574.115140429332,0.9467127919197083,1.0634527206420898,1.1706396341323853,1.4253302812576294
14574.117140489394,0.946874737739563,1.0631288290023804,1.1701538562774658,1.4246826171875
14574.119140549454,0.9475224018096924,1.0629669427871704,1.1703158617019653,1.4246826171875
14574.121140609514,0.9481700658798218,1.0629669427871704,1.1709635257720947,1.4251682758331299
14574.123140669575,0.948008120059967,1.0634527206420898,1.1712872982025146,1.42484450340271
14574.125140729635,0.9457413554191589,1.0629669427871704,1.1708015203475952,1.42484450340271
14574.127140789695,0.9449317455291748,1.0632907152175903,1.1699919700622559,1.42500638961792
14574.129140849756,0.9459032416343689,1.0642622709274292,1.1703158617019653,1.42484450340271
14574.131140909816,0.9467127919197083,1.0637764930725098,1.169506311416626,1.4241968393325806
14574.133140969876,0.9457413554191589,1.0632907152175903,1.1701538562774658,1.4241968393325806
14574.135141029938,0.9478462338447571,1.0629669427871704,1.1708015203475952,1.4251682758331299
14574.137141089997,0.9473604559898376,1.0629669427871704,1.1709635257720947,1.4253302812576294
14574.139141150059,0.9471985697746277,1.062481164932251,1.1704777479171753,1.4246826171875
14574.141141210119,0.9481700658798218,1.0628050565719604,1.1704777479171753,1.4243587255477905
14574.143141270179,0.948008120059967,1.0629669427871704,1.1701538562774658,1.4251682758331299
14574.14514133024,0.9463890194892883,1.062481164932251,1.1699919700622559,1.42500638961792
14574.1471413903,0.9463890194892883,1.0626431703567505,1.1699919700622559,1.4243587255477905
14574.14914145036,0.9454175233840942,1.0631288290023804,1.1701538562774658,1.42452073097229
14574.151141510421,0.9455794095993042,1.0629669427871704,1.1699919700622559,1.42452073097229
14574.153141570481,0.9450936913490295,1.0631288290023804,1.1703158617019653,1.4251682758331299
14574.155141630541,0.947036623954773,1.0636146068572998,1.1706396341323853,1.4259779453277588
14574.157141690603,0.9463890194892883,1.0634527206420898,1.1704777479171753,1.4259779453277588
14574.159141750662,0.9459032416343689,1.0628050565719604,1.1708015203475952,1.4266256093978882
