0,1,2,3,4
18519.139598910384,1.1980030536651611,1.1610867977142334,1.5582616329193115,1.388575792312622
18519.14159897271,1.1984888315200806,1.1610867977142334,1.5572901964187622,1.3895472288131714
18519.143599035036,1.2001079320907593,1.1612486839294434,1.5564805269241333,1.3893853425979614
18519.145599097363,1.1983269453048706,1.1609247922897339,1.5561567544937134,1.3892234563827515
18519.14759915969,1.1983269453048706,1.1610867977142334,1.5566425323486328,1.3895472288131714
18519.14959922201,1.1984888315200806,1.1620582342147827,1.5572901964187622,1.3892234563827515
18519.151599284338,1.1978411674499512,1.1620582342147827,1.5566425323486328,1.3893853425979614
18519.153599346664,1.1963839530944824,1.1617343425750732,1.5569663047790527,1.3890615701675415
18519.15559940899,1.1971935033798218,1.1618963479995728,1.5566425323486328,1.388413906097412
18519.157599471317,1.1976792812347412,1.1610867977142334,1.5568044185638428,1.388413906097412
18519.159599533643,1.1970316171646118,1.1610867977142334,1.5574520826339722,1.388413906097412
18519.16159959597,1.1965458393096924,1.1614105701446533,1.5572901964187622,1.3882519006729126
18519.163599658295,1.19913649559021,1.1610867977142334,1.557775855064392,1.388899564743042
18519.16559972062,1.1978411674499512,1.1609247922897339,1.5580997467041016,1.3900330066680908
18519.167599782948,1.1970316171646118,1.160762906074524,1.557775855064392,1.3893853425979614
18519.169599845274,1.1973553895950317,1.1620582342147827,1.5572901964187622,1.3893853425979614
18519.1715999076,1.1983269453048706,1.1622201204299927,1.5572901964187622,1.3898711204528809
18519.173599969927,1.1970316171646118,1.163029670715332,1.5572901964187622,1.3898711204528809
18519.175600032253,1.1986507177352905,1.163029670715332,1.5569663047790527,1.3901948928833008
18519.17760009458,1.1986507177352905,1.162705898284912,1.5576139688491821,1.3901948928833008
18519.179600156906,1.1986507177352905,1.1631916761398315,1.557937741279602,1.3901948928833008
18519.18160021923,1.1980030536651611,1.1631916761398315,1.5569663047790527,1.3901948928833008
18519.183600281558,1.19913649559021,1.1633535623550415,1.5572901964187622,1.3903567790985107
18519.185600343884,1.1980030536651611,1.1623820066452026,1.5574520826339722,1.3895472288131714
18519.18760040621,1.1975173950195312,1.162705898284912,1.5574520826339722,1.388737678527832
18519.189600468533,1.1970316171646118,1.1631916761398315,1.5574520826339722,1.3890615701675415
18519.19160053086,1.1963839530944824,1.162705898284912,1.5574520826339722,1.389709234237671
18519.193600593186,1.1962220668792725,1.1618963479995728,1.5571281909942627,1.389709234237671
18519.195600655512,1.1981650590896606,1.1615724563598633,1.5568044185638428,1.3898711204528809
18519.19760071784,1.1983269453048706,1.162705898284912,1.5569663047790527,1.3901948928833008
18519.199600780164,1.1978411674499512,1.162705898284912,1.5571281909942627,1.3898711204528809
18519.20160084249,1.1973553895950317,1.163029670715332,1.5572901964187622,1.3905187845230103
18519.203600904817,1.19929838180542,1.1622201204299927,1.5568044185638428,1.3903567790985107
18519.205600967143,1.1981650590896606,1.1618963479995728,1.555832862854004,1.3893853425979614
18519.20760102947,1.196707844734192,1.1615724563598633,1.555832862854004,1.3890615701675415
18519.209601091796,1.196707844734192,1.162867784500122,1.5559948682785034,1.388737678527832
18519.211601154122,1.1973553895950317,1.162867784500122,1.5559948682785034,1.3895472288131714
18519.21360121645,1.1968697309494019,1.1620582342147827,1.5564805269241333,1.389709234237671
18519.215601278775,1.1981650590896606,1.1617343425750732,1.5569663047790527,1.3910044431686401
18519.2176013411,1.1996222734451294,1.1623820066452026,1.5564805269241333,1.3906806707382202
18519.219601403427,1.198974609375,1.162705898284912,1.557937741279602,1.3900330066680908
18519.221601465753,1.1994602680206299,1.162705898284912,1.557775855064392,1.3892234563827515
18519.22360152808,1.2005937099456787,1.162705898284912,1.5580997467041016,1.3892234563827515
18519.225601590406,1.19929838180542,1.1625440120697021,1.5584235191345215,1.388413906097412
18519.227601652732,1.1983269453048706,1.163029670715332,1.5584235191345215,1.388899564743042
18519.229601715055,1.1978411674499512,1.1623820066452026,1.5580997467041016,1.3880900144577026
18519.23160177738,1.1980030536651611,1.1622201204299927,1.5576139688491821,1.388575792312622
18519.233601839707,1.1970316171646118,1.1615724563598633,1.5574520826339722,1.3879281282424927
18519.235601902034,1.1981650590896606,1.162867784500122,1.5571281909942627,1.388413906097412
18519.23760196436,1.1980030536651611,1.1625440120697021,1.5576139688491821,1.3874423503875732
18519.239602026686,1.1976792812347412,1.162867784500122,1.5571281909942627,1.3874423503875732
18519.241602089012,1.1981650590896606,1.1625440120697021,1.5572901964187622,1.388575792312622
18519.24360215134,1.19929838180542,1.1622201204299927,1.5585854053497314,1.388899564743042
18519.245602213665,1.1976792812347412,1.1623820066452026,1.5598807334899902,1.3882519006729126
18519.24760227599,1.1970316171646118,1.1622201204299927,1.558909296989441,1.3882519006729126
18519.249602338317,1.1980030536651611,1.1622201204299927,1.5580997467041016,1.388575792312622
18519.251602400644,1.1983269453048706,1.1618963479995728,1.557937741279602,1.3876042366027832
18519.25360246297,1.1975173950195312,1.1620582342147827,1.558747410774231,1.3879281282424927
18519.255602525296,1.1983269453048706,1.1622201204299927,1.5584235191345215,1.388413906097412
18519.257602587622,1.1986507177352905,1.162705898284912,1.5592330694198608,1.388575792312622
18519.25960264995,1.19881272315979,1.162867784500122,1.5592330694198608,1.389709234237671
18519.261602712275,1.1986507177352905,1.1622201204299927,1.5592330694198608,1.389709234237671
18519.2636027746,1.1994602680206299,1.1620582342147827,1.558747410774231,1.3901948928833008
18519.265602836927,1.1986507177352905,1.1620582342147827,1.5592330694198608,1.388575792312622
18519.26760289925,1.1981650590896606,1.1620582342147827,1.5584235191345215,1.388413906097412
18519.269602961576,1.19881272315979,1.1614105701446533,1.5580997467041016,1.3877662420272827
18519.271603023903,1.1986507177352905,1.1617343425750732,1.5582616329193115,1.3880900144577026
18519.27360308623,1.196707844734192,1.1617343425750732,1.5580997467041016,1.3890615701675415
18519.275603148555,1.1984888315200806,1.1622201204299927,1.5585854053497314,1.3892234563827515
18519.27760321088,1.1978411674499512,1.1620582342147827,1.5584235191345215,1.3890615701675415
18519.279603273208,1.1978411674499512,1.1625440120697021,1.5584235191345215,1.388899564743042
18519.281603335534,1.1978411674499512,1.1633535623550415,1.558747410774231,1.3880900144577026
18519.28360339786,1.19913649559021,1.1615724563598633,1.5582616329193115,1.388413906097412
18519.285603460186,1.1976792812347412,1.1620582342147827,1.557775855064392,1.3877662420272827
18519.287603522513,1.1973553895950317,1.1617343425750732,1.557775855064392,1.3879281282424927
18519.28960358484,1.1975173950195312,1.1618963479995728,1.5571281909942627,1.388575792312622
18519.291603647165,1.1968697309494019,1.163029670715332,1.5580997467041016,1.3879281282424927
18519.29360370949,1.195898175239563,1.1633535623550415,1.5584235191345215,1.3879281282424927
18519.295603771818,1.1968697309494019,1.1618963479995728,1.5582616329193115,1.388413906097412
18519.297603834144,1.1970316171646118,1.1617343425750732,1.5576139688491821,1.388575792312622
18519.29960389647,1.1975173950195312,1.1615724563598633,1.5568044185638428,1.388575792312622
18519.301603958796,1.1971935033798218,1.1617343425750732,1.5563186407089233,1.3882519006729126
18519.303604021123,1.1981650590896606,1.1617343425750732,1.5564805269241333,1.388737678527832
18519.30560408345,1.195898175239563,1.1617343425750732,1.5561567544937134,1.3880900144577026
18519.307604145775,1.195574402809143,1.1618963479995728,1.5559948682785034,1.388737678527832
18519.309604208098,1.1962220668792725,1.1612486839294434,1.555832862854004,1.388413906097412
18519.311604270424,1.1963839530944824,1.1615724563598633,1.5561567544937134,1.3867946863174438
18519.31360433275,1.1952505111694336,1.1618963479995728,1.5564805269241333,1.386309027671814
18519.315604395077,1.1965458393096924,1.1617343425750732,1.5559948682785034,1.3877662420272827
18519.317604457403,1.1978411674499512,1.1617343425750732,1.555670976638794,1.3876042366027832
18519.31960451973,1.196707844734192,1.1617343425750732,1.555509090423584,1.3879281282424927
18519.321604582055,1.195898175239563,1.1614105701446533,1.5563186407089233,1.3877662420272827
18519.32360464438,1.1976792812347412,1.1622201204299927,1.5568044185638428,1.388413906097412
18519.325604706708,1.1965458393096924,1.1620582342147827,1.5572901964187622,1.3882519006729126
18519.327604769034,1.1960601806640625,1.1615724563598633,1.5572901964187622,1.3876042366027832
18519.32960483136,1.1971935033798218,1.1610867977142334,1.5568044185638428,1.3876042366027832
18519.331604893687,1.1976792812347412,1.1609247922897339,1.5571281909942627,1.388413906097412
18519.333604956013,1.195898175239563,1.1612486839294434,1.557937741279602,1.3877662420272827
18519.33560501834,1.1968697309494019,1.1610867977142334,1.5582616329193115,1.3880900144577026
18519.337605080666,1.1976792812347412,1.1615724563598633,1.5576139688491821,1.388413906097412
18519.33960514299,1.1983269453048706,1.1622201204299927,1.5569663047790527,1.3880900144577026
18519.341605205318,1.1976792812347412,1.1618963479995728,1.5571281909942627,1.3882519006729126
18519.343605267644,1.1984888315200806,1.1614105701446533,1.5576139688491821,1.388737678527832
18519.34560532997,1.1981650590896606,1.1610867977142334,1.5584235191345215,1.3880900144577026
18519.347605392293,1.1983269453048706,1.1610867977142334,1.5584235191345215,1.3879281282424927
18519.34960545462,1.19881272315979,1.1615724563598633,1.558747410774231,1.3877662420272827
18519.351605516946,1.1983269453048706,1.1618963479995728,1.558747410774231,1.3869566917419434
18519.353605579272,1.196707844734192,1.1615724563598633,1.5585854053497314,1.3869566917419434
18519.3556056416,1.1984888315200806,1.1620582342147827,1.5582616329193115,1.3877662420272827
18519.357605703924,1.1986507177352905,1.1618963479995728,1.5580997467041016,1.3879281282424927
18519.35960576625,1.19881272315979,1.1615724563598633,1.5585854053497314,1.3877662420272827
18519.361605828577,1.19881272315979,1.1614105701446533,1.558909296989441,1.3879281282424927
18519.363605890903,1.1997841596603394,1.1618963479995728,1.558909296989441,1.388575792312622
18519.36560595323,1.1986507177352905,1.1631916761398315,1.558747410774231,1.3880900144577026
18519.367606015556,1.198974609375,1.1625440120697021,1.5582616329193115,1.3882519006729126
18519.369606077882,1.19929838180542,1.160601019859314,1.558909296989441,1.3882519006729126
18519.37160614021,1.1997841596603394,1.1612486839294434,1.5595569610595703,1.3874423503875732
18519.373606202535,1.19913649559021,1.1618963479995728,1.5592330694198608,1.3866328001022339
18519.37560626486,1.1997841596603394,1.1620582342147827,1.557937741279602,1.3874423503875732
18519.377606327187,1.2004318237304688,1.162705898284912,1.558747410774231,1.3882519006729126
18519.379606389513,1.2005937099456787,1.1617343425750732,1.5590711832046509,1.3879281282424927
18519.38160645184,1.201241374015808,1.1615724563598633,1.558747410774231,1.388575792312622
18519.383606514166,1.2015652656555176,1.1615724563598633,1.5592330694198608,1.388575792312622
18519.385606576492,1.2007555961608887,1.1610867977142334,1.558747410774231,1.3879281282424927
18519.387606638815,1.2002699375152588,1.160601019859314,1.558747410774231,1.3879281282424927
18519.38960670114,1.1999460458755493,1.1609247922897339,1.5597188472747803,1.3882519006729126
18519.391606763467,1.1994602680206299,1.1623820066452026,1.5595569610595703,1.3877662420272827
18519.393606825794,1.1994602680206299,1.1620582342147827,1.5592330694198608,1.3882519006729126
18519.39560688812,1.2002699375152588,1.1617343425750732,1.5593950748443604,1.3895472288131714
18519.397606950446,1.1994602680206299,1.1610867977142334,1.558747410774231,1.3893853425979614
18519.399607012772,1.1996222734451294,1.1610867977142334,1.5585854053497314,1.388413906097412
18519.4016070751,1.1994602680206299,1.1612486839294434,1.5582616329193115,1.3892234563827515
18519.403607137425,1.2002699375152588,1.1609247922897339,1.5580997467041016,1.388737678527832
18519.40560719975,1.19913649559021,1.1609247922897339,1.5580997467041016,1.388413906097412
18519.407607262077,1.1983269453048706,1.1609247922897339,1.558909296989441,1.3877662420272827
18519.409607324404,1.1981650590896606,1.1609247922897339,1.558747410774231,1.3880900144577026
18519.41160738673,1.19881272315979,1.1612486839294434,1.5595569610595703,1.3880900144577026
18519.413607449056,1.1980030536651611,1.1622201204299927,1.5592330694198608,1.3882519006729126
18519.415607511382,1.19881272315979,1.1615724563598633,1.5600426197052002,1.3892234563827515
18519.41760757371,1.1997841596603394,1.1617343425750732,1.5600426197052002,1.388575792312622
18519.419607636035,1.1996222734451294,1.1615724563598633,1.5600426197052002,1.3880900144577026
18519.42160769836,1.19929838180542,1.1614105701446533,1.5592330694198608,1.3890615701675415
18519.423607760687,1.2001079320907593,1.1623820066452026,1.5593950748443604,1.3900330066680908
18519.42560782301,1.19881272315979,1.1631916761398315,1.5592330694198608,1.3893853425979614
18519.427607885336,1.1983269453048706,1.1622201204299927,1.558909296989441,1.388899564743042
18519.429607947663,1.19881272315979,1.162705898284912,1.5592330694198608,1.3877662420272827
18519.43160800999,1.1994602680206299,1.1625440120697021,1.5593950748443604,1.3877662420272827
18519.433608072315,1.1981650590896606,1.1625440120697021,1.5597188472747803,1.3877662420272827
18519.43560813464,1.1999460458755493,1.1620582342147827,1.5592330694198608,1.388413906097412
18519.437608196968,1.2004318237304688,1.1614105701446533,1.5582616329193115,1.3880900144577026
18519.439608259294,1.198974609375,1.1614105701446533,1.557937741279602,1.3882519006729126
18519.44160832162,1.1996222734451294,1.1617343425750732,1.5584235191345215,1.3890615701675415
18519.443608383946,1.2007555961608887,1.162705898284912,1.558747410774231,1.388575792312622
18519.445608446273,1.1994602680206299,1.162867784500122,1.5582616329193115,1.3877662420272827
18519.4476085086,1.19913649559021,1.1618963479995728,1.558747410774231,1.3877662420272827
18519.449608570925,1.1984888315200806,1.1614105701446533,1.5598807334899902,1.3877662420272827
18519.45160863325,1.1980030536651611,1.1610867977142334,1.5605283975601196,1.3879281282424927
18519.453608695578,1.1978411674499512,1.1612486839294434,1.5590711832046509,1.3869566917419434
18519.455608757904,1.19929838180542,1.1623820066452026,1.5598807334899902,1.3876042366027832
18519.45760882023,1.198974609375,1.1618963479995728,1.5593950748443604,1.3872804641723633
18519.459608882556,1.198974609375,1.1614105701446533,1.5593950748443604,1.3876042366027832
18519.461608944883,1.1997841596603394,1.1615724563598633,1.558747410774231,1.3879281282424927
18519.46360900721,1.2015652656555176,1.1623820066452026,1.558747410774231,1.3879281282424927
18519.465609069535,1.1997841596603394,1.1615724563598633,1.558909296989441,1.3876042366027832
18519.467609131858,1.1983269453048706,1.1615724563598633,1.5585854053497314,1.3871185779571533
18519.469609194184,1.1976792812347412,1.1617343425750732,1.5590711832046509,1.386309027671814
18519.47160925651,1.1980030536651611,1.1614105701446533,1.558909296989441,1.3859851360321045
18519.473609318837,1.1971935033798218,1.160601019859314,1.5592330694198608,1.3858232498168945
18519.475609381163,1.1996222734451294,1.1610867977142334,1.5585854053497314,1.3879281282424927
18519.47760944349,1.2001079320907593,1.1609247922897339,1.5584235191345215,1.3877662420272827
18519.479609505815,1.1994602680206299,1.160601019859314,1.558909296989441,1.3877662420272827
18519.48160956814,1.1999460458755493,1.1612486839294434,1.5584235191345215,1.3874423503875732
18519.483609630468,1.2007555961608887,1.1614105701446533,1.5580997467041016,1.3871185779571533
18519.485609692794,1.1986507177352905,1.1610867977142334,1.558909296989441,1.386309027671814
18519.48760975512,1.1981650590896606,1.1609247922897339,1.5592330694198608,1.3867946863174438
18519.489609817447,1.1986507177352905,1.160762906074524,1.5593950748443604,1.3874423503875732
18519.491609879773,1.198974609375,1.160439133644104,1.558909296989441,1.3871185779571533
18519.4936099421,1.1978411674499512,1.1610867977142334,1.5585854053497314,1.3872804641723633
18519.495610004426,1.1997841596603394,1.1618963479995728,1.5584235191345215,1.3876042366027832
18519.49761006675,1.2004318237304688,1.1612486839294434,1.5585854053497314,1.3879281282424927
18519.499610129078,1.2002699375152588,1.1609247922897339,1.5597188472747803,1.388413906097412
18519.501610191404,1.2002699375152588,1.160762906074524,1.5597188472747803,1.3877662420272827
18519.50361025373,1.201403260231018,1.1609247922897339,1.558909296989441,1.3877662420272827
18519.505610316053,1.19929838180542,1.1614105701446533,1.5590711832046509,1.3872804641723633
18519.50761037838,1.19913649559021,1.1620582342147827,1.5592330694198608,1.3874423503875732
18519.509610440706,1.1996222734451294,1.163029670715332,1.5597188472747803,1.3882519006729126
18519.511610503032,1.198974609375,1.163029670715332,1.5602046251296997,1.388737678527832
18519.51361056536,1.1973553895950317,1.1622201204299927,1.5602046251296997,1.388413906097412
18519.515610627685,1.19929838180542,1.1614105701446533,1.560852289199829,1.3879281282424927
18519.51761069001,1.2002699375152588,1.1609247922897339,1.5597188472747803,1.3877662420272827
18519.519610752337,1.1997841596603394,1.1610867977142334,1.5593950748443604,1.3872804641723633
18519.521610814663,1.2005937099456787,1.1617343425750732,1.5597188472747803,1.3877662420272827
18519.52361087699,1.2015652656555176,1.1617343425750732,1.5605283975601196,1.3877662420272827
18519.525610939316,1.1994602680206299,1.1614105701446533,1.560852289199829,1.3876042366027832
18519.527611001642,1.1996222734451294,1.1614105701446533,1.5603665113449097,1.3867946863174438
18519.52961106397,1.1996222734451294,1.1617343425750732,1.5603665113449097,1.3879281282424927
18519.531611126295,1.1994602680206299,1.1617343425750732,1.561176061630249,1.3874423503875732
18519.53361118862,1.1981650590896606,1.160762906074524,1.5606902837753296,1.386309027671814
18519.535611250947,1.1994602680206299,1.1612486839294434,1.5602046251296997,1.3877662420272827
18519.537611313273,1.1999460458755493,1.1615724563598633,1.5605283975601196,1.3882519006729126
18519.5396113756,1.2004318237304688,1.1615724563598633,1.5602046251296997,1.3882519006729126
18519.541611437926,1.2002699375152588,1.1623820066452026,1.5605283975601196,1.3879281282424927
18519.543611500252,1.2010794878005981,1.1622201204299927,1.561337947845459,1.3880900144577026
18519.545611562575,1.1997841596603394,1.1620582342147827,1.5616618394851685,1.3872804641723633
18519.5476116249,1.19881272315979,1.1620582342147827,1.561014175415039,1.386470913887024
18519.549611687227,1.1986507177352905,1.1617343425750732,1.5597188472747803,1.3869566917419434
18519.551611749554,1.1996222734451294,1.1622201204299927,1.5590711832046509,1.3861470222473145
18519.55361181188,1.198974609375,1.1622201204299927,1.5592330694198608,1.386309027671814
18519.555611874206,1.2002699375152588,1.1622201204299927,1.5598807334899902,1.3871185779571533
18519.557611936532,1.2007555961608887,1.1620582342147827,1.5605283975601196,1.3869566917419434
18519.55961199886,1.1999460458755493,1.1618963479995728,1.5605283975601196,1.3867946863174438
18519.561612061185,1.1996222734451294,1.1615724563598633,1.5606902837753296,1.3867946863174438
18519.56361212351,1.2010794878005981,1.1601152420043945,1.560852289199829,1.3867946863174438
18519.565612185837,1.19929838180542,1.1601152420043945,1.561014175415039,1.3856613636016846
18519.567612248164,1.1986507177352905,1.1601152420043945,1.5614999532699585,1.3858232498168945
18519.56961231049,1.19881272315979,1.1601152420043945,1.5618237257003784,1.3851755857467651
18519.571612372816,1.19881272315979,1.1602771282196045,1.5614999532699585,1.3858232498168945
18519.573612435142,1.1976792812347412,1.1601152420043945,1.560852289199829,1.386309027671814
18519.57561249747,1.1994602680206299,1.1610867977142334,1.5605283975601196,1.3867946863174438
18519.577612559795,1.1997841596603394,1.1614105701446533,1.5602046251296997,1.3867946863174438
18519.57961262212,1.19929838180542,1.1612486839294434,1.5597188472747803,1.386309027671814
18519.581612684447,1.19913649559021,1.1612486839294434,1.5600426197052002,1.3859851360321045
18519.58361274677,1.1996222734451294,1.160439133644104,1.5605283975601196,1.385499358177185
18519.585612809096,1.1980030536651611,1.160439133644104,1.5605283975601196,1.3856613636016846
18519.587612871423,1.1976792812347412,1.1609247922897339,1.5600426197052002,1.3858232498168945
18519.58961293375,1.1980030536651611,1.1610867977142334,1.5602046251296997,1.386309027671814
18519.591612996075,1.1981650590896606,1.1615724563598633,1.558747410774231,1.3859851360321045
18519.5936130584,1.1965458393096924,1.160601019859314,1.5585854053497314,1.3856613636016846
18519.595613120728,1.1973553895950317,1.1610867977142334,1.558909296989441,1.386309027671814
18519.597613183054,1.1975173950195312,1.1610867977142334,1.558747410774231,1.386309027671814
18519.59961324538,1.1975173950195312,1.1612486839294434,1.558747410774231,1.3869566917419434
18519.601613307706,1.1978411674499512,1.1609247922897339,1.5580997467041016,1.3866328001022339
18519.603613370033,1.19913649559021,1.1602771282196045,1.5582616329193115,1.3859851360321045
18519.60561343236,1.1981650590896606,1.160439133644104,1.5590711832046509,1.385337471961975
18519.607613494685,1.1981650590896606,1.160439133644104,1.5590711832046509,1.386470913887024
18519.60961355701,1.1981650590896606,1.1612486839294434,1.5593950748443604,1.385499358177185
18519.611613619338,1.1980030536651611,1.1617343425750732,1.5595569610595703,1.385337471961975
18519.613613681664,1.1970316171646118,1.1617343425750732,1.5585854053497314,1.3842041492462158
18519.61561374399,1.1981650590896606,1.1615724563598633,1.5580997467041016,1.3856613636016846
18519.617613806317,1.1978411674499512,1.1618963479995728,1.557937741279602,1.3859851360321045
18519.619613868643,1.1970316171646118,1.162867784500122,1.5582616329193115,1.3871185779571533
18519.62161393097,1.1981650590896606,1.162867784500122,1.558909296989441,1.3874423503875732
18519.623613993295,1.198974609375,1.162705898284912,1.5593950748443604,1.3874423503875732
18519.625614055618,1.1986507177352905,1.1615724563598633,1.5603665113449097,1.3867946863174438
18519.627614117944,1.1981650590896606,1.160762906074524,1.5605283975601196,1.3872804641723633
18519.62961418027,1.1983269453048706,1.1609247922897339,1.5606902837753296,1.3874423503875732
18519.631614242597,1.19881272315979,1.1617343425750732,1.561337947845459,1.3876042366027832
18519.633614304923,1.1986507177352905,1.1620582342147827,1.561337947845459,1.3867946863174438
18519.63561436725,1.19929838180542,1.1625440120697021,1.561176061630249,1.3874423503875732
18519.637614429575,1.19913649559021,1.162705898284912,1.5619856119155884,1.3874423503875732
18519.6396144919,1.1996222734451294,1.1623820066452026,1.5619856119155884,1.3867946863174438
18519.641614554228,1.1997841596603394,1.163029670715332,1.561337947845459,1.3871185779571533
18519.643614616554,1.2001079320907593,1.162867784500122,1.562147617340088,1.3876042366027832
18519.64561467888,1.19913649559021,1.163029670715332,1.562147617340088,1.3874423503875732
18519.647614741207,1.1996222734451294,1.1631916761398315,1.5614999532699585,1.3880900144577026
18519.649614803533,1.1996222734451294,1.1635154485702515,1.5624713897705078,1.3876042366027832
18519.65161486586,1.1996222734451294,1.1622201204299927,1.5631190538406372,1.3879281282424927
18519.653614928186,1.1980030536651611,1.162705898284912,1.5626332759857178,1.3874423503875732
18519.655614990512,1.2010794878005981,1.162867784500122,1.5631190538406372,1.3879281282424927
18519.657615052838,1.2009176015853882,1.163029670715332,1.5632809400558472,1.3879281282424927
18519.659615115164,1.2002699375152588,1.162705898284912,1.564414381980896,1.3880900144577026
18519.66161517749,1.2005937099456787,1.1633535623550415,1.564414381980896,1.3882519006729126
18519.663615239813,1.2018890380859375,1.1631916761398315,1.5634428262710571,1.3874423503875732
18519.66561530214,1.2010794878005981,1.1636773347854614,1.5639286041259766,1.3871185779571533
18519.667615364466,1.2001079320907593,1.1631916761398315,1.5639286041259766,1.3871185779571533
18519.669615426792,1.2002699375152588,1.162867784500122,1.5631190538406372,1.3869566917419434
18519.67161548912,1.2001079320907593,1.1636773347854614,1.5632809400558472,1.3877662420272827
18519.673615551445,1.19913649559021,1.1635154485702515,1.564414381980896,1.3874423503875732
18519.67561561377,1.2002699375152588,1.1635154485702515,1.564576268196106,1.388413906097412
18519.677615676097,1.1994602680206299,1.1631916761398315,1.5637667179107666,1.3882519006729126
18519.679615738423,1.19881272315979,1.1625440120697021,1.5624713897705078,1.388413906097412
18519.68161580075,1.19929838180542,1.163029670715332,1.561337947845459,1.388575792312622
18519.683615863076,1.1999460458755493,1.1633535623550415,1.561014175415039,1.388737678527832
18519.685615925402,1.19881272315979,1.164001226425171,1.561176061630249,1.3880900144577026
18519.68761598773,1.1986507177352905,1.163029670715332,1.5618237257003784,1.3872804641723633
18519.689616050055,1.1978411674499512,1.1625440120697021,1.5614999532699585,1.3877662420272827
18519.69161611238,1.1975173950195312,1.1620582342147827,1.5618237257003784,1.3876042366027832
18519.693616174707,1.1976792812347412,1.1617343425750732,1.5618237257003784,1.3874423503875732
18519.695616237033,1.1986507177352905,1.162867784500122,1.5595569610595703,1.3880900144577026
18519.69761629936,1.1981650590896606,1.163029670715332,1.5598807334899902,1.3874423503875732
18519.699616361686,1.1978411674499512,1.163029670715332,1.5606902837753296,1.3871185779571533
18519.701616424012,1.19913649559021,1.1625440120697021,1.5603665113449097,1.3866328001022339
18519.703616486335,1.1997841596603394,1.163029670715332,1.5602046251296997,1.3859851360321045
18519.70561654866,1.1975173950195312,1.163029670715332,1.5600426197052002,1.3859851360321045
18519.707616610987,1.1962220668792725,1.163029670715332,1.5592330694198608,1.3876042366027832
18519.709616673314,1.1960601806640625,1.1631916761398315,1.5595569610595703,1.3872804641723633
18519.71161673564,1.1960601806640625,1.1633535623550415,1.5598807334899902,1.3869566917419434
18519.713616797966,1.1960601806640625,1.1625440120697021,1.558909296989441,1.3869566917419434
18519.715616860292,1.1980030536651611,1.162705898284912,1.558909296989441,1.3871185779571533
18519.71761692262,1.1975173950195312,1.1623820066452026,1.5590711832046509,1.3867946863174438
18519.719616984945,1.1971935033798218,1.1618963479995728,1.5592330694198608,1.386470913887024
18519.72161704727,1.1970316171646118,1.1625440120697021,1.558909296989441,1.3866328001022339
18519.723617109597,1.19881272315979,1.1631916761398315,1.558909296989441,1.3877662420272827
18519.725617171924,1.1960601806640625,1.1622201204299927,1.5593950748443604,1.3876042366027832
18519.72761723425,1.195736289024353,1.1622201204299927,1.5592330694198608,1.3866328001022339
18519.729617296576,1.1963839530944824,1.1617343425750732,1.558747410774231,1.3859851360321045
18519.731617358902,1.1963839530944824,1.162705898284912,1.558747410774231,1.386470913887024
18519.73361742123,1.1946029663085938,1.1622201204299927,1.5584235191345215,1.3869566917419434
18519.735617483555,1.1968697309494019,1.1622201204299927,1.5590711832046509,1.3871185779571533
18519.73761754588,1.1971935033798218,1.1617343425750732,1.5584235191345215,1.3869566917419434
18519.739617608207,1.1971935033798218,1.1615724563598633,1.557937741279602,1.386309027671814
18519.741617670534,1.1971935033798218,1.1615724563598633,1.5582616329193115,1.385337471961975
18519.743617732856,1.1975173950195312,1.1620582342147827,1.5576139688491821,1.3851755857467651
18519.745617795183,1.195898175239563,1.1618963479995728,1.5572901964187622,1.3856613636016846
18519.74761785751,1.195898175239563,1.1612486839294434,1.5582616329193115,1.3858232498168945
18519.749617919835,1.1960601806640625,1.1610867977142334,1.5580997467041016,1.3851755857467651
18519.75161798216,1.1963839530944824,1.160762906074524,1.5584235191345215,1.3851755857467651
18519.753618044488,1.1952505111694336,1.160762906074524,1.557937741279602,1.385337471961975
18519.755618106814,1.1963839530944824,1.1612486839294434,1.558747410774231,1.3856613636016846
18519.75761816914,1.1962220668792725,1.1609247922897339,1.5582616329193115,1.3856613636016846
18519.759618231466,1.1960601806640625,1.160601019859314,1.5585854053497314,1.3850136995315552
18519.761618293793,1.195736289024353,1.1610867977142334,1.557937741279602,1.385499358177185
18519.76361835612,1.1971935033798218,1.1612486839294434,1.557775855064392,1.386470913887024
18519.765618418445,1.195574402809143,1.160762906074524,1.558747410774231,1.3856613636016846
18519.76761848077,1.195574402809143,1.1612486839294434,1.558747410774231,1.386470913887024
18519.769618543098,1.1950886249542236,1.1609247922897339,1.5582616329193115,1.3867946863174438
18519.771618605424,1.1952505111694336,1.1618963479995728,1.558909296989441,1.3856613636016846
18519.77361866775,1.1942790746688843,1.1625440120697021,1.558747410774231,1.3845279216766357
18519.775618730077,1.195898175239563,1.1623820066452026,1.558909296989441,1.3850136995315552
18519.777618792403,1.195898175239563,1.1620582342147827,1.5598807334899902,1.3850136995315552
18519.77961885473,1.1965458393096924,1.1620582342147827,1.5600426197052002,1.3858232498168945
18519.781618917055,1.195898175239563,1.1618963479995728,1.5593950748443604,1.3867946863174438
18519.783618979378,1.196707844734192,1.1615724563598633,1.558909296989441,1.386470913887024
18519.785619041704,1.1963839530944824,1.1625440120697021,1.558747410774231,1.385337471961975
18519.78761910403,1.1963839530944824,1.162705898284912,1.5592330694198608,1.385337471961975
18519.789619166357,1.1960601806640625,1.1625440120697021,1.5606902837753296,1.3856613636016846
18519.791619228683,1.1960601806640625,1.163029670715332,1.561337947845459,1.3858232498168945
18519.79361929101,1.1947648525238037,1.1623820066452026,1.5597188472747803,1.385337471961975
18519.795619353335,1.1970316171646118,1.1622201204299927,1.5593950748443604,1.386470913887024
18519.79761941566,1.1970316171646118,1.1623820066452026,1.5590711832046509,1.3869566917419434
18519.799619477988,1.1980030536651611,1.162705898284912,1.5597188472747803,1.3866328001022339
18519.801619540314,1.1980030536651611,1.1633535623550415,1.5598807334899902,1.3872804641723633
18519.80361960264,1.1980030536651611,1.1625440120697021,1.558909296989441,1.3872804641723633
18519.805619664967,1.1965458393096924,1.1623820066452026,1.5590711832046509,1.3851755857467651
18519.807619727293,1.1965458393096924,1.1623820066452026,1.5598807334899902,1.386309027671814
18519.80961978962,1.1962220668792725,1.1633535623550415,1.5597188472747803,1.3867946863174438
18519.811619851946,1.196707844734192,1.1633535623550415,1.5593950748443604,1.3867946863174438
18519.813619914272,1.195898175239563,1.163029670715332,1.5597188472747803,1.386470913887024
18519.815619976598,1.1973553895950317,1.1631916761398315,1.5597188472747803,1.3872804641723633
18519.817620038924,1.1980030536651611,1.163029670715332,1.5595569610595703,1.3872804641723633
18519.81962010125,1.1980030536651611,1.162867784500122,1.5597188472747803,1.3871185779571533
18519.821620163573,1.1971935033798218,1.162705898284912,1.5590711832046509,1.3877662420272827
18519.8236202259,1.1975173950195312,1.163029670715332,1.5590711832046509,1.3874423503875732
18519.825620288226,1.1963839530944824,1.1631916761398315,1.5585854053497314,1.3872804641723633
18519.827620350552,1.1970316171646118,1.162867784500122,1.5582616329193115,1.3874423503875732
18519.82962041288,1.1962220668792725,1.162867784500122,1.558747410774231,1.3871185779571533
18519.831620475205,1.1949267387390137,1.1631916761398315,1.558747410774231,1.386470913887024
18519.83362053753,1.1944409608840942,1.163029670715332,1.558747410774231,1.3874423503875732
18519.835620599857,1.195898175239563,1.1633535623550415,1.5592330694198608,1.3871185779571533
18519.837620662183,1.1963839530944824,1.1635154485702515,1.5592330694198608,1.3872804641723633
18519.83962072451,1.1970316171646118,1.1635154485702515,1.5592330694198608,1.3879281282424927
18519.841620786836,1.196707844734192,1.1625440120697021,1.5580997467041016,1.3872804641723633
18519.843620849162,1.1983269453048706,1.162867784500122,1.557937741279602,1.3869566917419434
18519.84562091149,1.1963839530944824,1.1623820066452026,1.5582616329193115,1.386309027671814
18519.847620973815,1.195736289024353,1.1625440120697021,1.5590711832046509,1.386309027671814
18519.84962103614,1.1962220668792725,1.162705898284912,1.5597188472747803,1.3851755857467651
18519.851621098467,1.1965458393096924,1.162867784500122,1.5592330694198608,1.3850136995315552
18519.853621160793,1.195736289024353,1.162705898284912,1.5593950748443604,1.3858232498168945
18519.85562122312,1.1973553895950317,1.162867784500122,1.5595569610595703,1.3866328001022339
18519.857621285446,1.1976792812347412,1.1633535623550415,1.5597188472747803,1.3872804641723633
18519.859621347772,1.1973553895950317,1.1641631126403809,1.5590711832046509,1.3880900144577026
18519.8616214101,1.1976792812347412,1.1644868850708008,1.5593950748443604,1.3877662420272827
18519.86362147242,1.19881272315979,1.164001226425171,1.5600426197052002,1.3880900144577026
18519.865621534747,1.1970316171646118,1.1635154485702515,1.5600426197052002,1.3872804641723633
18519.867621597074,1.1968697309494019,1.1636773347854614,1.560852289199829,1.3879281282424927
18519.8696216594,1.1975173950195312,1.1643249988555908,1.560852289199829,1.3876042366027832
18519.871621721726,1.1975173950195312,1.1644868850708008,1.561176061630249,1.3874423503875732
18519.873621784052,1.195736289024353,1.1643249988555908,1.561014175415039,1.3879281282424927
18519.87562184638,1.1970316171646118,1.1631916761398315,1.5605283975601196,1.3880900144577026
18519.877621908705,1.1976792812347412,1.1635154485702515,1.5603665113449097,1.3874423503875732
18519.87962197103,1.1980030536651611,1.1646488904953003,1.5603665113449097,1.3869566917419434
18519.881622033357,1.1978411674499512,1.1649726629257202,1.560852289199829,1.3872804641723633
18519.883622095684,1.1976792812347412,1.164001226425171,1.561014175415039,1.3874423503875732
18519.88562215801,1.1960601806640625,1.162867784500122,1.5614999532699585,1.3867946863174438
18519.887622220336,1.195412516593933,1.1625440120697021,1.5606902837753296,1.3861470222473145
18519.889622282662,1.1960601806640625,1.163029670715332,1.5605283975601196,1.386470913887024
18519.89162234499,1.195574402809143,1.1635154485702515,1.5595569610595703,1.3866328001022339
18519.893622407315,1.1937932968139648,1.1635154485702515,1.5595569610595703,1.3871185779571533
18519.89562246964,1.1952505111694336,1.1636773347854614,1.5600426197052002,1.3869566917419434
18519.897622531967,1.195412516593933,1.1638392210006714,1.5593950748443604,1.3872804641723633
18519.899622594294,1.195574402809143,1.164001226425171,1.5593950748443604,1.3879281282424927
18519.901622656616,1.1952505111694336,1.1638392210006714,1.5605283975601196,1.3871185779571533
18519.903622718943,1.196707844734192,1.163029670715332,1.5600426197052002,1.3866328001022339
18519.90562278127,1.1950886249542236,1.1638392210006714,1.5600426197052002,1.3858232498168945
18519.907622843595,1.195736289024353,1.164001226425171,1.5598807334899902,1.386309027671814
18519.90962290592,1.1960601806640625,1.1646488904953003,1.5598807334899902,1.3872804641723633
18519.911622968248,1.195574402809143,1.1651345491409302,1.5603665113449097,1.3872804641723633
18519.913623030574,1.195574402809143,1.1643249988555908,1.5597188472747803,1.3866328001022339
18519.9156230929,1.1970316171646118,1.164001226425171,1.5593950748443604,1.3871185779571533
18519.917623155226,1.1960601806640625,1.1644868850708008,1.5598807334899902,1.3871185779571533
18519.919623217553,1.195736289024353,1.1646488904953003,1.5593950748443604,1.3876042366027832
18519.92162327988,1.195898175239563,1.164001226425171,1.5593950748443604,1.3872804641723633
18519.923623342205,1.1971935033798218,1.1644868850708008,1.558747410774231,1.3871185779571533
18519.92562340453,1.195412516593933,1.1644868850708008,1.5584235191345215,1.3869566917419434
18519.927623466858,1.1946029663085938,1.1648107767105103,1.5595569610595703,1.3879281282424927
18519.929623529184,1.195574402809143,1.1649726629257202,1.5597188472747803,1.3879281282424927
18519.93162359151,1.1962220668792725,1.1643249988555908,1.5602046251296997,1.3876042366027832
18519.933623653837,1.1952505111694336,1.1635154485702515,1.5603665113449097,1.3876042366027832
18519.935623716163,1.1970316171646118,1.1638392210006714,1.5590711832046509,1.3882519006729126
18519.93762377849,1.1971935033798218,1.1638392210006714,1.5582616329193115,1.388413906097412
18519.939623840815,1.1963839530944824,1.1633535623550415,1.5585854053497314,1.3879281282424927
18519.941623903138,1.1968697309494019,1.162867784500122,1.5584235191345215,1.3877662420272827
18519.943623965464,1.1970316171646118,1.1636773347854614,1.5585854053497314,1.3869566917419434
18519.94562402779,1.1952505111694336,1.1643249988555908,1.558747410774231,1.3876042366027832
18519.947624090117,1.195898175239563,1.1643249988555908,1.5592330694198608,1.3882519006729126
18519.949624152443,1.1963839530944824,1.1638392210006714,1.5597188472747803,1.3880900144577026
18519.95162421477,1.1962220668792725,1.1641631126403809,1.558747410774231,1.3882519006729126
18519.953624277096,1.195412516593933,1.1633535623550415,1.5590711832046509,1.388575792312622
18519.95562433942,1.1968697309494019,1.162867784500122,1.5597188472747803,1.3880900144577026
18519.957624401748,1.196707844734192,1.163029670715332,1.5597188472747803,1.388899564743042
18519.959624464074,1.1965458393096924,1.1636773347854614,1.5595569610595703,1.3882519006729126
18519.9616245264,1.1963839530944824,1.164001226425171,1.5598807334899902,1.3872804641723633
18519.963624588727,1.1971935033798218,1.1648107767105103,1.558909296989441,1.3882519006729126
18519.965624651053,1.195412516593933,1.1649726629257202,1.5597188472747803,1.3876042366027832
18519.96762471338,1.195898175239563,1.1641631126403809,1.5595569610595703,1.3874423503875732
18519.969624775706,1.1963839530944824,1.1636773347854614,1.5593950748443604,1.3876042366027832
18519.971624838032,1.195898175239563,1.1636773347854614,1.5593950748443604,1.3872804641723633
18519.973624900358,1.1949267387390137,1.1633535623550415,1.5602046251296997,1.3874423503875732
18519.975624962684,1.1968697309494019,1.1633535623550415,1.5592330694198608,1.3866328001022339
18519.97762502501,1.1973553895950317,1.1638392210006714,1.5585854053497314,1.3871185779571533
18519.979625087333,1.1968697309494019,1.163029670715332,1.5584235191345215,1.3871185779571533
18519.98162514966,1.1965458393096924,1.1631916761398315,1.5585854053497314,1.3876042366027832
18519.983625211986,1.1975173950195312,1.1641631126403809,1.5585854053497314,1.3871185779571533
18519.985625274312,1.195412516593933,1.1638392210006714,1.5593950748443604,1.386309027671814
18519.98762533664,1.1952505111694336,1.162867784500122,1.5593950748443604,1.3867946863174438
18519.989625398965,1.1960601806640625,1.1631916761398315,1.5592330694198608,1.3866328001022339
18519.99162546129,1.1960601806640625,1.1631916761398315,1.5598807334899902,1.3858232498168945
18519.993625523617,1.195574402809143,1.1636773347854614,1.5580997467041016,1.3858232498168945
18519.995625585943,1.1973553895950317,1.162867784500122,1.5576139688491821,1.3867946863174438
18519.99762564827,1.1971935033798218,1.1620582342147827,1.5585854053497314,1.3871185779571533
18519.999625710596,1.196707844734192,1.1623820066452026,1.5592330694198608,1.3872804641723633
18520.001625772922,1.196707844734192,1.1623820066452026,1.5593950748443604,1.3871185779571533
18520.00362583525,1.1976792812347412,1.1617343425750732,1.5592330694198608,1.3869566917419434
18520.005625897575,1.195898175239563,1.1620582342147827,1.5580997467041016,1.3859851360321045
18520.0076259599,1.195412516593933,1.1617343425750732,1.5572901964187622,1.3858232498168945
18520.009626022227,1.195574402809143,1.1618963479995728,1.557937741279602,1.386470913887024
18520.011626084553,1.195412516593933,1.1622201204299927,1.558909296989441,1.3858232498168945
18520.01362614688,1.1947648525238037,1.162867784500122,1.5585854053497314,1.3856613636016846
18520.015626209206,1.1970316171646118,1.1638392210006714,1.5582616329193115,1.3861470222473145
18520.017626271532,1.1962220668792725,1.1638392210006714,1.558909296989441,1.3861470222473145
18520.01962633386,1.1963839530944824,1.162705898284912,1.5597188472747803,1.3859851360321045
18520.02162639618,1.1971935033798218,1.1623820066452026,1.5597188472747803,1.3869566917419434
18520.023626458507,1.1983269453048706,1.162705898284912,1.5595569610595703,1.3871185779571533
18520.025626520834,1.1962220668792725,1.1623820066452026,1.558747410774231,1.3866328001022339
18520.02762658316,1.195574402809143,1.1623820066452026,1.558909296989441,1.386309027671814
18520.029626645486,1.195574402809143,1.162705898284912,1.558747410774231,1.3861470222473145
18520.031626707812,1.1960601806640625,1.162867784500122,1.558747410774231,1.3856613636016846
18520.03362677014,1.1952505111694336,1.1625440120697021,1.558747410774231,1.3858232498168945
18520.035626832465,1.1963839530944824,1.162867784500122,1.5590711832046509,1.3866328001022339
18520.03762689479,1.1962220668792725,1.1638392210006714,1.5597188472747803,1.3866328001022339
18520.039626957117,1.1960601806640625,1.1636773347854614,1.5595569610595703,1.3861470222473145
18520.041627019444,1.1965458393096924,1.163029670715332,1.5593950748443604,1.3856613636016846
18520.04362708177,1.1978411674499512,1.1612486839294434,1.5592330694198608,1.3861470222473145
18520.045627144096,1.196707844734192,1.1622201204299927,1.5597188472747803,1.3858232498168945
18520.047627206422,1.196707844734192,1.1631916761398315,1.5602046251296997,1.386309027671814
18520.04962726875,1.1965458393096924,1.163029670715332,1.5600426197052002,1.3867946863174438
18520.051627331075,1.1963839530944824,1.1623820066452026,1.5590711832046509,1.3869566917419434
18520.0536273934,1.1960601806640625,1.1620582342147827,1.558909296989441,1.3872804641723633
18520.055627455728,1.1978411674499512,1.162867784500122,1.558909296989441,1.3874423503875732
18520.057627518054,1.1976792812347412,1.1631916761398315,1.5600426197052002,1.3869566917419434
18520.059627580376,1.1976792812347412,1.1631916761398315,1.5603665113449097,1.3872804641723633
18520.061627642703,1.1980030536651611,1.162867784500122,1.5598807334899902,1.3871185779571533
18520.06362770503,1.1980030536651611,1.162705898284912,1.5598807334899902,1.3874423503875732
18520.065627767355,1.195736289024353,1.1633535623550415,1.5606902837753296,1.3866328001022339
18520.06762782968,1.1965458393096924,1.162867784500122,1.5603665113449097,1.386470913887024
18520.069627892008,1.1968697309494019,1.162705898284912,1.5600426197052002,1.3859851360321045
18520.071627954334,1.1968697309494019,1.1631916761398315,1.5597188472747803,1.3869566917419434
18520.07362801666,1.1962220668792725,1.1635154485702515,1.5603665113449097,1.3872804641723633
18520.075628078986,1.1978411674499512,1.1633535623550415,1.5600426197052002,1.388575792312622
18520.077628141313,1.1986507177352905,1.1633535623550415,1.5605283975601196,1.3882519006729126
18520.07962820364,1.1981650590896606,1.1641631126403809,1.5602046251296997,1.3872804641723633
18520.081628265965,1.19881272315979,1.164001226425171,1.5598807334899902,1.388413906097412
18520.08362832829,1.198974609375,1.164001226425171,1.5605283975601196,1.3877662420272827
18520.085628390618,1.1981650590896606,1.1635154485702515,1.5605283975601196,1.3874423503875732
18520.087628452944,1.1983269453048706,1.1638392210006714,1.5606902837753296,1.3874423503875732
18520.08962851527,1.19913649559021,1.1638392210006714,1.561014175415039,1.3869566917419434
18520.091628577597,1.1984888315200806,1.1631916761398315,1.561014175415039,1.3861470222473145
18520.093628639923,1.1973553895950317,1.163029670715332,1.5606902837753296,1.3867946863174438
18520.09562870225,1.19881272315979,1.1625440120697021,1.5595569610595703,1.388899564743042
18520.097628764575,1.19881272315979,1.1623820066452026,1.5600426197052002,1.388737678527832
18520.099628826898,1.1983269453048706,1.163029670715332,1.5600426197052002,1.3877662420272827
18520.101628889224,1.1981650590896606,1.1625440120697021,1.5606902837753296,1.3877662420272827
18520.10362895155,1.1976792812347412,1.162705898284912,1.561176061630249,1.3874423503875732
18520.105629013877,1.1973553895950317,1.162705898284912,1.5606902837753296,1.3867946863174438
18520.107629076203,1.1978411674499512,1.163029670715332,1.5598807334899902,1.3872804641723633
18520.10962913853,1.1980030536651611,1.1636773347854614,1.5603665113449097,1.3866328001022339
18520.111629200856,1.1971935033798218,1.1638392210006714,1.5605283975601196,1.3866328001022339
18520.11362926318,1.1963839530944824,1.163029670715332,1.5603665113449097,1.386309027671814
18520.115629325508,1.1980030536651611,1.162867784500122,1.560852289199829,1.386470913887024
18520.117629387834,1.1980030536651611,1.1633535623550415,1.5606902837753296,1.3858232498168945
18520.11962945016,1.1980030536651611,1.1633535623550415,1.5597188472747803,1.3859851360321045
18520.121629512487,1.1983269453048706,1.162867784500122,1.5595569610595703,1.3861470222473145
18520.123629574813,1.1994602680206299,1.163029670715332,1.5593950748443604,1.3861470222473145
18520.12562963714,1.1973553895950317,1.162867784500122,1.5595569610595703,1.3866328001022339
18520.127629699466,1.1975173950195312,1.162705898284912,1.560852289199829,1.3869566917419434
18520.129629761792,1.1986507177352905,1.1633535623550415,1.5598807334899902,1.3872804641723633
18520.131629824118,1.1978411674499512,1.1622201204299927,1.5595569610595703,1.3874423503875732
18520.133629886444,1.1968697309494019,1.1614105701446533,1.5600426197052002,1.3877662420272827
18520.13562994877,1.19881272315979,1.1622201204299927,1.5605283975601196,1.3869566917419434
18520.137630011093,1.19881272315979,1.1623820066452026,1.560852289199829,1.3859851360321045
18520.13963007342,1.1984888315200806,1.163029670715332,1.561176061630249,1.3867946863174438
18520.141630135746,1.19881272315979,1.1631916761398315,1.5606902837753296,1.3871185779571533
18520.143630198072,1.1997841596603394,1.163029670715332,1.5603665113449097,1.3869566917419434
18520.1456302604,1.1976792812347412,1.1633535623550415,1.561176061630249,1.3859851360321045
18520.147630322725,1.1970316171646118,1.162867784500122,1.561176061630249,1.3867946863174438
18520.14963038505,1.1970316171646118,1.1622201204299927,1.561337947845459,1.386470913887024
18520.151630447377,1.196707844734192,1.163029670715332,1.5602046251296997,1.3872804641723633
18520.153630509703,1.1962220668792725,1.163029670715332,1.5598807334899902,1.3872804641723633
18520.15563057203,1.1980030536651611,1.1631916761398315,1.5605283975601196,1.3869566917419434
18520.157630634356,1.1978411674499512,1.163029670715332,1.5614999532699585,1.3866328001022339
18520.159630696682,1.1978411674499512,1.163029670715332,1.560852289199829,1.3856613636016846
18520.16163075901,1.1986507177352905,1.1622201204299927,1.561176061630249,1.3859851360321045
18520.163630821335,1.1994602680206299,1.1617343425750732,1.5606902837753296,1.386309027671814
18520.16563088366,1.1980030536651611,1.1617343425750732,1.561014175415039,1.3871185779571533
18520.167630945987,1.1981650590896606,1.1609247922897339,1.561176061630249,1.3867946863174438
18520.169631008313,1.1981650590896606,1.1610867977142334,1.561337947845459,1.386309027671814
18520.17163107064,1.1981650590896606,1.1623820066452026,1.561176061630249,1.386309027671814
18520.173631132966,1.1971935033798218,1.1617343425750732,1.5603665113449097,1.3866328001022339
18520.175631195292,1.1978411674499512,1.1610867977142334,1.5603665113449097,1.3869566917419434
18520.17763125762,1.1971935033798218,1.1614105701446533,1.5605283975601196,1.3859851360321045
18520.17963131994,1.1976792812347412,1.1614105701446533,1.5592330694198608,1.3861470222473145
18520.181631382267,1.1973553895950317,1.1617343425750732,1.558909296989441,1.3866328001022339
18520.183631444594,1.1984888315200806,1.1618963479995728,1.5598807334899902,1.3866328001022339
18520.18563150692,1.1976792812347412,1.1625440120697021,1.5605283975601196,1.385337471961975
18520.187631569246,1.1981650590896606,1.1615724563598633,1.5618237257003784,1.3851755857467651
18520.189631631572,1.1981650590896606,1.1609247922897339,1.5614999532699585,1.3858232498168945
18520.1916316939,1.1971935033798218,1.1620582342147827,1.561014175415039,1.3856613636016846
18520.193631756225,1.1963839530944824,1.1622201204299927,1.5606902837753296,1.385337471961975
18520.19563181855,1.1983269453048706,1.1618963479995728,1.5600426197052002,1.3859851360321045
18520.197631880877,1.19929838180542,1.1618963479995728,1.5603665113449097,1.386309027671814
18520.199631943204,1.19913649559021,1.1615724563598633,1.5600426197052002,1.386309027671814
18520.20163200553,1.1996222734451294,1.1620582342147827,1.5606902837753296,1.3861470222473145
18520.203632067856,1.1999460458755493,1.1622201204299927,1.561337947845459,1.386470913887024
18520.205632130182,1.1980030536651611,1.1622201204299927,1.561014175415039,1.3866328001022339
18520.20763219251,1.1978411674499512,1.1615724563598633,1.561176061630249,1.3866328001022339
18520.209632254835,1.1986507177352905,1.1618963479995728,1.5605283975601196,1.3872804641723633
18520.21163231716,1.1986507177352905,1.1618963479995728,1.561176061630249,1.3861470222473145
18520.213632379488,1.1983269453048706,1.1620582342147827,1.5616618394851685,1.3858232498168945
18520.215632441814,1.19929838180542,1.1625440120697021,1.5623095035552979,1.3871185779571533
18520.217632504136,1.19913649559021,1.162705898284912,1.5618237257003784,1.3866328001022339
18520.219632566463,1.1994602680206299,1.162705898284912,1.5616618394851685,1.386309027671814
18520.22163262879,1.1999460458755493,1.1610867977142334,1.5616618394851685,1.3866328001022339
18520.223632691115,1.2009176015853882,1.1618963479995728,1.5616618394851685,1.3866328001022339
18520.22563275344,1.1996222734451294,1.1625440120697021,1.560852289199829,1.3850136995315552
18520.227632815768,1.2001079320907593,1.1625440120697021,1.5614999532699585,1.3856613636016846
18520.229632878094,1.2005937099456787,1.1625440120697021,1.5618237257003784,1.3856613636016846
18520.23163294042,1.198974609375,1.1625440120697021,1.562147617340088,1.3861470222473145
18520.233633002747,1.1980030536651611,1.1631916761398315,1.560852289199829,1.386309027671814
18520.235633065073,1.1997841596603394,1.1625440120697021,1.561014175415039,1.3874423503875732
18520.2376331274,1.198974609375,1.1625440120697021,1.5624713897705078,1.3869566917419434
18520.239633189725,1.2001079320907593,1.162705898284912,1.562147617340088,1.386470913887024
18520.24163325205,1.2009176015853882,1.1623820066452026,1.5627951622009277,1.3872804641723633
18520.243633314378,1.202374815940857,1.1609247922897339,1.5632809400558472,1.3869566917419434
18520.245633376704,1.2004318237304688,1.1609247922897339,1.5626332759857178,1.386309027671814
18520.24763343903,1.2010794878005981,1.1617343425750732,1.5624713897705078,1.386309027671814
18520.249633501357,1.201403260231018,1.1625440120697021,1.5632809400558472,1.386470913887024
18520.251633563683,1.2004318237304688,1.162705898284912,1.5639286041259766,1.3871185779571533
18520.25363362601,1.1997841596603394,1.162867784500122,1.564414381980896,1.3867946863174438
18520.255633688335,1.2015652656555176,1.1625440120697021,1.564252495765686,1.386470913887024
18520.257633750658,1.201241374015808,1.162867784500122,1.5623095035552979,1.386309027671814
18520.259633812984,1.2010794878005981,1.1622201204299927,1.5627951622009277,1.3871185779571533
18520.26163387531,1.2017271518707275,1.1617343425750732,1.5634428262710571,1.3874423503875732
18520.263633937637,1.2018890380859375,1.1620582342147827,1.5636048316955566,1.3872804641723633
18520.265633999963,1.1999460458755493,1.1615724563598633,1.5624713897705078,1.386309027671814
18520.26763406229,1.1999460458755493,1.1614105701446533,1.5637667179107666,1.385499358177185
18520.269634124616,1.2002699375152588,1.1609247922897339,1.5632809400558472,1.3850136995315552
18520.27163418694,1.2002699375152588,1.1615724563598633,1.5637667179107666,1.3843660354614258
18520.273634249268,1.2007555961608887,1.1614105701446533,1.5626332759857178,1.3856613636016846
18520.275634311594,1.2009176015853882,1.1609247922897339,1.5627951622009277,1.386470913887024
18520.27763437392,1.2010794878005981,1.160601019859314,1.5629571676254272,1.386470913887024
18520.279634436247,1.2010794878005981,1.1612486839294434,1.5627951622009277,1.3856613636016846
18520.281634498573,1.2010794878005981,1.1601152420043945,1.5629571676254272,1.3858232498168945
18520.2836345609,1.2009176015853882,1.160762906074524,1.5631190538406372,1.386470913887024
18520.285634623226,1.19929838180542,1.1612486839294434,1.5636048316955566,1.3858232498168945
18520.287634685552,1.198974609375,1.160439133644104,1.5634428262710571,1.385337471961975
18520.289634747878,1.198974609375,1.160762906074524,1.5636048316955566,1.3861470222473145
18520.291634810204,1.19881272315979,1.1615724563598633,1.5632809400558472,1.3848518133163452
18520.29363487253,1.1984888315200806,1.1609247922897339,1.5626332759857178,1.3845279216766357
18520.295634934857,1.1999460458755493,1.1612486839294434,1.562147617340088,1.3846898078918457
18520.29763499718,1.1996222734451294,1.1617343425750732,1.561337947845459,1.3843660354614258
18520.299635059506,1.1997841596603394,1.1614105701446533,1.5619856119155884,1.3837183713912964
18520.301635121832,1.1999460458755493,1.1609247922897339,1.5629571676254272,1.3840421438217163
18520.30363518416,1.201241374015808,1.1609247922897339,1.5631190538406372,1.3843660354614258
18520.305635246485,1.1996222734451294,1.1612486839294434,1.5631190538406372,1.3850136995315552
18520.30763530881,1.1996222734451294,1.1610867977142334,1.5623095035552979,1.3845279216766357
18520.309635371137,1.198974609375,1.1601152420043945,1.5619856119155884,1.3838802576065063
18520.311635433463,1.1983269453048706,1.160601019859314,1.5619856119155884,1.3835564851760864
18520.31363549579,1.1983269453048706,1.160762906074524,1.5626332759857178,1.3840421438217163
18520.315635558116,1.1997841596603394,1.1609247922897339,1.5626332759857178,1.3842041492462158
18520.317635620442,1.1997841596603394,1.160439133644104,1.562147617340088,1.383394479751587
18520.31963568277,1.1994602680206299,1.160601019859314,1.5619856119155884,1.3840421438217163
18520.321635745095,1.1997841596603394,1.1610867977142334,1.5618237257003784,1.3842041492462158
18520.32363580742,1.2009176015853882,1.1610867977142334,1.561176061630249,1.3840421438217163
18520.325635869747,1.1994602680206299,1.160762906074524,1.560852289199829,1.3838802576065063
18520.327635932073,1.1983269453048706,1.1610867977142334,1.5614999532699585,1.3838802576065063
18520.3296359944,1.1978411674499512,1.1615724563598633,1.5618237257003784,1.383394479751587
18520.331636056726,1.1981650590896606,1.160601019859314,1.5626332759857178,1.3825849294662476
18520.333636119052,1.1981650590896606,1.160762906074524,1.5626332759857178,1.3840421438217163
18520.33563618138,1.1999460458755493,1.1615724563598633,1.5629571676254272,1.385337471961975
18520.3376362437,1.19929838180542,1.1618963479995728,1.5632809400558472,1.3856613636016846
18520.339636306027,1.19913649559021,1.1614105701446533,1.5637667179107666,1.3851755857467651
18520.341636368354,1.2001079320907593,1.1612486839294434,1.5636048316955566,1.3846898078918457
18520.34363643068,1.2004318237304688,1.1612486839294434,1.564576268196106,1.3845279216766357
18520.345636493006,1.19913649559021,1.1609247922897339,1.5649000406265259,1.3850136995315552
18520.347636555332,1.1996222734451294,1.1609247922897339,1.564576268196106,1.3850136995315552
18520.34963661766,1.1994602680206299,1.160601019859314,1.5649000406265259,1.385337471961975
18520.351636679985,1.1999460458755493,1.1609247922897339,1.564252495765686,1.385337471961975
18520.35363674231,1.1996222734451294,1.1609247922897339,1.5636048316955566,1.3848518133163452
18520.355636804637,1.201241374015808,1.1614105701446533,1.5649000406265259,1.385499358177185
18520.357636866964,1.201241374015808,1.160762906074524,1.5655477046966553,1.3861470222473145
18520.35963692929,1.2015652656555176,1.1610867977142334,1.5657097101211548,1.3858232498168945
18520.361636991616,1.2018890380859375,1.1615724563598633,1.5655477046966553,1.385499358177185
18520.363637053943,1.2026985883712769,1.1610867977142334,1.5655477046966553,1.3861470222473145
18520.36563711627,1.2010794878005981,1.1620582342147827,1.5653858184814453,1.385337471961975
18520.367637178595,1.201403260231018,1.1622201204299927,1.5655477046966553,1.3843660354614258
18520.36963724092,1.201403260231018,1.1617343425750732,1.5657097101211548,1.3845279216766357
18520.371637303248,1.201241374015808,1.1610867977142334,1.5660334825515747,1.3845279216766357
18520.373637365574,1.2020509243011475,1.1602771282196045,1.5663573741912842,1.385337471961975
18520.375637427896,1.2033462524414062,1.160762906074524,1.5658715963363647,1.3856613636016846
18520.377637490223,1.2028604745864868,1.1609247922897339,1.5655477046966553,1.3856613636016846
18520.37963755255,1.2030224800109863,1.1618963479995728,1.5653858184814453,1.3856613636016846
18520.381637614875,1.2026985883712769,1.1614105701446533,1.564414381980896,1.3858232498168945
18520.3836376772,1.2015652656555176,1.1615724563598633,1.5636048316955566,1.385499358177185
18520.385637739528,1.2004318237304688,1.1609247922897339,1.5637667179107666,1.3843660354614258
18520.387637801854,1.2007555961608887,1.1614105701446533,1.564252495765686,1.3846898078918457
18520.38963786418,1.2009176015853882,1.160601019859314,1.564414381980896,1.3843660354614258
18520.391637926507,1.2005937099456787,1.160762906074524,1.564576268196106,1.3845279216766357
18520.393637988833,1.1994602680206299,1.160439133644104,1.564738154411316,1.3848518133163452
18520.39563805116,1.2010794878005981,1.160601019859314,1.5639286041259766,1.3843660354614258
18520.397638113485,1.2010794878005981,1.160601019859314,1.5639286041259766,1.383232593536377
18520.39963817581,1.2009176015853882,1.1602771282196045,1.5637667179107666,1.383232593536377
18520.401638238138,1.2004318237304688,1.1593056917190552,1.5626332759857178,1.3838802576065063
18520.403638300464,1.2009176015853882,1.1597914695739746,1.5626332759857178,1.3840421438217163
18520.40563836279,1.1994602680206299,1.160601019859314,1.5627951622009277,1.3835564851760864
18520.407638425117,1.1997841596603394,1.1609247922897339,1.5639286041259766,1.383394479751587
18520.409638487443,1.2004318237304688,1.160762906074524,1.5626332759857178,1.3837183713912964
18520.41163854977,1.2004318237304688,1.1609247922897339,1.5636048316955566,1.382746934890747
18520.413638612095,1.19913649559021,1.1602771282196045,1.5636048316955566,1.383394479751587
18520.41563867442,1.19913649559021,1.160439133644104,1.5632809400558472,1.3837183713912964
18520.417638736744,1.1994602680206299,1.1610867977142334,1.5624713897705078,1.3835564851760864
18520.41963879907,1.19913649559021,1.160762906074524,1.5626332759857178,1.383394479751587
18520.421638861397,1.1997841596603394,1.160601019859314,1.5627951622009277,1.382908821105957
18520.423638923723,1.1999460458755493,1.1602771282196045,1.5631190538406372,1.382746934890747
18520.42563898605,1.1986507177352905,1.159629464149475,1.5631190538406372,1.3822611570358276
18520.427639048376,1.19929838180542,1.159629464149475,1.5639286041259766,1.383394479751587
18520.429639110702,1.1996222734451294,1.160762906074524,1.5639286041259766,1.3835564851760864
18520.431639173028,1.19881272315979,1.160439133644104,1.5627951622009277,1.383394479751587
18520.433639235354,1.19881272315979,1.159629464149475,1.562147617340088,1.383394479751587
18520.43563929768,1.2001079320907593,1.160439133644104,1.5626332759857178,1.3837183713912964
18520.437639360007,1.1999460458755493,1.1614105701446533,1.5627951622009277,1.3838802576065063
18520.439639422333,1.198974609375,1.1610867977142334,1.5626332759857178,1.3840421438217163
18520.44163948466,1.1997841596603394,1.1610867977142334,1.5626332759857178,1.3838802576065063
18520.443639546986,1.1997841596603394,1.160439133644104,1.5637667179107666,1.3845279216766357
18520.445639609312,1.1980030536651611,1.1602771282196045,1.5639286041259766,1.3842041492462158
18520.447639671638,1.1978411674499512,1.1610867977142334,1.5626332759857178,1.383394479751587
18520.449639733964,1.1978411674499512,1.1610867977142334,1.5632809400558472,1.383070707321167
18520.45163979629,1.1975173950195312,1.1602771282196045,1.5637667179107666,1.383070707321167
18520.453639858617,1.1971935033798218,1.160762906074524,1.5629571676254272,1.3835564851760864
18520.45563992094,1.19913649559021,1.1610867977142334,1.5626332759857178,1.383070707321167
18520.457639983266,1.1994602680206299,1.1614105701446533,1.5624713897705078,1.383232593536377
18520.459640045592,1.19913649559021,1.1612486839294434,1.5626332759857178,1.3840421438217163
18520.46164010792,1.1986507177352905,1.1617343425750732,1.5619856119155884,1.383232593536377
18520.463640170245,1.1975173950195312,1.1612486839294434,1.561337947845459,1.382908821105957
18520.46564023257,1.195736289024353,1.1610867977142334,1.561176061630249,1.3835564851760864
18520.467640294897,1.195574402809143,1.1610867977142334,1.5619856119155884,1.383394479751587
18520.469640357223,1.195574402809143,1.160601019859314,1.5614999532699585,1.3825849294662476
18520.47164041955,1.1960601806640625,1.160601019859314,1.5603665113449097,1.382746934890747
18520.473640481876,1.1952505111694336,1.160439133644104,1.561014175415039,1.382908821105957
18520.475640544202,1.195898175239563,1.1614105701446533,1.5616618394851685,1.3835564851760864
18520.47764060653,1.195736289024353,1.1609247922897339,1.561014175415039,1.3838802576065063
18520.479640668855,1.1949267387390137,1.1612486839294434,1.5606902837753296,1.383070707321167
18520.48164073118,1.1965458393096924,1.1620582342147827,1.5603665113449097,1.3838802576065063
18520.483640793507,1.1970316171646118,1.1622201204299927,1.5602046251296997,1.383394479751587
18520.485640855833,1.1952505111694336,1.1618963479995728,1.5606902837753296,1.383232593536377
18520.48764091816,1.1952505111694336,1.1618963479995728,1.5606902837753296,1.382746934890747
18520.489640980486,1.195412516593933,1.1612486839294434,1.5602046251296997,1.3816134929656982
18520.491641042812,1.195736289024353,1.1614105701446533,1.5605283975601196,1.3817753791809082
18520.49364110514,1.1949267387390137,1.160762906074524,1.561176061630249,1.3837183713912964
18520.49564116746,1.1963839530944824,1.160601019859314,1.561337947845459,1.3840421438217163
18520.497641229787,1.1971935033798218,1.1609247922897339,1.560852289199829,1.382908821105957
18520.499641292114,1.1968697309494019,1.1609247922897339,1.5614999532699585,1.3824230432510376
18520.50164135444,1.1971935033798218,1.1609247922897339,1.5616618394851685,1.3838802576065063
18520.503641416766,1.1976792812347412,1.1612486839294434,1.5619856119155884,1.3837183713912964
18520.505641479092,1.1968697309494019,1.1615724563598633,1.5618237257003784,1.3835564851760864
18520.50764154142,1.1962220668792725,1.1622201204299927,1.5618237257003784,1.3840421438217163
18520.509641603745,1.1960601806640625,1.1612486839294434,1.562147617340088,1.383232593536377
18520.51164166607,1.1963839530944824,1.1609247922897339,1.5619856119155884,1.3835564851760864
18520.513641728397,1.1963839530944824,1.1612486839294434,1.5623095035552979,1.3842041492462158
18520.515641790724,1.1981650590896606,1.1615724563598633,1.5632809400558472,1.3843660354614258
18520.51764185305,1.1986507177352905,1.1618963479995728,1.5639286041259766,1.3838802576065063
18520.519641915376,1.1983269453048706,1.1620582342147827,1.5632809400558472,1.3837183713912964
18520.521641977703,1.1978411674499512,1.1618963479995728,1.5631190538406372,1.3845279216766357
18520.52364204003,1.1978411674499512,1.1617343425750732,1.5634428262710571,1.3838802576065063
18520.525642102355,1.1973553895950317,1.1631916761398315,1.5632809400558472,1.3835564851760864
18520.52764216468,1.1986507177352905,1.163029670715332,1.5631190538406372,1.3845279216766357
18520.529642227008,1.1986507177352905,1.1618963479995728,1.5637667179107666,1.3846898078918457
18520.531642289334,1.1978411674499512,1.1614105701446533,1.5634428262710571,1.3840421438217163
18520.533642351656,1.1980030536651611,1.1618963479995728,1.5639286041259766,1.3840421438217163
18520.535642413983,1.1999460458755493,1.1623820066452026,1.5650620460510254,1.3856613636016846
18520.53764247631,1.2004318237304688,1.162867784500122,1.5650620460510254,1.385337471961975
18520.539642538635,1.1999460458755493,1.1631916761398315,1.5652239322662354,1.3851755857467651
18520.54164260096,1.2007555961608887,1.163029670715332,1.5650620460510254,1.386309027671814
18520.543642663288,1.2010794878005981,1.1641631126403809,1.5653858184814453,1.385337471961975
18520.545642725614,1.19929838180542,1.1638392210006714,1.5660334825515747,1.3859851360321045
18520.54764278794,1.19929838180542,1.163029670715332,1.566681146621704,1.3859851360321045
18520.549642850267,1.2001079320907593,1.1635154485702515,1.5657097101211548,1.3850136995315552
18520.551642912593,1.2001079320907593,1.162867784500122,1.5661953687667847,1.3850136995315552
18520.55364297492,1.1997841596603394,1.1623820066452026,1.5658715963363647,1.3856613636016846
18520.555643037245,1.2009176015853882,1.163029670715332,1.5665192604064941,1.3858232498168945
18520.55764309957,1.201403260231018,1.1633535623550415,1.566843032836914,1.386470913887024
18520.559643161898,1.2010794878005981,1.1631916761398315,1.5671669244766235,1.386309027671814
18520.561643224224,1.2015652656555176,1.1635154485702515,1.5665192604064941,1.3872804641723633
18520.56364328655,1.2010794878005981,1.1638392210006714,1.5671669244766235,1.3869566917419434
18520.565643348877,1.2002699375152588,1.1644868850708008,1.5673288106918335,1.3859851360321045
18520.567643411203,1.2010794878005981,1.1643249988555908,1.5674906969070435,1.3858232498168945
18520.56964347353,1.2009176015853882,1.164001226425171,1.5670050382614136,1.3858232498168945
18520.571643535855,1.2009176015853882,1.1638392210006714,1.566843032836914,1.3859851360321045
18520.57364359818,1.2005937099456787,1.1636773347854614,1.566843032836914,1.386309027671814
18520.575643660504,1.2018890380859375,1.1644868850708008,1.5673288106918335,1.3867946863174438
18520.57764372283,1.2018890380859375,1.1636773347854614,1.567814588546753,1.386309027671814
18520.579643785157,1.2009176015853882,1.1631916761398315,1.566681146621704,1.3856613636016846
18520.581643847483,1.201403260231018,1.1641631126403809,1.566681146621704,1.3859851360321045
18520.58364390981,1.2010794878005981,1.164001226425171,1.5657097101211548,1.385337471961975
18520.585643972136,1.2004318237304688,1.1638392210006714,1.5661953687667847,1.3848518133163452
18520.587644034462,1.1997841596603394,1.1636773347854614,1.5665192604064941,1.3848518133163452
18520.589644096788,1.1997841596603394,1.162705898284912,1.5658715963363647,1.3850136995315552
18520.591644159114,1.19913649559021,1.162705898284912,1.564576268196106,1.385499358177185
18520.59364422144,1.1983269453048706,1.162867784500122,1.564414381980896,1.3850136995315552
18520.595644283767,1.1986507177352905,1.1641631126403809,1.564414381980896,1.3843660354614258
18520.597644346093,1.1981650590896606,1.1631916761398315,1.564252495765686,1.3842041492462158
18520.59964440842,1.1973553895950317,1.162705898284912,1.564414381980896,1.3843660354614258
18520.601644470746,1.1983269453048706,1.1625440120697021,1.5640904903411865,1.3845279216766357
18520.603644533072,1.198974609375,1.1623820066452026,1.5639286041259766,1.3850136995315552
18520.6056445954,1.1978411674499512,1.1620582342147827,1.5632809400558472,1.3848518133163452
18520.607644657724,1.1973553895950317,1.1612486839294434,1.5623095035552979,1.3856613636016846
18520.60964472005,1.1975173950195312,1.1617343425750732,1.5623095035552979,1.3848518133163452
18520.611644782377,1.1965458393096924,1.1625440120697021,1.5618237257003784,1.3842041492462158
18520.6136448447,1.1952505111694336,1.1633535623550415,1.561176061630249,1.3843660354614258
18520.615644907026,1.1963839530944824,1.1623820066452026,1.5619856119155884,1.3843660354614258
18520.617644969352,1.1962220668792725,1.1623820066452026,1.5623095035552979,1.3843660354614258
18520.61964503168,1.1963839530944824,1.162705898284912,1.5623095035552979,1.3842041492462158
18520.621645094005,1.196707844734192,1.1618963479995728,1.5619856119155884,1.3851755857467651
18520.62364515633,1.1968697309494019,1.162867784500122,1.562147617340088,1.3845279216766357
18520.625645218657,1.195412516593933,1.162705898284912,1.5614999532699585,1.3838802576065063
18520.627645280983,1.1963839530944824,1.1623820066452026,1.5619856119155884,1.3837183713912964
18520.62964534331,1.1968697309494019,1.1618963479995728,1.561337947845459,1.3840421438217163
18520.631645405636,1.1950886249542236,1.1620582342147827,1.560852289199829,1.3835564851760864
18520.633645467962,1.1941171884536743,1.1623820066452026,1.5606902837753296,1.3837183713912964
18520.63564553029,1.195574402809143,1.1618963479995728,1.561014175415039,1.3840421438217163
18520.637645592615,1.195736289024353,1.1625440120697021,1.561014175415039,1.3850136995315552
18520.63964565494,1.1946029663085938,1.162867784500122,1.5616618394851685,1.3843660354614258
18520.641645717267,1.195412516593933,1.162867784500122,1.560852289199829,1.3845279216766357
18520.643645779593,1.1952505111694336,1.1623820066452026,1.5605283975601196,1.3843660354614258
18520.64564584192,1.1942790746688843,1.1622201204299927,1.561176061630249,1.3845279216766357
18520.647645904246,1.1942790746688843,1.1622201204299927,1.561014175415039,1.3843660354614258
18520.649645966572,1.1949267387390137,1.1633535623550415,1.561337947845459,1.3850136995315552
18520.6516460289,1.1946029663085938,1.1638392210006714,1.5616618394851685,1.3850136995315552
18520.65364609122,1.1939553022384644,1.1625440120697021,1.560852289199829,1.385337471961975
18520.655646153547,1.195412516593933,1.1633535623550415,1.561337947845459,1.3850136995315552
18520.657646215874,1.195412516593933,1.163029670715332,1.561176061630249,1.3845279216766357
18520.6596462782,1.195412516593933,1.1636773347854614,1.5618237257003784,1.385337471961975
18520.661646340526,1.1962220668792725,1.1643249988555908,1.5614999532699585,1.3856613636016846
18520.663646402852,1.1960601806640625,1.1643249988555908,1.561337947845459,1.385337471961975
18520.66564646518,1.1944409608840942,1.1635154485702515,1.5606902837753296,1.3843660354614258
18520.667646527505,1.1946029663085938,1.1636773347854614,1.5605283975601196,1.3848518133163452
18520.66964658983,1.1952505111694336,1.1636773347854614,1.561176061630249,1.385337471961975
18520.671646652158,1.1949267387390137,1.162867784500122,1.5618237257003784,1.3838802576065063
18520.673646714484,1.1950886249542236,1.1635154485702515,1.5614999532699585,1.3846898078918457
18520.67564677681,1.195736289024353,1.1635154485702515,1.5614999532699585,1.3858232498168945
18520.677646839136,1.195574402809143,1.1638392210006714,1.561176061630249,1.3851755857467651
18520.679646901463,1.1947648525238037,1.1649726629257202,1.560852289199829,1.385499358177185
18520.68164696379,1.195736289024353,1.1648107767105103,1.5618237257003784,1.385499358177185
18520.683647026115,1.1950886249542236,1.1643249988555908,1.5614999532699585,1.385499358177185
18520.68564708844,1.1937932968139648,1.163029670715332,1.5614999532699585,1.3850136995315552
18520.687647150768,1.1944409608840942,1.1631916761398315,1.5623095035552979,1.3845279216766357
18520.689647213094,1.1944409608840942,1.1631916761398315,1.5629571676254272,1.3845279216766357
18520.691647275416,1.1946029663085938,1.1638392210006714,1.5629571676254272,1.3850136995315552
18520.693647337743,1.1941171884536743,1.1635154485702515,1.5616618394851685,1.3851755857467651
18520.69564740007,1.195736289024353,1.1638392210006714,1.561176061630249,1.3850136995315552
18520.697647462395,1.1963839530944824,1.1641631126403809,1.5619856119155884,1.3856613636016846
18520.69964752472,1.1963839530944824,1.1636773347854614,1.5631190538406372,1.385337471961975
18520.701647587048,1.1970316171646118,1.1633535623550415,1.5637667179107666,1.385499358177185
18520.703647649374,1.1971935033798218,1.1631916761398315,1.5624713897705078,1.3846898078918457
18520.7056477117,1.195736289024353,1.162867784500122,1.5626332759857178,1.3851755857467651
18520.707647774027,1.1952505111694336,1.163029670715332,1.5623095035552979,1.385337471961975
18520.709647836353,1.1946029663085938,1.1635154485702515,1.5623095035552979,1.3848518133163452
18520.71164789868,1.1939553022384644,1.1635154485702515,1.562147617340088,1.3840421438217163
18520.713647961005,1.1942790746688843,1.1643249988555908,1.5619856119155884,1.3845279216766357
18520.71564802333,1.1947648525238037,1.1635154485702515,1.5627951622009277,1.3848518133163452
18520.717648085658,1.1942790746688843,1.1635154485702515,1.5619856119155884,1.3845279216766357
18520.719648147984,1.1941171884536743,1.1643249988555908,1.5619856119155884,1.3851755857467651
18520.72164821031,1.1946029663085938,1.1635154485702515,1.5618237257003784,1.3858232498168945
18520.723648272637,1.195736289024353,1.1638392210006714,1.5616618394851685,1.385337471961975
18520.725648334963,1.193469524383545,1.1638392210006714,1.561337947845459,1.385499358177185
18520.72764839729,1.1941171884536743,1.1641631126403809,1.561337947845459,1.3850136995315552
18520.729648459615,1.1949267387390137,1.1644868850708008,1.5614999532699585,1.3846898078918457
18520.73164852194,1.1939553022384644,1.1643249988555908,1.5616618394851685,1.3842041492462158
18520.733648584264,1.1936314105987549,1.1633535623550415,1.561337947845459,1.3840421438217163
18520.73564864659,1.195574402809143,1.1636773347854614,1.5598807334899902,1.3850136995315552
18520.737648708917,1.195736289024353,1.1636773347854614,1.5606902837753296,1.3846898078918457
18520.739648771243,1.1950886249542236,1.1643249988555908,1.562147617340088,1.3843660354614258
18520.74164883357,1.1952505111694336,1.1644868850708008,1.5616618394851685,1.3842041492462158
18520.743648895896,1.195736289024353,1.1643249988555908,1.560852289199829,1.3848518133163452
18520.745648958222,1.1949267387390137,1.1638392210006714,1.560852289199829,1.3851755857467651
18520.747649020548,1.1941171884536743,1.1643249988555908,1.5616618394851685,1.3856613636016846
18520.749649082874,1.1941171884536743,1.1644868850708008,1.561176061630249,1.385337471961975
18520.7516491452,1.1939553022384644,1.1636773347854614,1.560852289199829,1.3859851360321045
18520.753649207527,1.193469524383545,1.1635154485702515,1.560852289199829,1.3871185779571533
18520.755649269853,1.1947648525238037,1.1638392210006714,1.560852289199829,1.3866328001022339
18520.75764933218,1.1936314105987549,1.1643249988555908,1.5606902837753296,1.3861470222473145
18520.759649394506,1.1936314105987549,1.1638392210006714,1.5603665113449097,1.3859851360321045
18520.761649456832,1.1941171884536743,1.1635154485702515,1.5606902837753296,1.3858232498168945
18520.76364951916,1.1937932968139648,1.1648107767105103,1.560852289199829,1.3851755857467651
18520.765649581484,1.193307638168335,1.1656203269958496,1.5605283975601196,1.3846898078918457
18520.76764964381,1.193469524383545,1.1656203269958496,1.5600426197052002,1.3851755857467651
18520.769649706137,1.1937932968139648,1.1644868850708008,1.5602046251296997,1.385499358177185
18520.77164976846,1.192336082458496,1.164001226425171,1.560852289199829,1.3851755857467651
18520.773649830786,1.1918504238128662,1.1644868850708008,1.5603665113449097,1.3850136995315552
18520.775649893112,1.193469524383545,1.1652965545654297,1.5603665113449097,1.385337471961975
18520.77764995544,1.1928218603134155,1.1651345491409302,1.5603665113449097,1.3850136995315552
18520.779650017765,1.193469524383545,1.1652965545654297,1.5603665113449097,1.385499358177185
18520.78165008009,1.1942790746688843,1.1654584407806396,1.5602046251296997,1.385499358177185
18520.783650142417,1.1939553022384644,1.1649726629257202,1.5598807334899902,1.385499358177185
18520.785650204743,1.1931456327438354,1.1648107767105103,1.5598807334899902,1.385499358177185
18520.78765026707,1.1929837465286255,1.1641631126403809,1.5605283975601196,1.3858232498168945
18520.789650329396,1.193469524383545,1.1633535623550415,1.5616618394851685,1.386309027671814
18520.791650391722,1.193307638168335,1.1638392210006714,1.5618237257003784,1.3856613636016846
18520.79365045405,1.1942790746688843,1.1648107767105103,1.561337947845459,1.3866328001022339
18520.795650516375,1.195898175239563,1.1652965545654297,1.5605283975601196,1.3866328001022339
18520.7976505787,1.195574402809143,1.1654584407806396,1.561176061630249,1.3858232498168945
18520.799650641027,1.1949267387390137,1.1652965545654297,1.5614999532699585,1.3861470222473145
18520.801650703354,1.1952505111694336,1.1654584407806396,1.5616618394851685,1.3867946863174438
18520.80365076568,1.1944409608840942,1.1646488904953003,1.5619856119155884,1.386309027671814
18520.805650828006,1.1937932968139648,1.1644868850708008,1.5624713897705078,1.385499358177185
18520.807650890332,1.1941171884536743,1.1652965545654297,1.5623095035552979,1.3856613636016846
18520.80965095266,1.1947648525238037,1.1649726629257202,1.561176061630249,1.3858232498168945
18520.81165101498,1.1941171884536743,1.1652965545654297,1.5614999532699585,1.386309027671814
18520.813651077307,1.1946029663085938,1.1656203269958496,1.5616618394851685,1.3869566917419434
18520.815651139634,1.1952505111694336,1.1652965545654297,1.561014175415039,1.3866328001022339
18520.81765120196,1.1946029663085938,1.1657822132110596,1.5618237257003784,1.3866328001022339
18520.819651264286,1.1942790746688843,1.1656203269958496,1.5624713897705078,1.3859851360321045
18520.821651326612,1.1946029663085938,1.1649726629257202,1.5619856119155884,1.386470913887024
18520.82365138894,1.1949267387390137,1.1643249988555908,1.5623095035552979,1.3861470222473145
18520.825651451265,1.1946029663085938,1.1644868850708008,1.5619856119155884,1.3866328001022339
18520.82765151359,1.1950886249542236,1.1652965545654297,1.561337947845459,1.3871185779571533
18520.829651575918,1.1944409608840942,1.1651345491409302,1.5623095035552979,1.3867946863174438
18520.831651638244,1.1941171884536743,1.1654584407806396,1.5626332759857178,1.3859851360321045
18520.83365170057,1.1944409608840942,1.1659440994262695,1.5619856119155884,1.385499358177185
18520.835651762896,1.195898175239563,1.166591763496399,1.5614999532699585,1.3869566917419434
18520.837651825223,1.1949267387390137,1.166106104850769,1.561176061630249,1.3867946863174438
18520.83965188755,1.1944409608840942,1.1654584407806396,1.5614999532699585,1.3869566917419434
18520.841651949875,1.1950886249542236,1.166106104850769,1.561014175415039,1.3866328001022339
18520.8436520122,1.1949267387390137,1.166267991065979,1.5616618394851685,1.3866328001022339
18520.845652074528,1.1928218603134155,1.1669156551361084,1.562147617340088,1.3861470222473145
18520.847652136854,1.193469524383545,1.1670775413513184,1.5619856119155884,1.3872804641723633
18520.84965219918,1.1944409608840942,1.1670775413513184,1.5618237257003784,1.3874423503875732
18520.851652261503,1.1936314105987549,1.1667537689208984,1.5618237257003784,1.3861470222473145
18520.85365232383,1.1931456327438354,1.166267991065979,1.561176061630249,1.386470913887024
18520.855652386155,1.1949267387390137,1.1659440994262695,1.5619856119155884,1.3871185779571533
18520.85765244848,1.1949267387390137,1.166267991065979,1.561337947845459,1.3866328001022339
18520.859652510808,1.1941171884536743,1.1659440994262695,1.5614999532699585,1.3867946863174438
18520.861652573134,1.1942790746688843,1.166429877281189,1.5616618394851685,1.3874423503875732
18520.86365263546,1.193469524383545,1.1659440994262695,1.5619856119155884,1.3869566917419434
18520.865652697787,1.1921741962432861,1.1654584407806396,1.5618237257003784,1.3861470222473145
18520.867652760113,1.1924980878829956,1.1656203269958496,1.561014175415039,1.386309027671814
18520.86965282244,1.1929837465286255,1.1657822132110596,1.5593950748443604,1.3858232498168945
18520.871652884765,1.1926599740982056,1.166106104850769,1.5602046251296997,1.385499358177185
18520.87365294709,1.1918504238128662,1.1656203269958496,1.5593950748443604,1.3861470222473145
18520.875653009418,1.1928218603134155,1.1657822132110596,1.5590711832046509,1.3861470222473145
18520.877653071744,1.1918504238128662,1.166267991065979,1.5597188472747803,1.3866328001022339
18520.87965313407,1.1920123100280762,1.1657822132110596,1.5592330694198608,1.386309027671814
18520.881653196397,1.1928218603134155,1.1649726629257202,1.5592330694198608,1.3858232498168945
18520.883653258723,1.1921741962432861,1.1646488904953003,1.5597188472747803,1.3858232498168945
18520.88565332105,1.1912027597427368,1.1646488904953003,1.5598807334899902,1.3866328001022339
18520.887653383375,1.1913646459579468,1.1646488904953003,1.5595569610595703,1.386309027671814
18520.8896534457,1.1918504238128662,1.1646488904953003,1.5590711832046509,1.3858232498168945
18520.891653508024,1.190069317817688,1.1649726629257202,1.5602046251296997,1.385337471961975
18520.89365357035,1.189907431602478,1.1648107767105103,1.5593950748443604,1.3851755857467651
18520.895653632677,1.1905550956726074,1.1652965545654297,1.5592330694198608,1.3851755857467651
18520.897653695003,1.190069317817688,1.1651345491409302,1.5592330694198608,1.385499358177185
18520.89965375733,1.1905550956726074,1.1656203269958496,1.5593950748443604,1.3858232498168945
18520.901653819656,1.1921741962432861,1.1657822132110596,1.5590711832046509,1.3861470222473145
18520.903653881982,1.1910407543182373,1.1656203269958496,1.558747410774231,1.3851755857467651
18520.905653944308,1.1907169818878174,1.1659440994262695,1.5593950748443604,1.3846898078918457
18520.907654006634,1.1905550956726074,1.1659440994262695,1.5597188472747803,1.3848518133163452
18520.90965406896,1.1905550956726074,1.1657822132110596,1.5597188472747803,1.3850136995315552
18520.911654131287,1.190393090248108,1.166429877281189,1.5590711832046509,1.3851755857467651
18520.913654193613,1.1908788681030273,1.1657822132110596,1.558909296989441,1.385499358177185
18520.91565425594,1.1926599740982056,1.166267991065979,1.5600426197052002,1.3850136995315552
18520.917654318266,1.193469524383545,1.166429877281189,1.5603665113449097,1.3851755857467651
18520.919654380592,1.1926599740982056,1.166267991065979,1.5600426197052002,1.3859851360321045
18520.92165444292,1.193307638168335,1.1667537689208984,1.5602046251296997,1.386309027671814
18520.923654505244,1.1926599740982056,1.1659440994262695,1.5603665113449097,1.3858232498168945
18520.92565456757,1.1924980878829956,1.1652965545654297,1.5602046251296997,1.3861470222473145
18520.927654629897,1.1924980878829956,1.1657822132110596,1.560852289199829,1.386470913887024
18520.92965469222,1.1924980878829956,1.166106104850769,1.561176061630249,1.3859851360321045
18520.931654754546,1.1910407543182373,1.166267991065979,1.5606902837753296,1.385499358177185
18520.933654816872,1.1921741962432861,1.1656203269958496,1.561337947845459,1.3856613636016846
18520.9356548792,1.193469524383545,1.166267991065979,1.5614999532699585,1.3867946863174438
18520.937654941525,1.1928218603134155,1.166267991065979,1.561337947845459,1.3872804641723633
18520.93965500385,1.1931456327438354,1.166429877281189,1.560852289199829,1.3859851360321045
18520.941655066177,1.1941171884536743,1.1669156551361084,1.560852289199829,1.3861470222473145
18520.943655128503,1.1939553022384644,1.166429877281189,1.5605283975601196,1.3861470222473145
18520.94565519083,1.1929837465286255,1.166267991065979,1.5600426197052002,1.386309027671814
18520.947655253156,1.1920123100280762,1.1657822132110596,1.5605283975601196,1.386309027671814
18520.949655315482,1.1926599740982056,1.166106104850769,1.560852289199829,1.3866328001022339
18520.95165537781,1.1915265321731567,1.166267991065979,1.5603665113449097,1.3867946863174438
18520.953655440135,1.1912027597427368,1.166429877281189,1.5592330694198608,1.3867946863174438
18520.95565550246,1.1931456327438354,1.166267991065979,1.5600426197052002,1.3867946863174438
18520.957655564787,1.193469524383545,1.1659440994262695,1.5600426197052002,1.3859851360321045
18520.959655627114,1.192336082458496,1.166106104850769,1.5602046251296997,1.3856613636016846
18520.96165568944,1.1931456327438354,1.1659440994262695,1.5603665113449097,1.3874423503875732
18520.963655751766,1.1929837465286255,1.166429877281189,1.5600426197052002,1.386470913887024
18520.965655814092,1.1916884183883667,1.166267991065979,1.5593950748443604,1.386309027671814
18520.96765587642,1.1916884183883667,1.1651345491409302,1.5592330694198608,1.3856613636016846
18520.969655938745,1.1915265321731567,1.1649726629257202,1.5593950748443604,1.3858232498168945
18520.971656001067,1.1916884183883667,1.1652965545654297,1.5602046251296997,1.3851755857467651
18520.973656063394,1.1913646459579468,1.1654584407806396,1.5593950748443604,1.3859851360321045
18520.97565612572,1.1926599740982056,1.1648107767105103,1.5593950748443604,1.3869566917419434
18520.977656188046,1.1924980878829956,1.1648107767105103,1.5595569610595703,1.3872804641723633
18520.979656250372,1.1918504238128662,1.1656203269958496,1.5592330694198608,1.3869566917419434
18520.9816563127,1.1926599740982056,1.1652965545654297,1.5592330694198608,1.3871185779571533
18520.983656375025,1.1920123100280762,1.1651345491409302,1.5592330694198608,1.385337471961975
18520.98565643735,1.189907431602478,1.1643249988555908,1.5584235191345215,1.385499358177185
18520.987656499678,1.1905550956726074,1.1648107767105103,1.5584235191345215,1.3861470222473145
18520.989656562004,1.1907169818878174,1.1646488904953003,1.558747410774231,1.3861470222473145
18520.99165662433,1.190393090248108,1.1648107767105103,1.5592330694198608,1.3859851360321045
18520.993656686656,1.1908788681030273,1.164001226425171,1.558747410774231,1.3866328001022339
18520.995656748983,1.1924980878829956,1.1636773347854614,1.5582616329193115,1.3866328001022339
18520.99765681131,1.1921741962432861,1.1644868850708008,1.5580997467041016,1.3871185779571533
18520.999656873635,1.1926599740982056,1.1648107767105103,1.5580997467041016,1.3874423503875732
18521.00165693596,1.1941171884536743,1.1644868850708008,1.5582616329193115,1.3872804641723633
18521.003656998288,1.193307638168335,1.1644868850708008,1.5593950748443604,1.3859851360321045
18521.005657060614,1.1910407543182373,1.1648107767105103,1.5598807334899902,1.3850136995315552
18521.00765712294,1.1910407543182373,1.1643249988555908,1.5593950748443604,1.385337471961975
18521.009657185263,1.1912027597427368,1.1643249988555908,1.5582616329193115,1.3846898078918457
18521.01165724759,1.1910407543182373,1.1648107767105103,1.5582616329193115,1.3842041492462158
18521.013657309915,1.1916884183883667,1.1654584407806396,1.5582616329193115,1.386309027671814
18521.01565737224,1.1926599740982056,1.166267991065979,1.5585854053497314,1.3866328001022339
18521.017657434568,1.1926599740982056,1.1657822132110596,1.558909296989441,1.3876042366027832
18521.019657496894,1.192336082458496,1.1643249988555908,1.5593950748443604,1.3877662420272827
18521.02165755922,1.1926599740982056,1.1646488904953003,1.5590711832046509,1.3871185779571533
18521.023657621547,1.1924980878829956,1.1652965545654297,1.558747410774231,1.3861470222473145
18521.025657683873,1.1910407543182373,1.1656203269958496,1.5590711832046509,1.3861470222473145
18521.0276577462,1.1921741962432861,1.166106104850769,1.5597188472747803,1.3861470222473145
18521.029657808525,1.1929837465286255,1.1657822132110596,1.5598807334899902,1.3856613636016846
18521.03165787085,1.1918504238128662,1.166267991065979,1.5600426197052002,1.386470913887024
18521.033657933178,1.192336082458496,1.1657822132110596,1.5590711832046509,1.3871185779571533
18521.035657995504,1.1929837465286255,1.1649726629257202,1.557775855064392,1.3874423503875732
18521.03765805783,1.1929837465286255,1.1652965545654297,1.558747410774231,1.3867946863174438
18521.039658120157,1.1928218603134155,1.1652965545654297,1.5592330694198608,1.3867946863174438
18521.041658182483,1.1936314105987549,1.1659440994262695,1.5592330694198608,1.3867946863174438
18521.04365824481,1.1941171884536743,1.1659440994262695,1.5595569610595703,1.3874423503875732
18521.045658307135,1.1924980878829956,1.1649726629257202,1.5590711832046509,1.3874423503875732
18521.04765836946,1.1929837465286255,1.1657822132110596,1.5598807334899902,1.3872804641723633
18521.049658431784,1.1937932968139648,1.166267991065979,1.5598807334899902,1.3874423503875732
18521.05165849411,1.1926599740982056,1.166106104850769,1.558909296989441,1.3872804641723633
18521.053658556437,1.1924980878829956,1.1656203269958496,1.5590711832046509,1.3869566917419434
18521.055658618763,1.193307638168335,1.1656203269958496,1.5597188472747803,1.3869566917419434
18521.05765868109,1.1939553022384644,1.1656203269958496,1.5600426197052002,1.3869566917419434
18521.059658743416,1.1937932968139648,1.1659440994262695,1.5603665113449097,1.3869566917419434
18521.061658805742,1.1947648525238037,1.166267991065979,1.5606902837753296,1.388737678527832
18521.063658868068,1.1949267387390137,1.1659440994262695,1.5614999532699585,1.3880900144577026
18521.065658930394,1.1946029663085938,1.1667537689208984,1.5614999532699585,1.3877662420272827
18521.06765899272,1.1946029663085938,1.1659440994262695,1.5614999532699585,1.3880900144577026
18521.069659055047,1.1944409608840942,1.166267991065979,1.561014175415039,1.3879281282424927
18521.071659117373,1.1937932968139648,1.166429877281189,1.562147617340088,1.3876042366027832
18521.0736591797,1.195574402809143,1.166591763496399,1.5626332759857178,1.388413906097412
18521.075659242026,1.1962220668792725,1.166591763496399,1.5627951622009277,1.3871185779571533
18521.077659304352,1.195898175239563,1.166267991065979,1.562147617340088,1.3877662420272827
18521.07965936668,1.195574402809143,1.1667537689208984,1.5627951622009277,1.3876042366027832
18521.081659429005,1.1965458393096924,1.1657822132110596,1.5629571676254272,1.3876042366027832
18521.08365949133,1.1960601806640625,1.166267991065979,1.5631190538406372,1.3871185779571533
18521.085659553657,1.1950886249542236,1.166429877281189,1.5634428262710571,1.3871185779571533
18521.08765961598,1.1947648525238037,1.166267991065979,1.5632809400558472,1.3872804641723633
18521.089659678306,1.1947648525238037,1.166429877281189,1.5626332759857178,1.3879281282424927
18521.091659740632,1.1942790746688843,1.166267991065979,1.5616618394851685,1.3876042366027832
18521.09365980296,1.195412516593933,1.1656203269958496,1.561176061630249,1.3867946863174438
18521.095659865285,1.195736289024353,1.1652965545654297,1.5614999532699585,1.3876042366027832
18521.09765992761,1.1949267387390137,1.1654584407806396,1.5618237257003784,1.3877662420272827
18521.099659989937,1.1939553022384644,1.1654584407806396,1.562147617340088,1.3880900144577026
18521.101660052263,1.1947648525238037,1.1648107767105103,1.561337947845459,1.3879281282424927
18521.10366011459,1.1946029663085938,1.1649726629257202,1.561014175415039,1.3867946863174438
18521.105660176916,1.1936314105987549,1.1643249988555908,1.561014175415039,1.3876042366027832
18521.107660239242,1.193469524383545,1.164001226425171,1.5605283975601196,1.3877662420272827
18521.10966030157,1.193469524383545,1.1648107767105103,1.560852289199829,1.3866328001022339
18521.111660363895,1.1916884183883667,1.1657822132110596,1.5602046251296997,1.3858232498168945
18521.11366042622,1.1926599740982056,1.1659440994262695,1.5592330694198608,1.386309027671814
18521.115660488547,1.1939553022384644,1.1657822132110596,1.5585854053497314,1.385499358177185
18521.117660550874,1.1946029663085938,1.1648107767105103,1.5592330694198608,1.3866328001022339
18521.1196606132,1.1947648525238037,1.1644868850708008,1.5602046251296997,1.3866328001022339
18521.121660675526,1.195412516593933,1.164001226425171,1.5598807334899902,1.3871185779571533
18521.123660737852,1.1947648525238037,1.1641631126403809,1.5593950748443604,1.3869566917419434
18521.12566080018,1.193469524383545,1.1644868850708008,1.5593950748443604,1.3876042366027832
18521.127660862505,1.1929837465286255,1.1649726629257202,1.5602046251296997,1.3872804641723633
18521.129660924827,1.193307638168335,1.1648107767105103,1.5602046251296997,1.3866328001022339
18521.131660987154,1.192336082458496,1.1648107767105103,1.5598807334899902,1.386470913887024
18521.13366104948,1.1926599740982056,1.1648107767105103,1.558747410774231,1.3871185779571533
18521.135661111806,1.1941171884536743,1.1644868850708008,1.5597188472747803,1.386309027671814
18521.137661174133,1.1936314105987549,1.1651345491409302,1.5593950748443604,1.3858232498168945
18521.13966123646,1.1936314105987549,1.1649726629257202,1.558747410774231,1.386470913887024
18521.141661298785,1.1952505111694336,1.1651345491409302,1.558909296989441,1.3869566917419434
18521.14366136111,1.1939553022384644,1.1652965545654297,1.5582616329193115,1.3866328001022339
18521.145661423438,1.1929837465286255,1.164001226425171,1.558909296989441,1.3861470222473145
18521.147661485764,1.193469524383545,1.164001226425171,1.5592330694198608,1.3859851360321045
18521.14966154809,1.1929837465286255,1.1641631126403809,1.5592330694198608,1.3869566917419434
18521.151661610416,1.1913646459579468,1.1633535623550415,1.558909296989441,1.3867946863174438
18521.153661672743,1.1921741962432861,1.1636773347854614,1.5582616329193115,1.3858232498168945
18521.15566173507,1.1929837465286255,1.164001226425171,1.5584235191345215,1.3858232498168945
18521.157661797395,1.1929837465286255,1.1638392210006714,1.5582616329193115,1.3856613636016846
18521.15966185972,1.1924980878829956,1.1635154485702515,1.5580997467041016,1.386309027671814
18521.161661922048,1.1939553022384644,1.1635154485702515,1.5572901964187622,1.386309027671814
18521.163661984374,1.1929837465286255,1.1631916761398315,1.5569663047790527,1.3851755857467651
18521.1656620467,1.1918504238128662,1.1633535623550415,1.5572901964187622,1.385337471961975
18521.167662109023,1.1920123100280762,1.163029670715332,1.5580997467041016,1.385337471961975
18521.16966217135,1.1928218603134155,1.162867784500122,1.5580997467041016,1.3858232498168945
18521.171662233675,1.1908788681030273,1.1631916761398315,1.557775855064392,1.385337471961975
18521.173662296,1.1908788681030273,1.1631916761398315,1.5566425323486328,1.3859851360321045
18521.175662358328,1.1920123100280762,1.1633535623550415,1.5563186407089233,1.3850136995315552
18521.177662420654,1.1921741962432861,1.163029670715332,1.5576139688491821,1.3851755857467651
18521.17966248298,1.1920123100280762,1.1631916761398315,1.557937741279602,1.3845279216766357
18521.181662545307,1.1921741962432861,1.1638392210006714,1.5571281909942627,1.3846898078918457
18521.183662607633,1.1915265321731567,1.1635154485702515,1.5568044185638428,1.3845279216766357
18521.18566266996,1.1910407543182373,1.164001226425171,1.5561567544937134,1.3840421438217163
18521.187662732285,1.1915265321731567,1.1633535623550415,1.5566425323486328,1.3842041492462158
18521.18966279461,1.1918504238128662,1.1623820066452026,1.5568044185638428,1.3837183713912964
18521.191662856938,1.1913646459579468,1.1620582342147827,1.5563186407089233,1.3840421438217163
18521.193662919264,1.1926599740982056,1.1622201204299927,1.5564805269241333,1.3851755857467651
18521.19566298159,1.1929837465286255,1.1631916761398315,1.5563186407089233,1.385337471961975
18521.197663043917,1.1916884183883667,1.163029670715332,1.5568044185638428,1.385337471961975
18521.199663106243,1.1918504238128662,1.1625440120697021,1.5572901964187622,1.385337471961975
18521.20166316857,1.1931456327438354,1.1633535623550415,1.5571281909942627,1.3866328001022339
18521.203663230895,1.1928218603134155,1.1633535623550415,1.557775855064392,1.385499358177185
18521.20566329322,1.1928218603134155,1.1633535623550415,1.5572901964187622,1.3856613636016846
18521.207663355544,1.193307638168335,1.1635154485702515,1.5584235191345215,1.3856613636016846
18521.20966341787,1.193307638168335,1.1633535623550415,1.5595569610595703,1.3861470222473145
18521.211663480197,1.192336082458496,1.1623820066452026,1.5592330694198608,1.3859851360321045
18521.213663542523,1.193469524383545,1.1625440120697021,1.558909296989441,1.3859851360321045
18521.21566360485,1.1949267387390137,1.164001226425171,1.558747410774231,1.3861470222473145
18521.217663667176,1.1941171884536743,1.1635154485702515,1.5595569610595703,1.3859851360321045
18521.219663729502,1.1939553022384644,1.1636773347854614,1.5595569610595703,1.3861470222473145
18521.221663791828,1.1950886249542236,1.1649726629257202,1.5595569610595703,1.3872804641723633
18521.223663854154,1.1949267387390137,1.1646488904953003,1.5605283975601196,1.3867946863174438
18521.22566391648,1.1950886249542236,1.164001226425171,1.5606902837753296,1.3869566917419434
18521.227663978807,1.195574402809143,1.1638392210006714,1.5602046251296997,1.3874423503875732
18521.229664041133,1.195412516593933,1.1633535623550415,1.5605283975601196,1.3861470222473145
18521.23166410346,1.1947648525238037,1.164001226425171,1.5605283975601196,1.3861470222473145
18521.233664165786,1.1960601806640625,1.1648107767105103,1.560852289199829,1.3867946863174438
18521.235664228112,1.1970316171646118,1.1649726629257202,1.561176061630249,1.3866328001022339
18521.23766429044,1.195898175239563,1.1638392210006714,1.5619856119155884,1.3867946863174438
18521.239664352765,1.195574402809143,1.1636773347854614,1.5623095035552979,1.3866328001022339
18521.24166441509,1.196707844734192,1.164001226425171,1.5619856119155884,1.3872804641723633
18521.243664477417,1.195898175239563,1.1641631126403809,1.5626332759857178,1.3866328001022339
18521.24566453974,1.1965458393096924,1.164001226425171,1.562147617340088,1.3871185779571533
18521.247664602066,1.1970316171646118,1.164001226425171,1.5623095035552979,1.3869566917419434
18521.249664664392,1.1970316171646118,1.1643249988555908,1.5616618394851685,1.3872804641723633
18521.25166472672,1.1952505111694336,1.1646488904953003,1.562147617340088,1.3869566917419434
18521.253664789045,1.1960601806640625,1.1651345491409302,1.5614999532699585,1.3879281282424927
18521.25566485137,1.1963839530944824,1.1654584407806396,1.561014175415039,1.3876042366027832
18521.257664913697,1.1963839530944824,1.1651345491409302,1.561014175415039,1.3874423503875732
18521.259664976023,1.1965458393096924,1.1652965545654297,1.5606902837753296,1.3866328001022339
18521.26166503835,1.1980030536651611,1.1648107767105103,1.5605283975601196,1.3866328001022339
18521.263665100676,1.196707844734192,1.1646488904953003,1.5605283975601196,1.386470913887024
18521.265665163002,1.1949267387390137,1.1643249988555908,1.5593950748443604,1.3858232498168945
18521.26766522533,1.1949267387390137,1.1644868850708008,1.5590711832046509,1.3861470222473145
18521.269665287655,1.195574402809143,1.1644868850708008,1.5595569610595703,1.386470913887024
18521.27166534998,1.1941171884536743,1.1644868850708008,1.5595569610595703,1.3858232498168945
18521.273665412307,1.1946029663085938,1.1636773347854614,1.5584235191345215,1.3861470222473145
18521.275665474634,1.1949267387390137,1.164001226425171,1.5585854053497314,1.3861470222473145
18521.27766553696,1.195412516593933,1.1635154485702515,1.5585854053497314,1.3859851360321045
18521.279665599286,1.1944409608840942,1.1636773347854614,1.558909296989441,1.386470913887024
18521.281665661612,1.1947648525238037,1.1636773347854614,1.5585854053497314,1.3874423503875732
18521.28366572394,1.1946029663085938,1.1633535623550415,1.5582616329193115,1.3871185779571533
18521.285665786265,1.1937932968139648,1.163029670715332,1.5584235191345215,1.3866328001022339
18521.287665848587,1.1942790746688843,1.162867784500122,1.558747410774231,1.386309027671814
18521.289665910914,1.1949267387390137,1.1631916761398315,1.5590711832046509,1.386309027671814
18521.29166597324,1.1939553022384644,1.1631916761398315,1.5584235191345215,1.3869566917419434
18521.293666035566,1.1937932968139648,1.1631916761398315,1.5580997467041016,1.3869566917419434
18521.295666097893,1.1942790746688843,1.1636773347854614,1.5582616329193115,1.386309027671814
18521.29766616022,1.1944409608840942,1.1643249988555908,1.5574520826339722,1.3858232498168945
18521.299666222545,1.1939553022384644,1.1638392210006714,1.5572901964187622,1.386470913887024
18521.30166628487,1.1960601806640625,1.1635154485702515,1.557937741279602,1.386470913887024
18521.303666347198,1.1946029663085938,1.1636773347854614,1.558747410774231,1.3858232498168945
18521.305666409524,1.1926599740982056,1.1638392210006714,1.5582616329193115,1.3859851360321045
18521.30766647185,1.1928218603134155,1.1633535623550415,1.5576139688491821,1.386309027671814
18521.309666534176,1.1931456327438354,1.163029670715332,1.5569663047790527,1.3871185779571533
18521.311666596503,1.193469524383545,1.1631916761398315,1.5580997467041016,1.3869566917419434
18521.31366665883,1.1947648525238037,1.163029670715332,1.557775855064392,1.3874423503875732
18521.315666721155,1.1950886249542236,1.1638392210006714,1.5572901964187622,1.3861470222473145
18521.31766678348,1.1952505111694336,1.164001226425171,1.557775855064392,1.386309027671814
18521.319666845808,1.1947648525238037,1.1638392210006714,1.5580997467041016,1.3876042366027832
18521.321666908134,1.1950886249542236,1.1638392210006714,1.557937741279602,1.3880900144577026
18521.32366697046,1.1949267387390137,1.164001226425171,1.5584235191345215,1.3876042366027832
18521.325667032783,1.1946029663085938,1.1641631126403809,1.5584235191345215,1.3871185779571533
18521.32766709511,1.195412516593933,1.1643249988555908,1.557937741279602,1.3872804641723633
18521.329667157435,1.195412516593933,1.1638392210006714,1.5585854053497314,1.3882519006729126
18521.33166721976,1.1944409608840942,1.164001226425171,1.5593950748443604,1.3874423503875732
18521.333667282088,1.1950886249542236,1.1641631126403809,1.5602046251296997,1.3876042366027832
18521.335667344414,1.1968697309494019,1.1643249988555908,1.5602046251296997,1.3880900144577026
18521.33766740674,1.1975173950195312,1.164001226425171,1.5603665113449097,1.3879281282424927
18521.339667469067,1.1973553895950317,1.1636773347854614,1.5603665113449097,1.3874423503875732
18521.341667531393,1.1970316171646118,1.1636773347854614,1.5598807334899902,1.388413906097412
18521.34366759372,1.1963839530944824,1.1643249988555908,1.5602046251296997,1.3880900144577026
18521.345667656045,1.195736289024353,1.1636773347854614,1.5590711832046509,1.3879281282424927
18521.34766771837,1.196707844734192,1.162867784500122,1.5590711832046509,1.3882519006729126
18521.349667780698,1.1973553895950317,1.1635154485702515,1.5590711832046509,1.388575792312622
18521.351667843024,1.195574402809143,1.1643249988555908,1.5592330694198608,1.3880900144577026
18521.35366790535,1.1973553895950317,1.164001226425171,1.5592330694198608,1.3890615701675415
18521.355667967677,1.19881272315979,1.164001226425171,1.5593950748443604,1.388413906097412
18521.357668030003,1.1986507177352905,1.1631916761398315,1.5595569610595703,1.388737678527832
18521.35966809233,1.1986507177352905,1.163029670715332,1.5598807334899902,1.389709234237671
18521.361668154655,1.1983269453048706,1.162705898284912,1.558909296989441,1.3895472288131714
18521.36366821698,1.1965458393096924,1.163029670715332,1.5585854053497314,1.388575792312622
18521.365668279304,1.196707844734192,1.162867784500122,1.5584235191345215,1.3880900144577026
18521.36766834163,1.196707844734192,1.163029670715332,1.5590711832046509,1.3877662420272827
18521.369668403957,1.1973553895950317,1.162867784500122,1.558909296989441,1.388575792312622
18521.371668466283,1.1965458393096924,1.162867784500122,1.5582616329193115,1.388413906097412
18521.37366852861,1.1970316171646118,1.1631916761398315,1.5572901964187622,1.3882519006729126
18521.375668590936,1.1971935033798218,1.1633535623550415,1.5574520826339722,1.388575792312622
18521.377668653262,1.1968697309494019,1.162867784500122,1.5582616329193115,1.3879281282424927
18521.37966871559,1.1973553895950317,1.1618963479995728,1.557775855064392,1.3876042366027832
18521.381668777914,1.1984888315200806,1.1617343425750732,1.557937741279602,1.3877662420272827
18521.38366884024,1.1980030536651611,1.1625440120697021,1.5568044185638428,1.3874423503875732
18521.385668902567,1.196707844734192,1.1620582342147827,1.5574520826339722,1.3879281282424927
18521.387668964893,1.1970316171646118,1.1617343425750732,1.557937741279602,1.388899564743042
18521.38966902722,1.196707844734192,1.1631916761398315,1.5574520826339722,1.388413906097412
18521.391669089546,1.1960601806640625,1.1643249988555908,1.5568044185638428,1.3882519006729126
18521.393669151872,1.1962220668792725,1.1633535623550415,1.5559948682785034,1.3877662420272827
18521.3956692142,1.196707844734192,1.162705898284912,1.5571281909942627,1.3882519006729126
18521.397669276525,1.1960601806640625,1.1625440120697021,1.557775855064392,1.3872804641723633
18521.39966933885,1.1950886249542236,1.162705898284912,1.5566425323486328,1.3866328001022339
18521.401669401177,1.1965458393096924,1.162867784500122,1.5566425323486328,1.3874423503875732
18521.4036694635,1.195736289024353,1.1625440120697021,1.5571281909942627,1.3876042366027832
18521.405669525826,1.195574402809143,1.1631916761398315,1.5568044185638428,1.3882519006729126
18521.407669588152,1.195736289024353,1.163029670715332,1.5563186407089233,1.3879281282424927
18521.40966965048,1.195736289024353,1.162867784500122,1.5559948682785034,1.3879281282424927
18521.411669712805,1.1949267387390137,1.162705898284912,1.5559948682785034,1.3877662420272827
18521.41366977513,1.1952505111694336,1.1622201204299927,1.555832862854004,1.3880900144577026
18521.415669837457,1.195898175239563,1.1625440120697021,1.555670976638794,1.388575792312622
18521.417669899784,1.1950886249542236,1.163029670715332,1.5561567544937134,1.388737678527832
18521.41966996211,1.1960601806640625,1.1633535623550415,1.5563186407089233,1.388575792312622
18521.421670024436,1.1962220668792725,1.1620582342147827,1.5563186407089233,1.3882519006729126
18521.423670086762,1.195736289024353,1.1618963479995728,1.5563186407089233,1.3872804641723633
18521.42567014909,1.1949267387390137,1.1617343425750732,1.5564805269241333,1.3880900144577026
18521.427670211415,1.1947648525238037,1.1615724563598633,1.5561567544937134,1.3892234563827515
18521.42967027374,1.195736289024353,1.1612486839294434,1.555347204208374,1.3876042366027832
18521.431670336067,1.1942790746688843,1.1610867977142334,1.5540518760681152,1.3874423503875732
18521.433670398394,1.1947648525238037,1.1623820066452026,1.5546995401382446,1.3882519006729126
18521.43567046072,1.1962220668792725,1.1612486839294434,1.555670976638794,1.3879281282424927
18521.437670523046,1.195898175239563,1.1614105701446533,1.555832862854004,1.3871185779571533
18521.439670585372,1.1963839530944824,1.1614105701446533,1.555670976638794,1.3866328001022339
18521.4416706477,1.1981650590896606,1.1620582342147827,1.555185317993164,1.388575792312622
18521.443670710025,1.1962220668792725,1.1622201204299927,1.555832862854004,1.3882519006729126
18521.445670772348,1.1952505111694336,1.1620582342147827,1.5564805269241333,1.3876042366027832
18521.447670834674,1.195412516593933,1.162867784500122,1.5569663047790527,1.3872804641723633
18521.449670897,1.1960601806640625,1.1618963479995728,1.5559948682785034,1.3879281282424927
18521.451670959326,1.1952505111694336,1.1625440120697021,1.555509090423584,1.3877662420272827
18521.453671021653,1.196707844734192,1.1618963479995728,1.5566425323486328,1.3892234563827515
18521.45567108398,1.1973553895950317,1.1620582342147827,1.5564805269241333,1.388899564743042
18521.457671146305,1.1970316171646118,1.162705898284912,1.5561567544937134,1.388575792312622
18521.45967120863,1.1975173950195312,1.162867784500122,1.5571281909942627,1.388737678527832
18521.461671270958,1.1975173950195312,1.162867784500122,1.5568044185638428,1.388575792312622
18521.463671333284,1.1975173950195312,1.1622201204299927,1.5572901964187622,1.3882519006729126
18521.46567139561,1.1971935033798218,1.1610867977142334,1.557937741279602,1.3879281282424927
18521.467671457936,1.1973553895950317,1.1610867977142334,1.5582616329193115,1.388413906097412
18521.469671520263,1.1970316171646118,1.1618963479995728,1.5592330694198608,1.388737678527832
18521.47167158259,1.1963839530944824,1.1620582342147827,1.558909296989441,1.3874423503875732
18521.473671644915,1.1981650590896606,1.1617343425750732,1.5574520826339722,1.3882519006729126
18521.47567170724,1.19881272315979,1.1618963479995728,1.557775855064392,1.3879281282424927
18521.477671769568,1.1976792812347412,1.1618963479995728,1.558747410774231,1.3880900144577026
18521.479671831894,1.1976792812347412,1.1620582342147827,1.558909296989441,1.3879281282424927
18521.48167189422,1.19881272315979,1.1618963479995728,1.557775855064392,1.3892234563827515
18521.483671956543,1.1984888315200806,1.1620582342147827,1.5582616329193115,1.388575792312622
18521.48567201887,1.1981650590896606,1.1622201204299927,1.5584235191345215,1.3879281282424927
18521.487672081195,1.1986507177352905,1.1615724563598633,1.5580997467041016,1.3882519006729126
18521.48967214352,1.1986507177352905,1.1615724563598633,1.5585854053497314,1.388413906097412
18521.491672205848,1.1978411674499512,1.1620582342147827,1.5593950748443604,1.3879281282424927
18521.493672268174,1.1996222734451294,1.162867784500122,1.558747410774231,1.3895472288131714
18521.4956723305,1.1999460458755493,1.1633535623550415,1.5585854053497314,1.3900330066680908
18521.497672392827,1.2005937099456787,1.163029670715332,1.558747410774231,1.3898711204528809
18521.499672455153,1.2004318237304688,1.162867784500122,1.5595569610595703,1.3893853425979614
18521.50167251748,1.2007555961608887,1.162705898284912,1.5597188472747803,1.3895472288131714
18521.503672579805,1.2002699375152588,1.1635154485702515,1.5598807334899902,1.388899564743042
18521.50567264213,1.1996222734451294,1.1622201204299927,1.5592330694198608,1.3882519006729126
18521.507672704458,1.2004318237304688,1.1620582342147827,1.5592330694198608,1.388575792312622
18521.509672766784,1.1996222734451294,1.1625440120697021,1.558909296989441,1.3882519006729126
18521.51167282911,1.1980030536651611,1.162867784500122,1.557775855064392,1.388413906097412
18521.513672891437,1.198974609375,1.162867784500122,1.5576139688491821,1.3895472288131714
18521.515672953763,1.2001079320907593,1.1622201204299927,1.557775855064392,1.389709234237671
18521.51767301609,1.198974609375,1.162705898284912,1.5580997467041016,1.3893853425979614
18521.519673078416,1.198974609375,1.1631916761398315,1.5584235191345215,1.388737678527832
18521.52167314074,1.1994602680206299,1.1625440120697021,1.558747410774231,1.3892234563827515
18521.523673203064,1.1983269453048706,1.1623820066452026,1.5576139688491821,1.388413906097412
18521.52567326539,1.1968697309494019,1.1620582342147827,1.5568044185638428,1.3895472288131714
18521.527673327717,1.1975173950195312,1.1625440120697021,1.5566425323486328,1.3895472288131714
18521.529673390043,1.1973553895950317,1.1625440120697021,1.5563186407089233,1.388737678527832
18521.53167345237,1.1968697309494019,1.1633535623550415,1.5563186407089233,1.388413906097412
18521.533673514696,1.1975173950195312,1.163029670715332,1.5561567544937134,1.3882519006729126
18521.535673577022,1.1983269453048706,1.162705898284912,1.555185317993164,1.388575792312622
18521.53767363935,1.19881272315979,1.1623820066452026,1.5563186407089233,1.388575792312622
18521.539673701674,1.1980030536651611,1.1623820066452026,1.5561567544937134,1.3877662420272827
18521.541673764,1.1983269453048706,1.1618963479995728,1.555509090423584,1.388413906097412
18521.543673826327,1.1975173950195312,1.1614105701446533,1.5559948682785034,1.3879281282424927
18521.545673888653,1.1963839530944824,1.1614105701446533,1.555509090423584,1.3880900144577026
18521.54767395098,1.1973553895950317,1.1612486839294434,1.5546995401382446,1.3890615701675415
18521.549674013306,1.1976792812347412,1.160762906074524,1.555509090423584,1.388575792312622
18521.551674075632,1.1960601806640625,1.1609247922897339,1.555185317993164,1.3879281282424927
18521.55367413796,1.1976792812347412,1.1615724563598633,1.5546995401382446,1.388413906097412
18521.555674200285,1.19929838180542,1.1614105701446533,1.5545376539230347,1.388899564743042
18521.55767426261,1.1980030536651611,1.1614105701446533,1.5545376539230347,1.388899564743042
18521.559674324937,1.1971935033798218,1.1610867977142334,1.5538899898529053,1.3901948928833008
18521.561674387263,1.1986507177352905,1.1610867977142334,1.5546995401382446,1.3898711204528809
18521.563674449586,1.1975173950195312,1.1612486839294434,1.555347204208374,1.3876042366027832
18521.565674511912,1.1970316171646118,1.1615724563598633,1.5550233125686646,1.3871185779571533
18521.56767457424,1.1976792812347412,1.1620582342147827,1.555509090423584,1.3880900144577026
18521.569674636565,1.1968697309494019,1.1617343425750732,1.555670976638794,1.388575792312622
18521.57167469889,1.195736289024353,1.1615724563598633,1.5550233125686646,1.3882519006729126
18521.573674761217,1.1971935033798218,1.160439133644104,1.5548614263534546,1.3898711204528809
18521.575674823544,1.19881272315979,1.1609247922897339,1.5545376539230347,1.3892234563827515
18521.57767488587,1.1981650590896606,1.1617343425750732,1.555347204208374,1.3892234563827515
18521.579674948196,1.19881272315979,1.1617343425750732,1.5563186407089233,1.3901948928833008
18521.581675010522,1.201403260231018,1.1610867977142334,1.5563186407089233,1.3895472288131714
18521.58367507285,1.2004318237304688,1.1615724563598633,1.5569663047790527,1.388737678527832
18521.585675135175,1.2004318237304688,1.1612486839294434,1.5564805269241333,1.3892234563827515
18521.5876751975,1.2001079320907593,1.1609247922897339,1.555832862854004,1.3898711204528809
18521.589675259827,1.1994602680206299,1.160762906074524,1.5559948682785034,1.3892234563827515
18521.591675322154,1.1986507177352905,1.1615724563598633,1.5561567544937134,1.388575792312622
18521.59367538448,1.2002699375152588,1.1622201204299927,1.5566425323486328,1.388899564743042
18521.595675446806,1.201403260231018,1.1617343425750732,1.5572901964187622,1.3882519006729126
18521.597675509132,1.2010794878005981,1.1617343425750732,1.5574520826339722,1.3882519006729126
18521.59967557146,1.2020509243011475,1.1615724563598633,1.5576139688491821,1.3890615701675415
18521.601675633785,1.2030224800109863,1.1615724563598633,1.5580997467041016,1.3910044431686401
18521.603675696108,1.2015652656555176,1.1618963479995728,1.557775855064392,1.3901948928833008
18521.605675758434,1.2007555961608887,1.1623820066452026,1.5574520826339722,1.3903567790985107
18521.60767582076,1.2007555961608887,1.1615724563598633,1.5572901964187622,1.3900330066680908
18521.609675883086,1.2017271518707275,1.1622201204299927,1.5582616329193115,1.3901948928833008
18521.611675945413,1.2007555961608887,1.1622201204299927,1.558909296989441,1.3898711204528809
18521.61367600774,1.2007555961608887,1.162705898284912,1.5582616329193115,1.3913283348083496
18521.615676070065,1.201241374015808,1.1623820066452026,1.5572901964187622,1.3908425569534302
18521.61767613239,1.201241374015808,1.1622201204299927,1.5572901964187622,1.3903567790985107
18521.619676194718,1.2010794878005981,1.1617343425750732,1.5572901964187622,1.3903567790985107
18521.621676257044,1.202536702156067,1.160762906074524,1.5569663047790527,1.3906806707382202
18521.62367631937,1.2010794878005981,1.1609247922897339,1.557937741279602,1.3892234563827515
18521.625676381696,1.2009176015853882,1.1618963479995728,1.5566425323486328,1.3893853425979614
18521.627676444023,1.2010794878005981,1.1620582342147827,1.5568044185638428,1.3901948928833008
18521.62967650635,1.2009176015853882,1.1610867977142334,1.5569663047790527,1.3908425569534302
18521.631676568675,1.19929838180542,1.1609247922897339,1.5576139688491821,1.3900330066680908
18521.633676631,1.2001079320907593,1.1617343425750732,1.5568044185638428,1.3895472288131714
18521.635676693328,1.2005937099456787,1.1609247922897339,1.5563186407089233,1.3892234563827515
18521.637676755654,1.2001079320907593,1.1615724563598633,1.555832862854004,1.389709234237671
18521.63967681798,1.2002699375152588,1.1620582342147827,1.555509090423584,1.3901948928833008
18521.641676880303,1.2005937099456787,1.1612486839294434,1.5561567544937134,1.3903567790985107
18521.64367694263,1.19929838180542,1.1622201204299927,1.555509090423584,1.3903567790985107
18521.645677004955,1.19929838180542,1.1617343425750732,1.555185317993164,1.3900330066680908
18521.64767706728,1.19881272315979,1.1612486839294434,1.5548614263534546,1.3901948928833008
18521.649677129608,1.19913649559021,1.160762906074524,1.5550233125686646,1.3908425569534302
18521.651677191934,1.1983269453048706,1.1610867977142334,1.5545376539230347,1.3900330066680908
18521.65367725426,1.19913649559021,1.1612486839294434,1.5532423257827759,1.3893853425979614
18521.655677316587,1.1996222734451294,1.1615724563598633,1.5532423257827759,1.388413906097412
18521.657677378913,1.19913649559021,1.1615724563598633,1.5537279844284058,1.3890615701675415
18521.65967744124,1.19881272315979,1.1617343425750732,1.5548614263534546,1.3893853425979614
18521.661677503565,1.19929838180542,1.1614105701446533,1.5550233125686646,1.389709234237671
18521.66367756589,1.1981650590896606,1.1614105701446533,1.555832862854004,1.3893853425979614
18521.665677628218,1.1976792812347412,1.1618963479995728,1.5550233125686646,1.389709234237671
18521.667677690544,1.1986507177352905,1.1612486839294434,1.5550233125686646,1.3895472288131714
18521.66967775287,1.19881272315979,1.1609247922897339,1.5540518760681152,1.388413906097412
18521.671677815197,1.1983269453048706,1.160762906074524,1.5537279844284058,1.3879281282424927
18521.673677877523,1.19929838180542,1.1602771282196045,1.5538899898529053,1.3890615701675415
18521.67567793985,1.2001079320907593,1.1610867977142334,1.5538899898529053,1.3893853425979614
18521.677678002176,1.2007555961608887,1.1610867977142334,1.5538899898529053,1.3901948928833008
18521.6796780645,1.2002699375152588,1.1602771282196045,1.5543756484985352,1.3893853425979614
18521.681678126828,1.201403260231018,1.1597914695739746,1.5548614263534546,1.3893853425979614
18521.68367818915,1.2001079320907593,1.1597914695739746,1.555347204208374,1.388737678527832
18521.685678251477,1.19913649559021,1.1601152420043945,1.555347204208374,1.388899564743042
18521.687678313803,1.1997841596603394,1.1599533557891846,1.555185317993164,1.388737678527832
18521.68967837613,1.1999460458755493,1.1601152420043945,1.555670976638794,1.388413906097412
18521.691678438456,1.1996222734451294,1.1597914695739746,1.555832862854004,1.3880900144577026
18521.693678500782,1.201403260231018,1.1593056917190552,1.555832862854004,1.388575792312622
18521.69567856311,1.2015652656555176,1.1597914695739746,1.555832862854004,1.3890615701675415
18521.697678625434,1.201241374015808,1.1601152420043945,1.5559948682785034,1.388413906097412
18521.69967868776,1.2005937099456787,1.1610867977142334,1.5561567544937134,1.388575792312622
18521.701678750087,1.2017271518707275,1.160439133644104,1.5568044185638428,1.388899564743042
