0,1
18682.662430346063,11411.0
18682.662492843298,13970.0
18682.662555340536,14853.0
18682.662617837774,15753.0
18682.662680335012,16910.0
18682.662742832246,16699.0
18682.662805329484,15221.0
18682.662867826723,13170.0
18682.66293032396,10266.0
18682.662992821195,7255.0
18682.663055318433,5739.0
18682.66311781567,5118.0
18682.66318031291,4711.0
18682.663242810144,4614.0
18682.663305307382,4538.0
18682.66336780462,4070.0
18682.663430301858,3967.0
18682.663492799093,4737.0
18682.66355529633,5126.0
18682.66361779357,4944.0
18682.663680290803,4771.0
18682.66374278804,4027.0
18682.66380528528,2780.0
18682.663867782518,2195.0
18682.663930279752,1562.0
18682.66399277699,-173.0
18682.66405527423,-2617.0
18682.664117771466,-6032.0
18682.6641802687,-10023.0
18682.66424276594,-13785.0
18682.664305263177,-17072.0
18682.664367760415,-19057.0
18682.66443025765,-20666.0
18682.664492754888,-22875.0
18682.664555252126,-23512.0
18682.664617749364,-23664.0
18682.6646802466,-24469.0
18682.664742743837,-24215.0
18682.664805241075,-23989.0
18682.664867738313,-25146.0
18682.664930235547,-27015.0
18682.664992732785,-28403.0
18682.665055230023,-30052.0
18682.665117727258,-31791.0
18682.665180224496,-32070.0
18682.665242721734,-31260.0
18682.665305218972,-28663.0
18682.665367716207,-21582.0
18682.665430213445,-10493.0
18682.665492710683,560.0
18682.66555520792,9738.0
18682.665617705155,17486.0
18682.665680202394,21549.0
18682.66574269963,20853.0
18682.66580519687,19334.0
18682.665867694104,17818.0
18682.665930191342,14111.0
18682.66599268858,9528.0
18682.66605518582,5769.0
18682.666117683053,2935.0
18682.66618018029,1038.0
18682.66624267753,702.0
18682.666305174767,1557.0
18682.666367672,701.0
18682.66643016924,-1421.0
18682.666492666478,-3363.0
18682.666555163716,-6054.0
18682.66661766095,-7496.0
18682.66668015819,-6351.0
18682.666742655427,-3753.0
18682.666805152665,-810.0
18682.6668676499,2474.0
18682.666930147137,7066.0
18682.666992644376,11573.0
18682.66705514161,15780.0
18682.667117638848,20000.0
18682.667180136086,22209.0
18682.667242633324,21344.0
18682.66730513056,18253.0
18682.667367627797,14630.0
18682.667430125035,10739.0
18682.667492622273,7270.0
18682.667555119508,5561.0
18682.667617616746,4129.0
18682.667680113984,2305.0
18682.667742611222,818.0
18682.667805108456,496.0
18682.667867605694,817.0
18682.667930102933,792.0
18682.66799260017,1116.0
18682.668055097405,1060.0
18682.668117594643,386.0
18682.66818009188,707.0
18682.66824258912,2987.0
18682.668305086354,6218.0
18682.668367583592,8896.0
18682.66843008083,12559.0
18682.66849257807,15245.0
18682.668555075303,15320.0
18682.66861757254,15854.0
18682.66868006978,16276.0
18682.668742567017,15361.0
18682.66880506425,13282.0
18682.66886756149,11216.0
18682.668930058728,8934.0
18682.668992555962,6019.0
18682.6690550532,4756.0
18682.66911755044,4781.0
18682.669180047676,4639.0
18682.66924254491,4590.0
18682.66930504215,4989.0
18682.669367539387,4686.0
18682.669430036625,3893.0
18682.66949253386,4448.0
18682.669555031098,5117.0
18682.669617528336,4774.0
18682.669680025574,4344.0
18682.66974252281,4057.0
18682.669805020047,3464.0
18682.669867517285,2583.0
18682.669930014523,1849.0
18682.669992511757,495.0
18682.670055008995,-2419.0
18682.670117506234,-6094.0
18682.67018000347,-9888.0
18682.670242500706,-14010.0
18682.670304997944,-17555.0
18682.670367495182,-19782.0
18682.67042999242,-22034.0
18682.670492489655,-24467.0
18682.670554986893,-25175.0
18682.67061748413,-25356.0
18682.67067998137,-25932.0
18682.670742478604,-25144.0
18682.67080497584,-24521.0
18682.67086747308,-25704.0
18682.670929970314,-26865.0
18682.670992467552,-27941.0
18682.67105496479,-29574.0
18682.67111746203,-30525.0
18682.671179959263,-30590.0
18682.6712424565,-30050.0
18682.67130495374,-27941.0
18682.671367450977,-21130.0
18682.671429948212,-10108.0
18682.67149244545,-520.0
18682.671554942688,8412.0
18682.671617439926,17760.0
18682.67167993716,21259.0
18682.6717424344,20775.0
18682.671804931637,21216.0
18682.671867428875,19631.0
18682.67192992611,15444.0
18682.671992423348,11006.0
18682.672054920586,6761.0
18682.672117417824,2758.0
18682.67217991506,173.0
18682.672242412296,-196.0
18682.672304909534,-385.0
18682.67236740677,-1728.0
18682.672429904007,-3041.0
18682.672492401245,-4539.0
18682.672554898483,-6859.0
18682.672617395718,-7539.0
18682.672679892956,-5331.0
18682.672742390194,-2876.0
18682.672804887432,-264.0
18682.672867384666,3858.0
18682.672929881905,8298.0
18682.672992379143,12478.0
18682.67305487638,16567.0
18682.673117373615,19980.0
18682.673179870853,21562.0
18682.67324236809,20694.0
18682.67330486533,18514.0
18682.673367362564,15516.0
18682.673429859802,11775.0
18682.67349235704,8573.0
18682.67355485428,6414.0
18682.673617351513,4311.0
18682.67367984875,1875.0
18682.67374234599,269.0
18682.673804843227,-185.0
18682.67386734046,-539.0
18682.6739298377,-586.0
18682.673992334938,-390.0
18682.674054832176,-519.0
18682.67411732941,-773.0
18682.67417982665,111.0
18682.674242323887,2994.0
18682.67430482112,6257.0
18682.67436731836,9714.0
18682.674429815597,13108.0
18682.674492312835,14769.0
18682.67455481007,15944.0
18682.674617307308,16461.0
18682.674679804546,16342.0
18682.674742301784,15735.0
18682.67480479902,13660.0
18682.674867296257,11148.0
18682.674929793495,8822.0
18682.674992290733,6977.0
18682.675054787967,5717.0
18682.675117285205,5380.0
18682.675179782444,5480.0
18682.67524227968,5107.0
18682.675304776916,4490.0
18682.675367274154,3851.0
18682.675429771392,3703.0
18682.67549226863,4027.0
18682.675554765865,4679.0
18682.675617263103,5167.0
18682.67567976034,4952.0
18682.67574225758,4476.0
18682.675804754814,3927.0
18682.675867252052,3113.0
18682.67592974929,1912.0
18682.675992246528,333.0
18682.676054743763,-2477.0
18682.676117241,-6642.0
18682.67617973824,-10806.0
18682.676242235473,-14534.0
18682.67630473271,-17876.0
18682.67636722995,-20195.0
18682.676429727187,-21782.0
18682.676492224422,-23571.0
18682.67655472166,-24257.0
18682.676617218898,-23987.0
18682.676679716136,-24268.0
18682.67674221337,-23955.0
18682.67680471061,-23449.0
18682.676867207847,-24404.0
18682.676929705085,-26256.0
18682.67699220232,-27408.0
18682.677054699558,-28851.0
18682.677117196796,-30797.0
18682.677179694034,-31275.0
18682.67724219127,-30840.0
18682.677304688506,-28758.0
18682.677367185745,-22012.0
18682.677429682983,-11682.0
18682.677492180217,-1863.0
18682.677554677455,7395.0
18682.677617174693,15866.0
18682.677679671928,19389.0
18682.677742169166,19652.0
18682.677804666404,19327.0
18682.677867163642,17701.0
18682.677929660877,14476.0
18682.677992158115,10241.0
18682.678054655353,7055.0
18682.67811715259,3869.0
18682.678179649825,1556.0
18682.678242147063,1380.0
18682.6783046443,1206.0
18682.67836714154,422.0
18682.678429638774,-1032.0
18682.678492136012,-3003.0
18682.67855463325,-5494.0
18682.67861713049,-6888.0
18682.678679627723,-5757.0
18682.67874212496,-3769.0
18682.6788046222,-1132.0
18682.678867119437,2549.0
18682.67892961667,7119.0
18682.67899211391,11405.0
18682.679054611148,15182.0
18682.679117108386,18893.0
18682.67917960562,20875.0
18682.67924210286,20078.0
18682.679304600097,17671.0
18682.679367097335,14664.0
18682.67942959457,11350.0
18682.679492091807,8192.0
18682.679554589045,5986.0
18682.67961708628,4330.0
18682.679679583518,2690.0
18682.679742080756,1576.0
18682.679804577994,1366.0
18682.67986707523,1331.0
18682.679929572467,1496.0
18682.679992069705,2037.0
18682.680054566943,1975.0
18682.680117064177,1683.0
18682.680179561416,2200.0
18682.680242058654,4150.0
18682.68030455589,6528.0
18682.680367053126,8691.0
18682.680429550364,11647.0
18682.680492047602,13313.0
18682.68055454484,13913.0
18682.680617042075,14878.0
18682.680679539313,14590.0
18682.68074203655,13863.0
18682.68080453379,12500.0
18682.680867031024,10144.0
18682.680929528262,7753.0
18682.6809920255,5881.0
18682.681054522738,4980.0
18682.681117019973,4370.0
18682.68117951721,4744.0
18682.68124201445,5423.0
18682.681304511687,5382.0
18682.68136700892,5374.0
18682.68142950616,5679.0
18682.681492003398,6147.0
18682.681554500632,5889.0
18682.68161699787,5766.0
18682.68167949511,5486.0
18682.681741992346,3951.0
18682.68180448958,2997.0
18682.68186698682,2269.0
18682.681929484057,287.0
18682.681991981295,-1862.0
18682.68205447853,-4152.0
18682.682116975768,-7805.0
18682.682179473006,-11964.0
18682.682241970244,-15261.0
18682.68230446748,-18043.0
18682.682366964716,-20282.0
18682.682429461955,-21903.0
18682.682491959193,-22685.0
18682.682554456427,-22818.0
18682.682616953665,-23705.0
18682.682679450903,-23790.0
18682.68274194814,-23463.0
18682.682804445376,-24420.0
18682.682866942614,-25510.0
18682.682929439852,-26714.0
18682.682991937087,-28139.0
18682.683054434325,-30125.0
18682.683116931563,-31256.0
18682.6831794288,-31049.0
18682.683241926035,-30270.0
18682.683304423274,-26370.0
18682.68336692051,-18105.0
18682.68342941775,-6856.0
18682.683491914984,3035.0
18682.683554412222,11304.0
18682.68361690946,18805.0
18682.6836794067,20709.0
18682.683741903933,19876.0
18682.68380440117,19094.0
18682.68386689841,16267.0
18682.683929395647,12407.0
18682.68399189288,7910.0
18682.68405439012,4692.0
18682.684116887358,1974.0
18682.684179384596,225.0
18682.68424188183,1093.0
18682.68430437907,727.0
18682.684366876307,-527.0
18682.684429373545,-1877.0
18682.68449187078,-4054.0
18682.684554368017,-6066.0
18682.684616865256,-6563.0
18682.684679362494,-4262.0
18682.684741859728,-1776.0
18682.684804356966,654.0
18682.684866854204,4879.0
18682.68492935144,9164.0
18682.684991848677,13228.0
18682.685054345915,17227.0
18682.685116843153,20269.0
18682.685179340388,21103.0
18682.685241837626,19180.0
18682.685304334864,16271.0
18682.685366832102,12996.0
18682.685429329336,9491.0
18682.685491826574,6974.0
18682.685554323813,5166.0
18682.68561682105,3525.0
18682.685679318285,2043.0
18682.685741815523,1087.0
18682.68580431276,919.0
18682.68586681,796.0
18682.685929307234,962.0
18682.685991804472,1149.0
18682.68605430171,851.0
18682.68611679895,1021.0
18682.686179296183,2154.0
18682.68624179342,4695.0
18682.68630429066,7704.0
18682.686366787897,10650.0
18682.68642928513,13178.0
18682.68649178237,14303.0
18682.686554279608,14995.0
18682.686616776846,14883.0
18682.68667927408,14309.0
18682.68674177132,13550.0
18682.686804268556,11574.0
18682.68686676579,9280.0
18682.68692926303,7063.0
18682.686991760267,5399.0
18682.687054257505,4667.0
18682.68711675474,4686.0
18682.687179251978,5238.0
18682.687241749216,5271.0
18682.687304246454,5039.0
18682.68736674369,4993.0
18682.687429240927,5283.0
18682.687491738165,5577.0
18682.687554235403,5625.0
18682.687616732637,5568.0
18682.687679229875,4636.0
18682.687741727113,3439.0
18682.68780422435,2483.0
18682.687866721586,1163.0
18682.687929218824,-416.0
18682.687991716062,-2427.0
18682.6880542133,-5466.0
18682.688116710535,-9340.0
18682.688179207773,-12972.0
18682.68824170501,-16285.0
18682.68830420225,-18917.0
18682.688366699484,-20511.0
18682.68842919672,-22150.0
18682.68849169396,-23020.0
18682.688554191194,-22945.0
18682.688616688432,-23426.0
18682.68867918567,-23171.0
18682.68874168291,-22769.0
18682.688804180143,-23505.0
18682.68886667738,-24776.0
18682.68892917462,-26617.0
18682.688991671857,-28328.0
18682.689054169092,-29953.0
18682.68911666633,-31368.0
18682.689179163568,-31409.0
18682.689241660806,-30026.0
18682.68930415804,-25923.0
18682.68936665528,-16772.0
18682.689429152517,-6160.0
18682.689491649755,2489.0
18682.68955414699,11719.0
18682.689616644227,17984.0
18682.689679141466,19212.0
18682.689741638704,19550.0
18682.689804135938,18611.0
18682.689866633176,16387.0
18682.689929130414,12315.0
18682.689991627652,8183.0
18682.690054124887,5277.0
18682.690116622125,2419.0
18682.690179119363,1625.0
18682.690241616598,1775.0
18682.690304113836,1167.0
18682.690366611074,-148.0
18682.690429108312,-1982.0
18682.690491605546,-4009.0
18682.690554102785,-6026.0
18682.690616600023,-5580.0
18682.69067909726,-3553.0
18682.690741594495,-1587.0
18682.690804091733,1309.0
18682.69086658897,5147.0
18682.69092908621,9520.0
18682.690991583444,13571.0
18682.691054080682,17133.0
18682.69111657792,19893.0
18682.69117907516,20147.0
18682.691241572393,18359.0
18682.69130406963,15707.0
18682.69136656687,12651.0
18682.691429064107,9709.0
18682.69149156134,7448.0
18682.69155405858,6010.0
18682.691616555818,4264.0
18682.691679053056,2312.0
18682.69174155029,1407.0
18682.69180404753,1123.0
18682.691866544767,791.0
18682.691929042005,605.0
18682.69199153924,567.0
18682.692054036477,399.0
18682.692116533715,378.0
18682.69217903095,1510.0
18682.692241528188,3953.0
18682.692304025426,6702.0
18682.692366522664,9234.0
18682.6924290199,11783.0
18682.692491517137,14593.0
18682.692554014375,15574.0
18682.692616511613,15647.0
18682.692679008847,16466.0
18682.692741506085,14536.0
18682.692804003324,11814.0
18682.69286650056,10169.0
18682.692928997796,8031.0
18682.692991495034,6131.0
18682.693053992272,4935.0
18682.69311648951,5146.0
18682.693178986745,4900.0
18682.693241483983,4649.0
18682.69330398122,5572.0
18682.69336647846,5513.0
18682.693428975694,5010.0
18682.69349147293,5019.0
18682.69355397017,5084.0
18682.693616467408,4188.0
18682.693678964642,3590.0
18682.69374146188,3737.0
18682.69380395912,2840.0
18682.693866456357,1840.0
18682.69392895359,659.0
18682.69399145083,-1429.0
18682.694053948067,-4583.0
18682.694116445302,-8382.0
18682.69417894254,-11490.0
18682.694241439778,-14898.0
18682.694303937016,-17907.0
18682.69436643425,-19556.0
18682.69442893149,-21223.0
18682.694491428727,-22495.0
18682.694553925965,-22676.0
18682.6946164232,-22532.0
18682.694678920438,-23151.0
18682.694741417676,-23500.0
18682.694803914914,-24013.0
18682.69486641215,-26140.0
18682.694928909386,-27587.0
18682.694991406624,-28973.0
18682.695053903863,-30862.0
18682.695116401097,-31798.0
18682.695178898335,-32138.0
18682.695241395573,-31127.0
18682.69530389281,-27255.0
18682.695366390046,-19109.0
18682.695428887284,-8595.0
18682.695491384522,927.0
18682.695553881756,10522.0
18682.695616378995,17798.0
18682.695678876233,19772.0
18682.69574137347,20608.0
18682.695803870705,20690.0
18682.695866367943,18154.0
18682.69592886518,14419.0
18682.69599136242,10626.0
18682.696053859654,6287.0
18682.696116356892,2255.0
18682.69617885413,766.0
18682.69624135137,415.0
18682.696303848603,-268.0
18682.69636634584,-1238.0
18682.69642884308,-2812.0
18682.696491340317,-4555.0
18682.69655383755,-6278.0
18682.69661633479,-5826.0
18682.696678832028,-3451.0
18682.696741329266,-1332.0
18682.6968038265,1535.0
18682.69686632374,5159.0
18682.696928820977,8801.0
18682.696991318215,12712.0
18682.69705381545,16505.0
18682.697116312687,19234.0
18682.697178809925,19857.0
18682.697241307163,18995.0
18682.697303804398,16752.0
18682.697366301636,13366.0
18682.697428798874,10509.0
18682.69749129611,8411.0
18682.697553793347,6641.0
18682.697616290585,4664.0
18682.697678787823,2746.0
18682.697741285057,1412.0
18682.697803782296,476.0
18682.697866279534,280.0
18682.69792877677,359.0
18682.697991274006,619.0
18682.698053771244,1271.0
18682.698116268482,1668.0
18682.69817876572,2568.0
18682.698241262955,5053.0
18682.698303760193,8446.0
18682.69836625743,10507.0
18682.69842875467,11637.0
18682.698491251904,13338.0
18682.698553749142,13222.0
18682.69861624638,12042.0
18682.698678743618,12200.0
18682.698741240853,11952.0
18682.69880373809,9912.0
18682.69886623533,8365.0
18682.698928732567,7965.0
18682.6989912298,6332.0
18682.69905372704,5604.0
18682.699116224278,6753.0
18682.699178721516,6871.0
18682.69924121875,6288.0
18682.69930371599,6601.0
18682.699366213226,6759.0
18682.69942871046,5720.0
18682.6994912077,5703.0
18682.699553704937,6302.0
18682.699616202175,5408.0
18682.69967869941,4276.0
18682.699741196648,3495.0
18682.699803693886,2197.0
18682.699866191124,574.0
18682.69992868836,-523.0
18682.699991185596,-1803.0
18682.700053682835,-4513.0
18682.700116180073,-7702.0
18682.700178677307,-10237.0
18682.700241174545,-13246.0
18682.700303671783,-16310.0
18682.70036616902,-17687.0
18682.700428666256,-19308.0
18682.700491163494,-21635.0
18682.700553660732,-22314.0
18682.70061615797,-22594.0
18682.700678655205,-23216.0
18682.700741152443,-23278.0
18682.70080364968,-23456.0
18682.700866146915,-24619.0
18682.700928644153,-26525.0
18682.70099114139,-27722.0
18682.70105363863,-28743.0
18682.701116135864,-30385.0
18682.701178633102,-30920.0
18682.70124113034,-30348.0
18682.70130362758,-29469.0
18682.701366124813,-24695.0
18682.70142862205,-14856.0
18682.70149111929,-5762.0
18682.701553616527,2553.0
18682.70161611376,12001.0
18682.701678611,16894.0
18682.701741108238,18084.0
18682.701803605476,19143.0
18682.70186610271,19053.0
18682.70192859995,17295.0
18682.701991097187,13725.0
18682.702053594425,10506.0
18682.70211609166,6811.0
18682.702178588897,3204.0
18682.702241086135,2340.0
18682.702303583374,2014.0
18682.702366080608,937.0
18682.702428577846,-628.0
18682.702491075084,-2577.0
18682.702553572322,-5105.0
18682.702616069557,-6891.0
18682.702678566795,-5415.0
18682.702741064033,-2741.0
18682.702803561268,-232.0
18682.702866058506,2845.0
18682.702928555744,6171.0
18682.70299105298,9614.0
18682.703053550216,13092.0
18682.703116047454,16701.0
18682.703178544692,19080.0
18682.70324104193,19042.0
18682.703303539165,17793.0
18682.703366036403,15419.0
18682.70342853364,12266.0
18682.70349103088,9993.0
18682.703553528114,8560.0
18682.703616025352,6749.0
18682.70367852259,4391.0
18682.703741019828,2480.0
18682.703803517063,1134.0
18682.7038660143,245.0
18682.70392851154,110.0
18682.703991008777,358.0
18682.70405350601,856.0
18682.70411600325,1474.0
18682.704178500488,2192.0
18682.704240997726,3703.0
18682.70430349496,6423.0
18682.7043659922,9616.0
18682.704428489436,11292.0
18682.704490986675,12218.0
18682.70455348391,13024.0
18682.704615981147,12283.0
18682.704678478385,11683.0
18682.70474097562,11879.0
18682.704803472858,11274.0
18682.704865970096,9673.0
18682.704928467334,8284.0
18682.70499096457,7321.0
18682.705053461807,6079.0
18682.705115959045,5844.0
18682.705178456283,6940.0
18682.705240953517,7196.0
18682.705303450755,6572.0
18682.705365947993,6708.0
18682.70542844523,6555.0
18682.705490942466,5673.0
18682.705553439704,6120.0
18682.705615936942,6618.0
18682.70567843418,5274.0
18682.705740931415,3894.0
18682.705803428653,3171.0
18682.70586592589,1766.0
18682.70592842313,154.0
18682.705990920364,-810.0
18682.7060534176,-2504.0
18682.70611591484,-5808.0
18682.706178412074,-8951.0
18682.706240909312,-11632.0
18682.70630340655,-14931.0
18682.70636590379,-17166.0
18682.706428401023,-18282.0
18682.70649089826,-20167.0
18682.7065533955,-21535.0
18682.706615892737,-21650.0
18682.70667838997,-22025.0
18682.70674088721,-22611.0
18682.706803384448,-22468.0
18682.706865881686,-22788.0
18682.70692837892,-24646.0
18682.70699087616,-26263.0
18682.707053373397,-27634.0
18682.707115870635,-29536.0
18682.70717836787,-30572.0
18682.707240865107,-30567.0
18682.707303362346,-30405.0
18682.707365859584,-28699.0
18682.707428356818,-22676.0
18682.707490854056,-13159.0
18682.707553351294,-3991.0
18682.707615848532,4695.0
18682.707678345767,12946.0
18682.707740843005,16724.0
18682.707803340243,17455.0
18682.70786583748,18292.0
18682.707928334716,17665.0
18682.707990831954,15732.0
18682.708053329192,12555.0
18682.708115826426,9129.0
18682.708178323664,5933.0
18682.708240820903,3198.0
18682.70830331814,2531.0
18682.708365815375,1921.0
18682.708428312613,635.0
18682.70849080985,-556.0
18682.70855330709,-2564.0
18682.708615804324,-4923.0
18682.708678301562,-5666.0
18682.7087407988,-4021.0
18682.70880329604,-2000.0
18682.708865793273,386.0
18682.70892829051,3767.0
18682.70899078775,6950.0
18682.709053284987,10098.0
18682.70911578222,13208.0
18682.70917827946,16290.0
18682.709240776698,18289.0
18682.709303273936,17705.0
18682.70936577117,16269.0
18682.70942826841,14278.0
18682.709490765646,11522.0
18682.709553262885,9545.0
18682.70961576012,8138.0
18682.709678257357,6545.0
18682.709740754595,4519.0
18682.709803251833,2869.0
18682.709865749068,1960.0
18682.709928246306,1220.0
18682.709990743544,919.0
18682.71005324078,730.0
18682.710115738017,432.0
18682.710178235255,610.0
18682.710240732493,2051.0
18682.710303229727,4632.0
18682.710365726965,7218.0
18682.710428224203,10561.0
18682.71049072144,12921.0
18682.710553218676,13559.0
18682.710615715914,14299.0
18682.710678213152,14249.0
18682.71074071039,13546.0
18682.710803207625,12353.0
18682.710865704863,11087.0
18682.7109282021,9101.0
18682.71099069934,6530.0
18682.711053196574,5759.0
18682.71111569381,5618.0
18682.71117819105,5341.0
18682.711240688288,5610.0
18682.711303185522,6086.0
18682.71136568276,6070.0
18682.71142818,5573.0
18682.711490677237,6098.0
18682.71155317447,6875.0
18682.71161567171,6754.0
18682.711678168947,6514.0
18682.711740666182,6246.0
18682.71180316342,4893.0
18682.711865660658,3312.0
18682.711928157896,2869.0
18682.71199065513,1672.0
18682.71205315237,-924.0
18682.712115649607,-3351.0
18682.712178146845,-6616.0
18682.71224064408,-10729.0
18682.712303141318,-13888.0
18682.712365638556,-16262.0
18682.712428135794,-18491.0
18682.71249063303,-20247.0
18682.712553130266,-21499.0
18682.712615627504,-22341.0
18682.712678124743,-22293.0
18682.712740621977,-21997.0
18682.712803119215,-22326.0
18682.712865616453,-22576.0
18682.71292811369,-23368.0
18682.712990610926,-25204.0
18682.713053108164,-26659.0
18682.713115605402,-27516.0
18682.71317810264,-28440.0
18682.713240599875,-29286.0
18682.713303097113,-29277.0
18682.71336559435,-28720.0
18682.713428091585,-26268.0
18682.713490588823,-19177.0
18682.71355308606,-9536.0
18682.7136155833,-1492.0
18682.713678080534,6385.0
18682.713740577772,14013.0
18682.71380307501,16263.0
18682.71386557225,16933.0
18682.713928069483,18760.0
18682.71399056672,17596.0
18682.71405306396,14616.0
18682.714115561197,10963.0
18682.71417805843,7279.0
18682.71424055567,3710.0
18682.714303052908,1799.0
18682.714365550146,2027.0
18682.71442804738,1334.0
18682.71449054462,377.0
18682.714553041857,-1101.0
18682.714615539095,-3003.0
18682.71467803633,-4251.0
18682.714740533567,-4032.0
18682.714803030805,-1923.0
18682.714865528043,-571.0
18682.714928025278,1310.0
18682.714990522516,4253.0
18682.715053019754,6840.0
18682.715115516992,10339.0
18682.715178014227,14141.0
18682.715240511465,17269.0
18682.715303008703,18382.0
18682.715365505937,17389.0
18682.715428003175,15863.0
18682.715490500414,13460.0
18682.71555299765,11074.0
18682.715615494886,9066.0
18682.715677992124,7316.0
18682.715740489362,5496.0
18682.7158029866,3256.0
18682.715865483835,1784.0
18682.715927981073,1023.0
18682.71599047831,942.0
18682.71605297555,1515.0
18682.716115472784,2065.0
18682.71617797002,2065.0
18682.71624046726,1447.0
18682.716302964498,1880.0
18682.716365461732,3891.0
18682.71642795897,6630.0
18682.71649045621,9156.0
18682.716552953447,10448.0
18682.71661545068,11906.0
18682.71667794792,12914.0
18682.716740445157,11779.0
18682.716802942396,12274.0
18682.71686543963,13238.0
18682.716927936868,11138.0
18682.716990434106,9142.0
18682.717052931344,8147.0
18682.71711542858,6916.0
18682.717177925817,5935.0
18682.717240423055,6903.0
18682.71730292029,8083.0
18682.717365417528,7162.0
18682.717427914766,6998.0
18682.717490412004,7418.0
18682.71755290924,6356.0
18682.717615406476,5470.0
18682.717677903715,6300.0
18682.717740400953,6099.0
18682.717802898187,3897.0
18682.717865395425,3092.0
18682.717927892663,2763.0
18682.7179903899,1162.0
18682.718052887136,77.0
18682.718115384374,-212.0
18682.718177881612,-2129.0
18682.71824037885,-6154.0
18682.718302876085,-9295.0
18682.718365373323,-11706.0
18682.71842787056,-15334.0
18682.7184903678,-17722.0
18682.718552865033,-18518.0
18682.71861536227,-20483.0
18682.71867785951,-22230.0
18682.718740356744,-22287.0
18682.718802853982,-21934.0
18682.71886535122,-22368.0
18682.71892784846,-22616.0
18682.718990345693,-22717.0
18682.71905284293,-24452.0
18682.71911534017,-25937.0
18682.719177837407,-26792.0
18682.71924033464,-27875.0
18682.71930283188,-28575.0
18682.719365329118,-29078.0
18682.719427826356,-29134.0
18682.71949032359,-27877.0
18682.71955282083,-22496.0
18682.719615318067,-13487.0
18682.719677815305,-4708.0
18682.71974031254,3688.0
18682.719802809777,11839.0
18682.719865307015,16397.0
18682.719927804254,17316.0
18682.719990301488,18265.0
18682.720052798726,18288.0
18682.720115295964,15993.0
18682.720177793202,12569.0
18682.720240290437,8880.0
18682.720302787675,5069.0
18682.720365284913,2206.0
18682.72042778215,1566.0
18682.720490279386,1241.0
18682.720552776624,285.0
18682.72061527386,-515.0
18682.720677771096,-1964.0
18682.720740268334,-3885.0
18682.720802765572,-4478.0
18682.72086526281,-2837.0
18682.720927760045,-739.0
18682.720990257283,930.0
18682.72105275452,3626.0
18682.72111525176,6612.0
18682.721177748994,9259.0
18682.721240246232,12474.0
18682.72130274347,15812.0
18682.721365240708,17886.0
18682.721427737943,17829.0
18682.72149023518,16496.0
18682.72155273242,14145.0
18682.721615229657,11518.0
18682.72167772689,9609.0
18682.72174022413,7982.0
18682.721802721368,6308.0
18682.721865218606,4223.0
18682.72192771584,2585.0
18682.72199021308,1681.0
18682.722052710316,1136.0
18682.722115207554,1333.0
18682.72217770479,1528.0
18682.722240202027,1878.0
18682.722302699265,2169.0
18682.722365196503,2372.0
18682.722427693738,3791.0
18682.722490190976,6391.0
18682.722552688214,8798.0
18682.72261518545,10073.0
18682.722677682686,11514.0
18682.722740179925,12715.0
18682.722802677163,12276.0
18682.722865174397,12211.0
18682.722927671635,12496.0
18682.722990168873,11535.0
18682.72305266611,9913.0
18682.723115163346,8600.0
18682.723177660584,7622.0
18682.723240157822,6333.0
18682.72330265506,6143.0
18682.723365152295,7146.0
18682.723427649533,7251.0
18682.72349014677,6652.0
18682.72355264401,6464.0
18682.723615141243,6414.0
18682.72367763848,5690.0
18682.72374013572,5386.0
18682.723802632958,5933.0
18682.723865130192,5213.0
18682.72392762743,3599.0
18682.72399012467,2735.0
18682.724052621903,1924.0
18682.72411511914,331.0
18682.72417761638,-1344.0
18682.724240113617,-3164.0
18682.72430261085,-6693.0
18682.72436510809,-10473.0
18682.724427605328,-12926.0
18682.724490102566,-15958.0
18682.7245525998,-18609.0
18682.72461509704,-19674.0
18682.724677594277,-20929.0
18682.724740091515,-22144.0
18682.72480258875,-22687.0
18682.724865085987,-22743.0
18682.724927583226,-22741.0
18682.724990080464,-22592.0
18682.725052577698,-22637.0
18682.725115074936,-23824.0
18682.725177572174,-25261.0
18682.725240069412,-26766.0
18682.725302566647,-28250.0
18682.725365063885,-29030.0
18682.725427561123,-29076.0
18682.72549005836,-28069.0
18682.725552555596,-25076.0
18682.725615052834,-18795.0
18682.725677550072,-9656.0
18682.72574004731,-517.0
18682.725802544544,7663.0
18682.725865041783,14283.0
18682.72592753902,16897.0
18682.725990036255,17073.0
18682.726052533493,16541.0
18682.72611503073,15097.0
18682.72617752797,12756.0
18682.726240025204,9573.0
18682.726302522442,6858.0
18682.72636501968,4407.0
18682.72642751692,2728.0
18682.726490014153,2324.0
18682.72655251139,1841.0
18682.72661500863,1266.0
18682.726677505867,175.0
18682.7267400031,-1924.0
18682.72680250034,-3807.0
18682.726864997578,-4324.0
18682.726927494816,-3220.0
18682.72698999205,-1459.0
18682.72705248929,855.0
18682.727114986526,3968.0
18682.727177483765,7080.0
18682.727239981,10120.0
18682.727302478237,13173.0
18682.727364975475,16172.0
18682.727427472713,18044.0
18682.727489969948,17729.0
18682.727552467186,15909.0
18682.727614964424,13113.0
18682.727677461662,10688.0
18682.727739958897,8821.0
18682.727802456135,7153.0
18682.727864953373,5848.0
18682.727927450607,4274.0
18682.727989947845,2889.0
18682.728052445083,1993.0
18682.72811494232,1379.0
18682.728177439556,1167.0
18682.728239936794,1082.0
18682.728302434032,879.0
18682.72836493127,628.0
18682.728427428505,1461.0
18682.728489925743,3269.0
18682.72855242298,5961.0
18682.72861492022,9265.0
18682.728677417454,11118.0
18682.72873991469,12538.0
18682.72880241193,14181.0
18682.728864909168,14055.0
18682.728927406402,13261.0
18682.72898990364,13360.0
18682.72905240088,12504.0
18682.729114898117,10366.0
18682.72917739535,8829.0
18682.72923989259,7680.0
18682.729302389827,6564.0
18682.729364887062,6386.0
18682.7294273843,6894.0
18682.729489881538,6705.0
18682.729552378776,5826.0
18682.72961487601,5238.0
18682.72967737325,4809.0
18682.729739870487,4259.0
18682.729802367725,4060.0
18682.72986486496,4250.0
18682.729927362197,3829.0
18682.729989859436,2930.0
18682.730052356674,2410.0
18682.730114853908,1817.0
18682.730177351146,720.0
18682.730239848384,-1012.0
18682.730302345622,-3619.0
18682.730364842857,-7094.0
18682.730427340095,-10840.0
18682.730489837333,-14332.0
18682.73055233457,-17196.0
18682.730614831806,-19192.0
18682.730677329044,-20814.0
18682.730739826282,-21707.0
18682.73080232352,-21809.0
18682.730864820755,-22377.0
18682.730927317993,-22700.0
18682.73098981523,-22427.0
18682.73105231247,-22892.0
18682.731114809703,-24110.0
18682.73117730694,-25286.0
18682.73123980418,-26633.0
18682.731302301414,-28837.0
18682.731364798652,-30326.0
18682.73142729589,-30852.0
18682.73148979313,-31111.0
18682.731552290363,-28392.0
18682.7316147876,-21526.0
18682.73167728484,-12393.0
18682.731739782077,-3682.0
18682.73180227931,4831.0
18682.73186477655,13043.0
18682.731927273788,16237.0
18682.731989771026,17302.0
18682.73205226826,19304.0
18682.7321147655,18056.0
18682.732177262737,14962.0
18682.732239759975,11523.0
18682.73230225721,8162.0
18682.732364754447,5326.0
18682.732427251685,3237.0
18682.732489748923,3369.0
18682.732552246158,2930.0
18682.732614743396,1537.0
18682.732677240634,178.0
18682.732739737872,-2164.0
18682.732802235107,-4293.0
18682.732864732345,-5151.0
18682.732927229583,-4253.0
18682.73298972682,-3097.0
18682.733052224055,-1643.0
18682.733114721294,1650.0
18682.73317721853,5067.0
18682.733239715766,8446.0
18682.733302213004,12745.0
18682.733364710242,16717.0
18682.73342720748,18912.0
18682.733489704715,18668.0
18682.733552201953,17379.0
18682.73361469919,15293.0
18682.73367719643,12269.0
18682.733739693664,10285.0
18682.7338021909,8932.0
18682.73386468814,6649.0
18682.733927185378,4347.0
18682.733989682612,2755.0
18682.73405217985,1478.0
18682.73411467709,719.0
18682.734177174327,666.0
18682.73423967156,496.0
18682.7343021688,137.0
18682.734364666037,351.0
18682.734427163276,1115.0
18682.73448966051,2801.0
18682.734552157748,5580.0
18682.734614654986,8700.0
18682.734677152224,11002.0
18682.73473964946,12427.0
18682.734802146697,13574.0
18682.734864643935,13487.0
18682.73492714117,13189.0
18682.734989638408,13026.0
18682.735052135646,11851.0
18682.735114632884,10401.0
18682.73517713012,8921.0
18682.735239627356,7393.0
18682.735302124594,6296.0
18682.735364621833,6312.0
18682.735427119067,6658.0
18682.735489616305,6566.0
18682.735552113543,6381.0
18682.73561461078,5732.0
18682.735677108016,5169.0
18682.735739605254,4935.0
18682.735802102492,4884.0
18682.73586459973,4921.0
18682.735927096965,4529.0
18682.735989594203,3826.0
18682.73605209144,2921.0
18682.73611458868,1951.0
18682.736177085913,777.0
18682.73623958315,-760.0
18682.73630208039,-3245.0
18682.736364577628,-7010.0
18682.736427074862,-10789.0
18682.7364895721,-14287.0
18682.73655206934,-17656.0
18682.736614566573,-20023.0
18682.73667706381,-21102.0
18682.73673956105,-21858.0
18682.736802058287,-22626.0
18682.73686455552,-22462.0
18682.73692705276,-22191.0
18682.736989549998,-22661.0
18682.737052047236,-22874.0
18682.73711454447,-23071.0
18682.73717704171,-24499.0
18682.737239538947,-26834.0
18682.737302036185,-28252.0
18682.73736453342,-29547.0
18682.737427030657,-31028.0
18682.737489527895,-30715.0
18682.737552025133,-28422.0
18682.737614522368,-22726.0
18682.737677019606,-13634.0
18682.737739516844,-4572.0
18682.737802014082,4386.0
18682.737864511317,13079.0
18682.737927008555,18487.0
18682.737989505793,20322.0
18682.73805200303,20724.0
18682.738114500266,20137.0
18682.738176997504,17134.0
18682.73823949474,12492.0
18682.73830199198,8665.0
18682.738364489214,5433.0
18682.738426986452,2932.0
18682.73848948369,1575.0
18682.738551980925,1098.0
18682.738614478163,424.0
18682.7386769754,-1479.0
18682.73873947264,-3092.0
18682.738801969874,-4524.0
18682.738864467112,-5422.0
18682.73892696435,-4773.0
18682.738989461588,-3821.0
18682.739051958823,-2036.0
18682.73911445606,821.0
18682.7391769533,4419.0
18682.739239450537,8636.0
18682.73930194777,12744.0
18682.73936444501,16644.0
18682.739426942248,18979.0
18682.739489439486,19296.0
18682.73955193672,18493.0
18682.73961443396,16579.0
18682.739676931196,13837.0
18682.739739428434,10865.0
18682.73980192567,8573.0
18682.739864422907,6351.0
18682.739926920145,3923.0
18682.739989417383,2230.0
18682.740051914618,1219.0
18682.740114411856,724.0
18682.740176909094,253.0
18682.740239406332,-53.0
18682.740301903566,-70.0
18682.740364400805,-786.0
18682.740426898043,-1280.0
18682.740489395277,217.0
18682.740551892515,2620.0
18682.740614389753,4224.0
18682.74067688699,7074.0
18682.740739384226,10517.0
18682.740801881464,12645.0
18682.740864378702,15207.0
18682.74092687594,16789.0
18682.740989373175,16738.0
18682.741051870413,15497.0
18682.74111436765,12874.0
18682.74117686489,10861.0
18682.741239362123,9163.0
18682.74130185936,7779.0
18682.7413643566,7117.0
18682.741426853838,6827.0
18682.741489351072,6595.0
18682.74155184831,6258.0
18682.74161434555,6246.0
18682.741676842787,5817.0
18682.74173934002,5253.0
18682.74180183726,4469.0
18682.741864334497,3487.0
18682.74192683173,2832.0
18682.74198932897,1991.0
18682.742051826208,1727.0
18682.742114323446,1756.0
18682.74217682068,1333.0
18682.74223931792,108.0
18682.742301815157,-2038.0
18682.742364312395,-5180.0
18682.74242680963,-9249.0
18682.742489306867,-12436.0
18682.742551804105,-15306.0
18682.742614301344,-18375.0
18682.742676798578,-20083.0
18682.742739295816,-21302.0
18682.742801793054,-22408.0
18682.742864290292,-22545.0
18682.742926787527,-22262.0
18682.742989284765,-22368.0
18682.743051782003,-23313.0
18682.74311427924,-24520.0
18682.743176776476,-26143.0
18682.743239273714,-28151.0
18682.74330177095,-29569.0
18682.74336426819,-30710.0
18682.743426765424,-31759.0
18682.743489262662,-32382.0
18682.7435517599,-30146.0
18682.74361425714,-23142.0
18682.743676754373,-13457.0
18682.74373925161,-3490.0
18682.74380174885,6815.0
18682.743864246084,15802.0
18682.743926743322,19650.0
18682.74398924056,20927.0
18682.744051737798,21586.0
18682.744114235033,20229.0
18682.74417673227,17267.0
18682.74423922951,12696.0
18682.744301726747,8659.0
18682.74436422398,4870.0
18682.74442672122,1998.0
18682.744489218458,1324.0
18682.744551715696,763.0
18682.74461421293,332.0
18682.74467671017,-1340.0
18682.744739207406,-4132.0
18682.744801704644,-6564.0
18682.74486420188,-7530.0
18682.744926699117,-6137.0
18682.744989196355,-4349.0
18682.745051693593,-1641.0
18682.745114190828,1717.0
18682.745176688066,5050.0
18682.745239185304,9181.0
18682.745301682542,13396.0
18682.745364179777,17808.0
18682.745426677015,20430.0
18682.745489174253,20485.0
18682.74555167149,18970.0
18682.745614168725,15945.0
18682.745676665963,12991.0
18682.7457391632,10383.0
18682.745801660436,8414.0
18682.745864157674,6560.0
18682.745926654912,4069.0
18682.74598915215,2213.0
18682.746051649385,759.0
18682.746114146623,-238.0
18682.74617664386,-681.0
18682.7462391411,-825.0
18682.746301638334,-753.0
18682.74636413557,-1355.0
18682.74642663281,-1421.0
18682.746489130048,324.0
18682.746551627282,2988.0
18682.74661412452,5812.0
18682.74667662176,9553.0
18682.746739118997,12681.0
18682.74680161623,13472.0
18682.74686411347,14992.0
18682.746926610707,15912.0
18682.746989107945,14977.0
18682.74705160518,14656.0
18682.747114102418,13251.0
18682.747176599656,10782.0
18682.74723909689,8535.0
18682.74730159413,7361.0
18682.747364091367,6734.0
18682.747426588605,6146.0
18682.74748908584,6482.0
18682.747551583077,6125.0
18682.747614080316,4873.0
18682.747676577554,4100.0
18682.747739074788,4140.0
18682.747801572026,3798.0
18682.747864069264,3299.0
18682.747926566502,3762.0
18682.747989063737,3327.0
18682.748051560975,2188.0
18682.748114058213,1776.0
18682.74817655545,1267.0
18682.748239052686,-164.0
18682.748301549924,-2340.0
18682.748364047162,-5391.0
18682.7484265444,-9218.0
18682.748489041634,-13178.0
18682.748551538873,-16695.0
18682.74861403611,-18654.0
18682.74867653335,-20250.0
18682.748739030583,-21984.0
18682.74880152782,-22542.0
18682.74886402506,-23124.0
18682.748926522298,-23962.0
18682.748989019532,-24000.0
18682.74905151677,-23848.0
18682.74911401401,-24841.0
18682.749176511243,-26527.0
18682.74923900848,-27580.0
18682.74930150572,-29313.0
18682.749364002957,-30664.0
18682.74942650019,-30553.0
18682.74948899743,-30247.0
18682.749551494668,-26598.0
18682.749613991906,-18553.0
18682.74967648914,-9180.0
18682.74973898638,24.0
18682.749801483616,10227.0
18682.749863980855,17783.0
18682.74992647809,19535.0
18682.749988975327,21031.0
18682.750051472565,21024.0
18682.750113969803,17693.0
18682.750176467038,14408.0
18682.750238964276,10523.0
18682.750301461514,6521.0
18682.750363958752,3076.0
18682.750426455987,1262.0
18682.750488953225,904.0
18682.750551450463,-109.0
18682.7506139477,-557.0
18682.750676444935,-1499.0
18682.750738942173,-4293.0
18682.75080143941,-6578.0
18682.75086393665,-6580.0
18682.750926433884,-5548.0
18682.750988931122,-4342.0
18682.75105142836,-1240.0
18682.751113925595,2640.0
18682.751176422833,5989.0
18682.75123892007,10029.0
18682.75130141731,14564.0
18682.751363914544,18378.0
18682.75142641178,19890.0
18682.75148890902,19511.0
18682.751551406258,18146.0
18682.751613903492,14821.0
18682.75167640073,11281.0
18682.75173889797,9202.0
18682.751801395207,7119.0
18682.75186389244,4679.0
18682.75192638968,2860.0
18682.751988886917,1675.0
18682.752051384155,696.0
18682.75211388139,250.0
18682.752176378628,419.0
18682.752238875866,562.0
18682.752301373104,711.0
18682.75236387034,599.0
18682.752426367577,433.0
18682.752488864815,1695.0
18682.75255136205,3990.0
18682.752613859288,6508.0
18682.752676356526,9021.0
18682.752738853764,11105.0
18682.752801351,13207.0
18682.752863848236,14356.0
18682.752926345474,14654.0
18682.752988842713,15245.0
18682.753051339947,14436.0
18682.753113837185,11966.0
18682.753176334423,9955.0
18682.75323883166,8242.0
18682.753301328896,6443.0
18682.753363826134,5850.0
18682.753426323372,6031.0
18682.75348882061,5652.0
18682.753551317845,5048.0
18682.753613815083,5141.0
18682.75367631232,5225.0
18682.75373880956,4657.0
18682.753801306793,4644.0
18682.75386380403,4833.0
18682.75392630127,3855.0
18682.753988798508,2566.0
18682.754051295742,2179.0
18682.75411379298,1262.0
18682.75417629022,-604.0
18682.754238787456,-2209.0
18682.75430128469,-4846.0
18682.75436378193,-8753.0
18682.754426279167,-12315.0
18682.7544887764,-15623.0
18682.75455127364,-18394.0
18682.754613770878,-20195.0
18682.754676268116,-21714.0
18682.75473876535,-22670.0
18682.75480126259,-23360.0
18682.754863759827,-23917.0
18682.754926257065,-23768.0
18682.7549887543,-23714.0
18682.755051251537,-24051.0
18682.755113748775,-24638.0
18682.755176246013,-25929.0
18682.755238743248,-27989.0
18682.755301240486,-29943.0
18682.755363737724,-30814.0
18682.755426234962,-31104.0
18682.755488732197,-28345.0
18682.755551229435,-19318.0
18682.755613726673,-9189.0
18682.75567622391,-730.0
18682.755738721145,9731.0
18682.755801218384,17484.0
18682.75586371562,19361.0
18682.75592621286,20960.0
18682.755988710094,21519.0
18682.756051207332,18687.0
18682.75611370457,14126.0
18682.75617620181,9911.0
18682.756238699043,6026.0
18682.75630119628,1871.0
18682.75636369352,543.0
18682.756426190754,1030.0
18682.75648868799,-58.0
18682.75655118523,-1177.0
18682.756613682468,-1962.0
18682.756676179702,-4213.0
18682.75673867694,-6791.0
18682.75680117418,-6420.0
18682.756863671417,-4775.0
18682.75692616865,-4025.0
18682.75698866589,-1605.0
18682.757051163127,2259.0
18682.757113660366,5845.0
18682.7571761576,9777.0
18682.757238654838,14499.0
18682.757301152076,18562.0
18682.757363649314,19401.0
18682.75742614655,18715.0
18682.757488643787,17884.0
18682.757551141025,14837.0
18682.757613638263,11349.0
18682.757676135498,9479.0
18682.757738632736,7569.0
18682.757801129974,4641.0
18682.757863627212,2403.0
18682.757926124446,1774.0
18682.757988621684,964.0
18682.758051118923,105.0
18682.758113616157,365.0
18682.758176113395,276.0
18682.758238610633,-534.0
18682.75830110787,-728.0
18682.758363605106,97.0
18682.758426102344,1835.0
18682.758488599582,4368.0
18682.75855109682,7547.0
18682.758613594055,10213.0
18682.758676091293,11590.0
18682.75873858853,12932.0
18682.75880108577,13588.0
18682.758863583003,13241.0
18682.75892608024,12945.0
18682.75898857748,11689.0
18682.759051074718,9791.0
18682.759113571952,8477.0
18682.75917606919,7927.0
18682.75923856643,7250.0
18682.759301063666,7700.0
18682.7593635609,8811.0
18682.75942605814,7949.0
18682.759488555377,7493.0
18682.759551052615,7092.0
18682.75961354985,5939.0
18682.759676047088,5185.0
18682.759738544326,4569.0
18682.75980104156,4222.0
18682.7598635388,3072.0
18682.759926036037,2341.0
18682.759988533275,2163.0
18682.76005103051,1212.0
18682.760113527747,58.0
18682.760176024985,-1507.0
18682.760238522224,-4267.0
18682.760301019458,-8367.0
18682.760363516696,-11800.0
18682.760426013934,-14777.0
18682.760488511172,-18225.0
18682.760551008407,-19768.0
18682.760613505645,-20439.0
18682.760676002883,-21873.0
18682.76073850012,-22060.0
18682.760800997356,-21381.0
18682.760863494594,-21927.0
18682.76092599183,-22433.0
18682.76098848907,-22121.0
18682.761050986304,-23301.0
18682.761113483542,-25741.0
18682.76117598078,-27330.0
18682.76123847802,-28980.0
18682.761300975253,-31158.0
18682.76136347249,-31707.0
18682.76142596973,-30228.0
18682.761488466967,-24854.0
18682.761550964202,-15193.0
18682.76161346144,-5345.0
18682.761675958678,4044.0
18682.761738455913,13570.0
18682.76180095315,18551.0
18682.76186345039,19398.0
18682.761925947627,20302.0
18682.76198844486,19203.0
18682.7620509421,15758.0
18682.762113439338,11577.0
18682.762175936576,8217.0
18682.76223843381,5024.0
18682.76230093105,2329.0
18682.762363428286,2564.0
18682.762425925524,2332.0
18682.76248842276,1121.0
18682.762550919997,-71.0
18682.762613417235,-2474.0
18682.762675914473,-5386.0
18682.762738411708,-7416.0
18682.762800908946,-6642.0
18682.762863406184,-5398.0
18682.762925903422,-3668.0
18682.762988400656,185.0
18682.763050897895,3812.0
18682.763113395133,7854.0
18682.76317589237,12427.0
18682.763238389605,16499.0
18682.763300886843,18965.0
18682.76336338408,18929.0
18682.76342588132,17992.0
18682.763488378554,15517.0
18682.763550875792,12157.0
18682.76361337303,9745.0
18682.763675870265,7863.0
18682.763738367503,5974.0
18682.76380086474,3747.0
18682.76386336198,2660.0
18682.763925859213,2207.0
18682.76398835645,1283.0
18682.76405085369,984.0
18682.764113350928,814.0
18682.764175848162,367.0
18682.7642383454,-485.0
18682.76430084264,-1254.0
18682.764363339877,-686.0
18682.76442583711,768.0
18682.76448833435,2931.0
18682.764550831587,5932.0
18682.764613328825,9192.0
18682.76467582606,12315.0
18682.764738323298,14837.0
18682.764800820536,15875.0
18682.764863317774,16616.0
18682.76492581501,16690.0
18682.764988312247,13997.0
18682.765050809485,12147.0
18682.76511330672,10855.0
18682.765175803957,8339.0
18682.765238301195,7237.0
18682.765300798434,7366.0
18682.765363295668,6886.0
18682.765425792906,5626.0
18682.765488290144,5585.0
18682.765550787382,5374.0
18682.765613284617,3841.0
18682.765675781855,3503.0
18682.765738279093,3567.0
18682.76580077633,2606.0
18682.765863273566,1689.0
18682.765925770804,2275.0
18682.765988268042,2405.0
18682.76605076528,1315.0
18682.766113262514,1201.0
18682.766175759753,-218.0
18682.76623825699,-4271.0
18682.76630075423,-8107.0
18682.766363251463,-11385.0
18682.7664257487,-15472.0
18682.76648824594,-18759.0
18682.766550743178,-20245.0
18682.766613240412,-21989.0
18682.76667573765,-23589.0
18682.766738234888,-23353.0
18682.766800732126,-23155.0
18682.76686322936,-23858.0
18682.7669257266,-23874.0
18682.766988223837,-24204.0
18682.76705072107,-26013.0
18682.76711321831,-28127.0
18682.767175715548,-29583.0
18682.767238212786,-31088.0
18682.76730071002,-32201.0
18682.76736320726,-31431.0
18682.767425704496,-27764.0
18682.767488201735,-18551.0
18682.76755069897,-7219.0
18682.767613196207,1610.0
18682.767675693445,12412.0
18682.767738190683,20030.0
18682.767800687918,20581.0
18682.767863185156,21716.0
18682.767925682394,20423.0
18682.767988179632,17232.0
18682.768050676867,13693.0
18682.768113174105,8476.0
18682.768175671343,5220.0
18682.76823816858,1994.0
18682.768300665815,915.0
18682.768363163053,1386.0
18682.76842566029,513.0
18682.76848815753,475.0
18682.768550654764,-1544.0
18682.768613152002,-4928.0
18682.76867564924,-7517.0
18682.76873814648,-7932.0
18682.768800643713,-6580.0
18682.76886314095,-5427.0
18682.76892563819,-1905.0
18682.768988135424,1949.0
18682.76905063266,5407.0
18682.7691131299,10527.0
18682.769175627138,15110.0
18682.769238124372,18894.0
18682.76930062161,20487.0
18682.76936311885,19693.0
18682.769425616087,17533.0
18682.76948811332,13982.0
18682.76955061056,11259.0
18682.769613107797,8991.0
18682.769675605035,6975.0
18682.76973810227,5155.0
18682.769800599508,2945.0
18682.769863096746,1885.0
18682.769925593984,1204.0
18682.76998809122,618.0
18682.770050588457,594.0
18682.770113085695,74.0
18682.770175582933,-513.0
18682.770238080167,-1185.0
18682.770300577406,-1453.0
18682.770363074644,169.0
18682.770425571878,2821.0
18682.770488069116,5968.0
18682.770550566354,9703.0
18682.770613063592,12416.0
18682.770675560827,14544.0
18682.770738058065,16179.0
18682.770800555303,15996.0
18682.77086305254,15630.0
18682.770925549776,14597.0
18682.770988047014,11996.0
18682.771050544252,9539.0
18682.77111304149,7843.0
18682.771175538724,6718.0
18682.771238035963,6319.0
18682.7713005332,6859.0
18682.77136303044,6765.0
18682.771425527673,5968.0
18682.77148802491,5388.0
18682.77155052215,4709.0
18682.771613019388,4084.0
18682.771675516622,3392.0
18682.77173801386,3253.0
18682.7718005111,2878.0
18682.771863008336,1806.0
18682.77192550557,1730.0
18682.77198800281,1365.0
18682.772050500047,-83.0
18682.772112997285,-1651.0
18682.77217549452,-4183.0
18682.772237991758,-8096.0
18682.772300488996,-11867.0
18682.77236298623,-15099.0
18682.77242548347,-18378.0
18682.772487980707,-20376.0
18682.772550477945,-21276.0
18682.77261297518,-22477.0
18682.772675472417,-23172.0
18682.772737969655,-23027.0
18682.772800466893,-23073.0
18682.772862964128,-23532.0
18682.772925461366,-23796.0
18682.772987958604,-24674.0
18682.773050455842,-26765.0
18682.773112953077,-28482.0
18682.773175450315,-29801.0
18682.773237947553,-31305.0
18682.77330044479,-31474.0
18682.773362942025,-29101.0
18682.773425439264,-21862.0
18682.7734879365,-10968.0
18682.77355043374,-1981.0
18682.773612930974,7994.0
18682.773675428212,17212.0
18682.77373792545,19825.0
18682.77380042269,21390.0
18682.773862919923,21747.0
18682.77392541716,19853.0
18682.7739879144,16623.0
18682.774050411637,11633.0
18682.77411290887,7817.0
18682.77417540611,4079.0
18682.774237903348,1860.0
18682.774300400582,1423.0
18682.77436289782,359.0
18682.77442539506,-423.0
18682.774487892297,-2062.0
18682.77455038953,-4658.0
18682.77461288677,-7549.0
18682.774675384007,-8204.0
18682.774737881246,-6588.0
18682.77480037848,-5602.0
18682.774862875718,-3040.0
18682.774925372956,929.0
18682.774987870194,4740.0
18682.77505036743,9037.0
18682.775112864667,13647.0
18682.775175361905,17954.0
18682.775237859143,20010.0
18682.775300356378,19920.0
18682.775362853616,18419.0
18682.775425350854,15422.0
18682.775487848092,12244.0
18682.775550345326,9735.0
18682.775612842564,7736.0
18682.775675339803,5515.0
18682.775737837037,3258.0
18682.775800334275,1824.0
18682.775862831513,1059.0
18682.77592532875,550.0
18682.775987825986,407.0
18682.776050323224,364.0
18682.776112820462,143.0
18682.7761753177,-163.0
18682.776237814935,-289.0
18682.776300312173,1179.0
18682.77636280941,3945.0
18682.77642530665,6298.0
18682.776487803883,8699.0
18682.77655030112,11025.0
18682.77661279836,12451.0
18682.776675295598,13204.0
18682.776737792832,13357.0
18682.77680029007,13473.0
18682.77686278731,12893.0
18682.776925284546,11194.0
18682.77698778178,9771.0
18682.77705027902,9148.0
18682.777112776257,8618.0
18682.777175273495,8261.0
18682.77723777073,9056.0
18682.777300267968,8864.0
18682.777362765206,7230.0
18682.777425262444,6537.0
18682.77748775968,5854.0
18682.777550256917,4535.0
18682.777612754155,3773.0
18682.77767525139,3824.0
18682.777737748627,2923.0
18682.777800245865,1395.0
18682.777862743103,1383.0
18682.777925240338,1080.0
18682.777987737576,-331.0
18682.778050234814,-1637.0
18682.778112732052,-3604.0
18682.778175229287,-7375.0
18682.778237726525,-11430.0
18682.778300223763,-13889.0
18682.778362721,-16482.0
18682.778425218235,-18867.0
18682.778487715474,-19416.0
18682.77855021271,-20101.0
18682.77861270995,-21449.0
18682.778675207184,-21813.0
18682.778737704422,-21811.0
18682.77880020166,-22819.0
18682.7788626989,-23760.0
18682.778925196133,-24302.0
18682.77898769337,-25979.0
18682.77905019061,-28207.0
18682.779112687847,-29501.0
18682.779175185082,-30745.0
18682.77923768232,-32331.0
18682.779300179558,-32662.0
18682.779362676796,-28647.0
18682.77942517403,-18671.0
18682.77948767127,-9058.0
18682.779550168507,-342.0
18682.77961266574,12560.0
18682.77967516298,19410.0
18682.779737660218,20155.0
18682.779800157456,23259.0
18682.77986265469,23052.0
18682.77992515193,20152.0
18682.779987649166,15477.0
18682.780050146404,10693.0
18682.78011264364,7399.0
18682.780175140877,2610.0
18682.780237638115,1239.0
18682.780300135353,1404.0
18682.780362632588,-94.0
18682.780425129826,-1282.0
18682.780487627064,-3365.0
18682.780550124302,-6093.0
18682.780612621536,-8618.0
18682.780675118775,-7706.0
18682.780737616013,-5843.0
18682.78080011325,-5075.0
18682.780862610485,-1473.0
18682.780925107723,2517.0
18682.78098760496,6233.0
18682.7810501022,10805.0
18682.781112599434,15634.0
18682.781175096672,19782.0
18682.78123759391,20189.0
18682.78130009115,19391.0
18682.781362588383,18142.0
18682.78142508562,14665.0
18682.78148758286,11628.0
18682.781550080093,9639.0
18682.78161257733,7599.0
18682.78167507457,4645.0
18682.781737571808,2212.0
18682.781800069042,1494.0
18682.78186256628,618.0
18682.78192506352,38.0
18682.781987560757,184.0
18682.78205005799,-39.0
18682.78211255523,-668.0
18682.782175052467,-1125.0
18682.782237549705,-471.0
18682.78230004694,1043.0
18682.782362544178,2841.0
18682.782425041416,5030.0
18682.782487538654,7338.0
18682.78255003589,9748.0
18682.782612533127,12433.0
18682.782675030365,15114.0
18682.782737527603,16086.0
18682.782800024837,15898.0
18682.782862522075,15885.0
18682.782925019314,13553.0
18682.782987516548,11193.0
18682.783050013786,10776.0
18682.783112511024,9443.0
18682.783175008262,7934.0
18682.783237505497,7502.0
18682.783300002735,7075.0
18682.783362499973,5805.0
18682.78342499721,5340.0
18682.783487494446,5772.0
18682.783549991684,4804.0
18682.78361248892,3594.0
18682.78367498616,3248.0
18682.783737483394,2379.0
18682.783799980632,924.0
18682.78386247787,1064.0
18682.78392497511,1869.0
18682.783987472343,318.0
18682.78404996958,-1626.0
18682.78411246682,-3240.0
18682.784174964057,-6790.0
18682.784237461292,-10864.0
18682.78429995853,-13733.0
18682.784362455768,-16205.0
18682.784424953006,-18826.0
18682.78448745024,-21138.0
18682.78454994748,-22282.0
18682.784612444717,-22312.0
18682.784674941955,-22657.0
18682.78473743919,-23049.0
18682.784799936428,-22571.0
18682.784862433666,-23498.0
18682.7849249309,-26097.0
18682.78498742814,-27621.0
18682.785049925376,-28475.0
18682.785112422614,-30542.0
18682.78517491985,-32026.0
18682.785237417087,-31841.0
18682.785299914325,-32109.0
18682.785362411563,-28402.0
18682.785424908798,-17282.0
18682.785487406036,-6282.0
18682.785549903274,2733.0
18682.785612400512,14176.0
18682.785674897747,20763.0
18682.785737394985,20914.0
18682.785799892223,21684.0
18682.78586238946,21737.0
18682.785924886695,19289.0
18682.785987383933,14430.0
18682.78604988117,10264.0
18682.78611237841,6770.0
18682.786174875644,2575.0
18682.786237372882,1483.0
18682.78629987012,1799.0
18682.78636236736,943.0
18682.786424864593,-280.0
18682.78648736183,-2770.0
18682.78654985907,-6361.0
18682.786612356307,-8916.0
18682.78667485354,-8356.0
18682.78673735078,-6657.0
18682.786799848018,-4917.0
18682.786862345252,-1496.0
18682.78692484249,2464.0
18682.78698733973,6519.0
18682.787049836967,11298.0
18682.7871123342,16458.0
18682.78717483144,20540.0
18682.787237328677,21478.0
18682.787299825915,20224.0
18682.78736232315,17578.0
18682.787424820388,14053.0
18682.787487317626,10975.0
18682.787549814864,8687.0
18682.7876123121,6732.0
18682.787674809337,4190.0
18682.787737306575,1951.0
18682.787799803813,906.0
18682.787862301047,56.0
18682.787924798286,-167.0
18682.787987295524,331.0
18682.78804979276,-73.0
18682.788112289996,-1029.0
18682.788174787234,-1921.0
18682.788237284472,-1819.0
18682.788299781707,679.0
18682.788362278945,4173.0
18682.788424776183,7517.0
18682.78848727342,10774.0
18682.788549770656,13302.0
18682.788612267894,15097.0
18682.788674765132,16326.0
18682.78873726237,16831.0
18682.788799759604,16656.0
18682.788862256843,14791.0
18682.78892475408,11437.0
18682.78898725132,9166.0
18682.789049748553,7783.0
18682.78911224579,6791.0
18682.78917474303,7460.0
18682.789237240268,8021.0
18682.789299737502,7196.0
18682.78936223474,6117.0
18682.78942473198,5582.0
18682.789487229216,4915.0
18682.78954972645,3941.0
18682.78961222369,3792.0
18682.789674720927,3438.0
18682.789737218165,2015.0
18682.7897997154,1244.0
18682.789862212638,1439.0
18682.789924709876,1095.0
18682.789987207114,5.0
18682.79004970435,-1331.0
18682.790112201586,-4244.0
18682.790174698825,-9012.0
18682.79023719606,-13122.0
18682.790299693297,-15835.0
18682.790362190535,-18335.0
18682.790424687773,-20365.0
18682.790487185008,-21373.0
18682.790549682246,-22215.0
18682.790612179484,-23564.0
18682.790674676722,-23929.0
18682.790737173957,-23129.0
18682.790799671195,-23315.0
18682.790862168433,-24461.0
18682.79092466567,-25824.0
18682.790987162905,-27885.0
18682.791049660143,-30046.0
18682.79111215738,-30999.0
18682.79117465462,-31247.0
18682.791237151854,-31647.0
18682.791299649092,-30223.0
18682.79136214633,-22604.0
18682.79142464357,-11761.0
18682.791487140803,-3443.0
18682.79154963804,7579.0
18682.79161213528,18288.0
18682.791674632517,20163.0
18682.79173712975,20748.0
18682.79179962699,21878.0
18682.791862124228,19912.0
18682.791924621466,15913.0
18682.7919871187,11574.0
18682.79204961594,8665.0
18682.792112113177,4017.0
18682.79217461041,1032.0
18682.79223710765,1665.0
18682.792299604887,1110.0
18682.792362102125,463.0
18682.79242459936,-331.0
18682.792487096598,-2685.0
18682.792549593836,-6320.0
18682.792612091074,-7914.0
18682.79267458831,-6517.0
18682.792737085547,-5916.0
18682.792799582785,-3715.0
18682.792862080023,476.0
18682.792924577258,4012.0
18682.792987074496,8009.0
18682.793049571734,12790.0
18682.793112068972,17906.0
18682.793174566206,20514.0
18682.793237063444,20283.0
18682.793299560682,19238.0
18682.79336205792,16041.0
18682.793424555155,12235.0
18682.793487052393,9608.0
18682.79354954963,7791.0
18682.793612046866,5731.0
18682.793674544104,3231.0
18682.793737041342,2150.0
18682.79379953858,1450.0
18682.793862035815,861.0
18682.793924533053,1140.0
18682.79398703029,1347.0
18682.79404952753,982.0
18682.794112024763,196.0
18682.794174522,367.0
18682.79423701924,1926.0
18682.794299516478,4115.0
18682.794362013712,6771.0
18682.79442451095,9464.0
18682.79448700819,11390.0
18682.794549505426,12157.0
18682.79461200266,12514.0
18682.7946744999,13046.0
18682.794736997137,13254.0
18682.794799494375,12910.0
18682.79486199161,11571.0
18682.794924488848,9937.0
18682.794986986086,9004.0
18682.795049483324,7549.0
18682.79511198056,7196.0
18682.795174477797,8152.0
18682.795236975035,7592.0
18682.795299472273,6670.0
18682.795361969507,6037.0
18682.795424466745,5616.0
18682.795486963983,5155.0
18682.795549461218,4922.0
18682.795611958456,5203.0
18682.795674455694,4248.0
18682.795736952932,2735.0
18682.795799450167,1874.0
18682.795861947405,818.0
18682.795924444643,-852.0
18682.79598694188,-2531.0
18682.796049439115,-4687.0
18682.796111936354,-8353.0
18682.79617443359,-12301.0
18682.79623693083,-15176.0
18682.796299428064,-17221.0
18682.796361925302,-19258.0
18682.79642442254,-20748.0
18682.79648691978,-21147.0
18682.796549417013,-22133.0
18682.79661191425,-23196.0
18682.79667441149,-22925.0
18682.796736908727,-22929.0
18682.79679940596,-23853.0
18682.7968619032,-24733.0
18682.796924400438,-26010.0
18682.796986897676,-28167.0
18682.79704939491,-29237.0
18682.79711189215,-29492.0
18682.797174389387,-30219.0
18682.797236886625,-29976.0
18682.79729938386,-26203.0
18682.797361881097,-17217.0
18682.797424378336,-7805.0
18682.79748687557,525.0
18682.797549372808,11773.0
18682.797611870046,18129.0
18682.797674367284,18338.0
18682.79773686452,19837.0
18682.797799361757,19947.0
18682.797861858995,17863.0
18682.797924356233,14240.0
18682.797986853468,10882.0
18682.798049350706,7550.0
18682.798111847944,2968.0
18682.798174345182,1785.0
18682.798236842416,1806.0
18682.798299339654,710.0
18682.798361836893,223.0
18682.79842433413,-1313.0
18682.798486831365,-4345.0
18682.798549328603,-7061.0
18682.79861182584,-6413.0
18682.79867432308,-4730.0
18682.798736820314,-3373.0
18682.798799317552,261.0
18682.79886181479,3730.0
18682.79892431203,6564.0
18682.798986809263,10382.0
18682.7990493065,14830.0
18682.79911180374,18690.0
18682.799174300973,19708.0
18682.79923679821,19190.0
18682.79929929545,17319.0
18682.799361792688,13471.0
18682.799424289922,10501.0
18682.79948678716,8840.0
18682.7995492844,7002.0
18682.799611781636,4575.0
18682.79967427887,2448.0
18682.79973677611,1098.0
18682.799799273347,58.0
18682.799861770585,-226.0
18682.79992426782,98.0
18682.799986765058,421.0
18682.800049262296,435.0
18682.800111759534,325.0
18682.80017425677,1175.0
18682.800236754007,3600.0
18682.800299251245,6564.0
18682.800361748483,9104.0
18682.800424245717,11547.0
18682.800486742955,13124.0
18682.800549240194,13643.0
18682.80061173743,13857.0
18682.800674234666,13955.0
18682.800736731904,13709.0
18682.800799229142,12458.0
18682.800861726377,10870.0
18682.800924223615,9315.0
18682.800986720853,7717.0
18682.80104921809,6642.0
18682.801111715326,6590.0
18682.801174212564,6816.0
18682.8012367098,6219.0
18682.80129920704,5841.0
18682.801361704274,5654.0
18682.801424201512,5139.0
18682.80148669875,4800.0
18682.80154919599,4848.0
18682.801611693223,4766.0
18682.80167419046,3533.0
18682.8017366877,2452.0
18682.801799184937,1706.0
18682.801861682172,212.0
18682.80192417941,-1442.0
18682.801986676648,-3412.0
18682.802049173886,-6488.0
18682.80211167112,-10674.0
18682.80217416836,-14218.0
18682.802236665597,-16855.0
18682.802299162835,-19382.0
18682.80236166007,-20871.0
18682.802424157308,-21783.0
18682.802486654546,-22644.0
18682.802549151784,-23363.0
18682.80261164902,-24072.0
18682.802674146256,-24531.0
18682.802736643494,-25136.0
18682.80279914073,-25775.0
18682.802861637967,-26721.0
18682.802924135205,-27969.0
18682.802986632443,-29253.0
18682.803049129678,-30177.0
18682.803111626916,-30571.0
18682.803174124154,-31069.0
18682.803236621392,-27865.0
18682.803299118626,-17661.0
18682.803361615865,-7510.0
18682.803424113103,-298.0
18682.80348661034,10615.0
18682.803549107575,18711.0
18682.803611604813,19055.0
18682.80367410205,20168.0
18682.80373659929,21225.0
18682.803799096524,18881.0
18682.803861593762,14229.0
18682.803924091,10186.0
18682.80398658824,7391.0
18682.804049085473,3428.0
18682.80411158271,1816.0
18682.80417407995,2370.0
18682.804236577187,1301.0
18682.80429907442,-93.0
18682.80436157166,-1353.0
18682.804424068898,-4021.0
18682.804486566136,-6938.0
18682.80454906337,-6728.0
18682.80461156061,-5167.0
18682.804674057847,-4323.0
18682.80473655508,-1799.0
18682.80479905232,2210.0
18682.804861549557,6007.0
18682.804924046795,9848.0
18682.80498654403,14575.0
18682.805049041268,18835.0
18682.805111538506,19874.0
18682.805174035744,19153.0
18682.80523653298,17773.0
18682.805299030217,14454.0
18682.805361527455,11096.0
18682.805424024693,9250.0
18682.805486521927,7471.0
18682.805549019165,4821.0
18682.805611516404,2694.0
18682.80567401364,1810.0
18682.805736510876,858.0
18682.805799008114,203.0
18682.805861505352,416.0
18682.80592400259,518.0
18682.805986499825,371.0
18682.806048997063,375.0
18682.8061114943,1277.0
18682.806173991536,3274.0
18682.806236488774,5864.0
18682.806298986012,8392.0
18682.80636148325,10362.0
18682.806423980484,12203.0
18682.806486477723,12943.0
18682.80654897496,12997.0
18682.8066114722,12938.0
18682.806673969433,12180.0
18682.80673646667,11388.0
18682.80679896391,10181.0
18682.806861461147,8821.0
18682.806923958382,8321.0
18682.80698645562,7824.0
18682.807048952858,7562.0
18682.807111450096,8167.0
18682.80717394733,8237.0
18682.80723644457,7474.0
18682.807298941807,6780.0
18682.807361439045,6342.0
18682.80742393628,5638.0
18682.807486433518,4672.0
18682.807548930756,4443.0
18682.807611427994,3843.0
18682.80767392523,2364.0
18682.807736422466,1271.0
18682.807798919705,233.0
18682.807861416943,-1771.0
18682.807923914177,-4553.0
18682.807986411415,-7551.0
18682.808048908653,-11160.0
18682.808111405888,-14655.0
18682.808173903126,-17139.0
18682.808236400364,-19005.0
18682.808298897602,-20505.0
18682.808361394837,-21364.0
18682.808423892075,-21775.0
18682.808486389313,-22445.0
18682.80854888655,-22917.0
18682.808611383785,-23552.0
18682.808673881023,-24882.0
18682.80873637826,-25895.0
18682.8087988755,-27418.0
18682.808861372734,-29076.0
18682.808923869972,-29615.0
18682.80898636721,-30370.0
18682.80904886445,-31697.0
18682.809111361683,-32382.0
18682.80917385892,-28694.0
18682.80923635616,-18964.0
18682.809298853397,-8676.0
18682.80936135063,478.0
18682.80942384787,12157.0
18682.809486345108,19647.0
18682.809548842346,20273.0
18682.80961133958,21870.0
18682.80967383682,22495.0
18682.809736334057,19960.0
18682.809798831295,15340.0
18682.80986132853,10663.0
18682.809923825767,6432.0
18682.809986323005,1567.0
18682.81004882024,61.0
18682.810111317478,295.0
18682.810173814716,-528.0
18682.810236311954,-1119.0
18682.81029880919,-2493.0
18682.810361306427,-5159.0
18682.810423803665,-7848.0
18682.810486300903,-6972.0
18682.810548798137,-4798.0
18682.810611295376,-3720.0
18682.810673792614,-785.0
18682.81073628985,2955.0
18682.810798787086,6592.0
18682.810861284324,10611.0
18682.810923781562,15383.0
18682.8109862788,19988.0
18682.811048776035,20907.0
18682.811111273273,19997.0
18682.81117377051,18319.0
18682.81123626775,14814.0
18682.811298764984,11520.0
18682.811361262222,9264.0
18682.81142375946,7320.0
18682.811486256694,4400.0
18682.811548753933,1979.0
18682.81161125117,1068.0
18682.81167374841,84.0
18682.811736245643,-223.0
18682.81179874288,28.0
18682.81186124012,-180.0
18682.811923737358,-875.0
18682.811986234592,-1585.0
18682.81204873183,-1345.0
18682.81211122907,-12.0
18682.812173726306,2586.0
18682.81223622354,5578.0
18682.81229872078,8572.0
18682.812361218017,12774.0
18682.812423715255,15966.0
18682.81248621249,16958.0
18682.812548709728,18480.0
18682.812611206966,18994.0
18682.812673704204,15835.0
18682.81273620144,13353.0
18682.812798698676,12112.0
18682.812861195915,8894.0
18682.812923693153,6674.0
18682.812986190387,6672.0
18682.813048687625,6360.0
18682.813111184863,5367.0
18682.8131736821,5309.0
18682.813236179336,5695.0
18682.813298676574,4884.0
18682.813361173812,4332.0
18682.813423671047,4242.0
18682.813486168285,3384.0
18682.813548665523,2215.0
18682.81361116276,1951.0
18682.813673659995,1848.0
18682.813736157234,858.0
18682.81379865447,-129.0
18682.81386115171,-1831.0
18682.813923648944,-5276.0
18682.813986146182,-9064.0
18682.81404864342,-12381.0
18682.81411114066,-15554.0
18682.814173637893,-18212.0
18682.81423613513,-19957.0
18682.81429863237,-21276.0
18682.814361129607,-22462.0
18682.81442362684,-23478.0
18682.81448612408,-24046.0
18682.814548621318,-24804.0
18682.814611118556,-26315.0
18682.81467361579,-27607.0
18682.81473611303,-29029.0
18682.814798610267,-30941.0
18682.814861107505,-32460.0
18682.81492360474,-32760.0
18682.814986101977,-32768.0
18682.815048599216,-32084.0
18682.815111096454,-25915.0
18682.815173593688,-14883.0
18682.815236090926,-5026.0
18682.815298588164,4288.0
18682.8153610854,15256.0
18682.815423582637,20428.0
18682.815486079875,20519.0
18682.815548577113,22197.0
18682.815611074348,21641.0
18682.815673571586,17886.0
18682.815736068824,13280.0
18682.815798566062,9501.0
18682.815861063296,5630.0
18682.815923560534,1761.0
18682.815986057773,1360.0
18682.81604855501,1435.0
18682.816111052245,4.0
18682.816173549483,-1284.0
18682.81623604672,-3341.0
18682.81629854396,-6339.0
18682.816361041194,-8298.0
18682.816423538432,-7062.0
18682.81648603567,-5428.0
18682.81654853291,-4215.0
18682.816611030143,-706.0
18682.81667352738,3292.0
18682.81673602462,7187.0
18682.816798521853,11929.0
18682.81686101909,16939.0
18682.81692351633,20731.0
18682.816986013568,21017.0
18682.817048510802,19683.0
18682.81711100804,17905.0
18682.81717350528,14455.0
18682.817236002516,11212.0
18682.81729849975,9184.0
18682.81736099699,6846.0
18682.817423494227,3770.0
18682.817485991465,1395.0
18682.8175484887,530.0
18682.817610985938,-107.0
18682.817673483176,-444.0
18682.817735980414,176.0
18682.81779847765,436.0
18682.817860974887,-63.0
18682.817923472125,-304.0
18682.817985969363,1094.0
18682.818048466597,3806.0
18682.818110963835,6408.0
18682.818173461073,8737.0
18682.81823595831,10953.0
18682.818298455546,13231.0
18682.818360952784,13957.0
18682.818423450022,14453.0
18682.81848594726,15687.0
18682.818548444495,14668.0
18682.818610941733,12312.0
18682.81867343897,10420.0
18682.818735936205,8693.0
18682.818798433444,6982.0
18682.81886093068,6311.0
18682.81892342792,6913.0
18682.818985925154,6792.0
18682.819048422392,6049.0
18682.81911091963,6061.0
18682.81917341687,6191.0
18682.819235914103,5465.0
18682.81929841134,5136.0
18682.81936090858,5148.0
18682.819423405817,3863.0
18682.819485903052,2344.0
18682.81954840029,1513.0
18682.819610897528,685.0
18682.819673394766,-653.0
18682.819735892,-2180.0
18682.81979838924,-4427.0
18682.819860886477,-8099.0
18682.819923383715,-11693.0
18682.81998588095,-14615.0
18682.820048378187,-17396.0
18682.820110875426,-19118.0
18682.820173372664,-19979.0
18682.820235869898,-21196.0
18682.820298367136,-22547.0
18682.820360864374,-23294.0
18682.820423361612,-23827.0
18682.820485858847,-24858.0
18682.820548356085,-25935.0
18682.820610853323,-26888.0
18682.820673350558,-28625.0
18682.820735847796,-30091.0
18682.820798345034,-30750.0
18682.820860842272,-31501.0
18682.820923339506,-31769.0
18682.820985836745,-30363.0
18682.821048333983,-23596.0
18682.82111083122,-12745.0
18682.821173328455,-4461.0
18682.821235825693,5622.0
18682.82129832293,17178.0
18682.82136082017,20060.0
18682.821423317404,21263.0
18682.821485814642,23815.0
18682.82154831188,21868.0
18682.82161080912,17828.0
18682.821673306353,13456.0
18682.82173580359,9716.0
18682.82179830083,4939.0
18682.821860798067,1180.0
18682.8219232953,1400.0
18682.82198579254,63.0
18682.822048289778,-1845.0
18682.822110787016,-2219.0
18682.82217328425,-4264.0
18682.82223578149,-7719.0
18682.822298278727,-8484.0
18682.82236077596,-6513.0
18682.8224232732,-5650.0
18682.822485770437,-3596.0
18682.822548267675,838.0
18682.82261076491,4517.0
18682.822673262148,8112.0
18682.822735759386,12859.0
18682.822798256624,18112.0
18682.82286075386,20949.0
18682.822923251097,20917.0
18682.822985748335,20230.0
18682.823048245573,17637.0
18682.823110742807,13942.0
18682.823173240045,11316.0
18682.823235737284,9221.0
18682.82329823452,6503.0
18682.823360731756,3388.0
18682.823423228994,1585.0
18682.823485726232,452.0
18682.82354822347,-664.0
18682.823610720705,-678.0
18682.823673217943,-42.0
18682.82373571518,152.0
18682.82379821242,150.0
18682.823860709654,921.0
18682.82392320689,3212.0
18682.82398570413,5802.0
18682.824048201364,7680.0
18682.824110698602,10179.0
18682.82417319584,12459.0
18682.82423569308,12776.0
18682.824298190313,13155.0
18682.82436068755,14436.0
18682.82442318479,14191.0
18682.824485682027,12972.0
18682.824548179262,12110.0
18682.8246106765,10419.0
18682.824673173738,8663.0
18682.824735670976,7878.0
18682.82479816821,7717.0
18682.82486066545,7403.0
18682.824923162687,6793.0
18682.824985659925,6325.0
18682.82504815716,5481.0
18682.825110654398,4732.0
18682.825173151636,4779.0
18682.825235648874,4554.0
18682.82529814611,3827.0
18682.825360643346,3019.0
18682.825423140584,1893.0
18682.825485637823,651.0
18682.825548135057,-583.0
18682.825610632295,-2256.0
18682.825673129533,-4844.0
18682.82573562677,-8426.0
18682.825798124006,-11999.0
18682.825860621244,-15191.0
18682.825923118482,-17807.0
18682.825985615716,-19476.0
18682.826048112955,-20309.0
18682.826110610193,-20892.0
18682.82617310743,-21826.0
18682.826235604665,-22270.0
18682.826298101903,-22757.0
18682.82636059914,-23881.0
18682.82642309638,-24695.0
18682.826485593614,-26082.0
18682.826548090852,-27794.0
18682.82661058809,-29165.0
18682.82667308533,-30533.0
18682.826735582563,-31299.0
18682.8267980798,-31932.0
18682.82686057704,-31041.0
18682.826923074277,-23981.0
18682.82698557151,-12848.0
18682.82704806875,-4427.0
18682.827110565988,5552.0
18682.827173063226,17063.0
18682.82723556046,19680.0
18682.8272980577,20417.0
18682.827360554937,22662.0
18682.827423052175,20735.0
18682.82748554941,16737.0
18682.827548046647,11735.0
18682.827610543885,8052.0
18682.827673041123,4250.0
18682.827735538358,705.0
18682.827798035596,1139.0
18682.827860532834,1203.0
18682.82792303007,-108.0
18682.827985527307,-1178.0
18682.828048024545,-3215.0
18682.828110521783,-6549.0
18682.828173019017,-8460.0
18682.828235516256,-7248.0
18682.828298013494,-5953.0
18682.82836051073,-3951.0
18682.828423007966,-260.0
18682.828485505204,3633.0
18682.828548002442,8297.0
18682.82861049968,13123.0
18682.828672996915,18013.0
18682.828735494153,21390.0
18682.82879799139,21440.0
18682.82886048863,20128.0
18682.828922985864,17593.0
18682.828985483102,13977.0
18682.82904798034,11118.0
18682.829110477578,8977.0
18682.829172974813,6208.0
18682.82923547205,3146.0
18682.82929796929,1015.0
18682.829360466523,-123.0
18682.82942296376,-598.0
18682.829485461,-801.0
18682.829547958238,-530.0
18682.829610455472,36.0
18682.82967295271,287.0
18682.82973544995,698.0
18682.829797947186,2040.0
18682.82986044442,4186.0
18682.82992294166,6201.0
18682.829985438897,8237.0
18682.830047936135,11363.0
18682.83011043337,13929.0
18682.830172930608,14527.0
18682.830235427846,15018.0
18682.830297925084,15538.0
18682.83036042232,13773.0
18682.830422919556,11442.0
18682.830485416795,10934.0
18682.830547914033,9729.0
18682.830610411267,7214.0
18682.830672908505,6948.0
18682.830735405743,8099.0
18682.83079790298,6828.0
18682.830860400216,6311.0
18682.830922897454,7492.0
18682.830985394692,6646.0
18682.83104789193,4953.0
18682.831110389165,4567.0
18682.831172886403,4133.0
18682.83123538364,2152.0
18682.831297880875,1269.0
18682.831360378113,1595.0
18682.83142287535,-97.0
18682.83148537259,-2407.0
18682.831547869824,-4015.0
18682.831610367062,-7127.0
18682.8316728643,-11706.0
18682.83173536154,-14645.0
18682.831797858773,-16817.0
18682.83186035601,-19911.0
18682.83192285325,-21888.0
18682.831985350487,-22448.0
18682.83204784772,-22612.0
18682.83211034496,-23358.0
18682.832172842198,-23579.0
18682.832235339436,-22847.0
18682.83229783667,-24644.0
18682.83236033391,-26660.0
18682.832422831147,-26922.0
18682.832485328385,-28771.0
18682.83254782562,-30889.0
18682.832610322857,-31223.0
18682.832672820095,-31598.0
18682.832735317334,-31570.0
18682.832797814568,-24561.0
18682.832860311806,-11691.0
18682.832922809044,-2997.0
18682.832985306282,5957.0
18682.833047803517,17684.0
18682.833110300755,20606.0
18682.833172797993,19996.0
18682.833235295227,21612.0
18682.833297792466,20957.0
18682.833360289704,16794.0
18682.83342278694,10561.0
18682.833485284176,7311.0
18682.833547781414,3640.0
18682.833610278652,-157.0
18682.83367277589,1086.0
18682.833735273125,1756.0
18682.833797770363,811.0
18682.8338602676,-578.0
18682.83392276484,-2894.0
18682.833985262074,-5537.0
18682.834047759312,-7352.0
18682.83411025655,-5930.0
18682.834172753788,-4793.0
18682.834235251023,-3858.0
18682.83429774826,-822.0
18682.8343602455,2676.0
18682.834422742737,7156.0
18682.83448523997,11947.0
18682.83454773721,17179.0
18682.834610234448,20796.0
18682.834672731682,20493.0
18682.83473522892,19316.0
18682.83479772616,17095.0
18682.834860223396,13936.0
18682.83492272063,11186.0
18682.83498521787,8841.0
18682.835047715107,6337.0
18682.835110212345,3033.0
18682.83517270958,737.0
18682.835235206818,18.0
18682.835297704056,-161.0
18682.835360201294,-115.0
18682.83542269853,36.0
18682.835485195767,140.0
18682.835547693005,-380.0
18682.835610190243,-397.0
18682.835672687477,1724.0
18682.835735184715,4253.0
18682.835797681953,6493.0
18682.83586017919,9063.0
18682.835922676426,11229.0
18682.835985173664,13010.0
18682.836047670902,14460.0
18682.83611016814,15986.0
18682.836172665375,16366.0
18682.836235162613,14769.0
18682.83629765985,12984.0
18682.83636015709,10628.0
18682.836422654324,8361.0
18682.83648515156,7178.0
18682.8365476488,6659.0
18682.836610146034,6723.0
18682.836672643272,6426.0
18682.83673514051,6250.0
18682.83679763775,6269.0
18682.836860134983,5939.0
18682.83692263222,5806.0
18682.83698512946,5138.0
18682.837047626697,3859.0
18682.83711012393,2562.0
18682.83717262117,1155.0
18682.837235118408,-287.0
18682.837297615646,-1351.0
18682.83736011288,-2326.0
18682.83742261012,-4113.0
18682.837485107357,-7094.0
18682.837547604595,-10456.0
18682.83761010183,-13357.0
18682.837672599067,-15844.0
18682.837735096306,-17805.0
18682.837797593544,-19026.0
18682.837860090778,-20163.0
18682.837922588016,-21282.0
18682.837985085254,-22429.0
18682.838047582492,-23112.0
18682.838110079727,-23352.0
18682.838172576965,-24446.0
18682.838235074203,-25498.0
18682.83829757144,-27007.0
18682.838360068676,-28949.0
18682.838422565914,-30360.0
18682.838485063152,-31289.0
18682.838547560386,-31283.0
18682.838610057624,-31657.0
18682.838672554863,-27196.0
18682.8387350521,-15559.0
18682.838797549335,-6473.0
18682.838860046573,2074.0
18682.83892254381,14442.0
18682.83898504105,19989.0
18682.839047538284,20756.0
18682.839110035522,22539.0
18682.83917253276,22147.0
18682.83923503,19073.0
18682.839297527233,13717.0
18682.83936002447,9690.0
18682.83942252171,5115.0
18682.839485018947,626.0
18682.83954751618,47.0
18682.83961001342,-312.0
18682.839672510658,-748.0
18682.839735007896,-1321.0
18682.83979750513,-2559.0
18682.83986000237,-5033.0
18682.839922499606,-7347.0
18682.83998499684,-6295.0
18682.84004749408,-5169.0
18682.840109991317,-3689.0
18682.840172488555,-507.0
18682.84023498579,2702.0
18682.840297483028,6760.0
18682.840359980266,11073.0
18682.840422477504,15854.0
18682.84048497474,19989.0
18682.840547471977,21318.0
18682.840609969215,20733.0
18682.840672466453,18263.0
18682.840734963687,15195.0
18682.840797460925,12341.0
18682.840859958163,9546.0
18682.8409224554,6823.0
18682.840984952636,3725.0
18682.841047449874,1106.0
18682.841109947112,-662.0
18682.84117244435,-1398.0
18682.841234941585,-1279.0
18682.841297438823,-1200.0
18682.84135993606,-826.0
18682.8414224333,-293.0
18682.841484930534,-247.0
18682.84154742777,1266.0
18682.84160992501,4667.0
18682.841672422248,7506.0
18682.841734919482,9555.0
18682.84179741672,11699.0
18682.84185991396,13611.0
18682.841922411193,13607.0
18682.84198490843,13558.0
18682.84204740567,14873.0
18682.842109902907,14106.0
18682.842172400142,12257.0
18682.84223489738,10892.0
18682.842297394618,9000.0
18682.842359891856,7495.0
18682.84242238909,6942.0
18682.84248488633,7382.0
18682.842547383567,7642.0
18682.842609880805,6666.0
18682.84267237804,6041.0
18682.842734875278,5805.0
18682.842797372516,5165.0
18682.842859869754,4763.0
18682.84292236699,4796.0
18682.842984864226,3856.0
18682.843047361464,2044.0
18682.843109858703,849.0
18682.843172355937,-281.0
18682.843234853175,-1986.0
18682.843297350413,-3623.0
18682.84335984765,-6039.0
18682.843422344886,-9524.0
18682.843484842124,-12817.0
18682.843547339362,-15494.0
18682.8436098366,-17893.0
18682.843672333835,-19412.0
18682.843734831073,-19803.0
18682.84379732831,-20486.0
18682.843859825545,-21444.0
18682.843922322783,-22258.0
18682.84398482002,-23259.0
18682.84404731726,-24119.0
18682.844109814494,-25338.0
18682.844172311732,-26487.0
18682.84423480897,-27670.0
18682.84429730621,-29176.0
18682.844359803443,-30207.0
18682.84442230068,-30889.0
18682.84448479792,-31711.0
18682.844547295157,-30338.0
18682.84460979239,-21966.0
18682.84467228963,-11080.0
18682.844734786868,-3814.0
18682.844797284106,7318.0
18682.84485978134,17388.0
18682.84492227858,18977.0
18682.844984775817,21186.0
18682.845047273055,23263.0
18682.84510977029,22360.0
18682.845172267527,18117.0
18682.845234764765,13035.0
18682.845297262003,9452.0
18682.845359759238,3868.0
18682.845422256476,949.0
18682.845484753714,936.0
18682.84554725095,-422.0
18682.845609748187,-1620.0
18682.845672245425,-3160.0
18682.845734742663,-5319.0
18682.845797239897,-7795.0
18682.845859737135,-7712.0
18682.845922234374,-5509.0
18682.84598473161,-4375.0
18682.846047228846,-2463.0
18682.846109726084,890.0
18682.846172223322,4413.0
18682.84623472056,8239.0
18682.846297217795,12814.0
18682.846359715033,17787.0
18682.84642221227,20268.0
18682.84648470951,20407.0
18682.846547206744,19650.0
18682.84660970398,17457.0
18682.84667220122,14767.0
18682.846734698458,12487.0
18682.846797195692,10192.0
18682.84685969293,6931.0
18682.84692219017,3197.0
18682.846984687407,611.0
18682.84704718464,-976.0
18682.84710968188,-1849.0
18682.847172179117,-2103.0
18682.847234676352,-1916.0
18682.84729717359,-1179.0
18682.847359670828,-656.0
18682.847422168066,488.0
18682.8474846653,3345.0
18682.84754716254,6427.0
18682.847609659777,8425.0
18682.847672157015,10078.0
18682.84773465425,11682.0
18682.847797151488,12603.0
18682.847859648726,13179.0
18682.847922145964,13591.0
18682.8479846432,13681.0
18682.848047140436,12974.0
18682.848109637674,11478.0
18682.848172134913,10225.0
18682.848234632147,9215.0
18682.848297129385,8068.0
18682.848359626623,7580.0
18682.84842212386,7730.0
18682.848484621096,7036.0
18682.848547118334,6193.0
18682.848609615572,5965.0
18682.84867211281,5572.0
18682.848734610045,4958.0
18682.848797107283,4417.0
18682.84885960452,3991.0
18682.84892210176,2866.0
18682.848984598993,1454.0
18682.84904709623,313.0
18682.84910959347,-1157.0
18682.849172090704,-2901.0
18682.849234587942,-5273.0
18682.84929708518,-8624.0
18682.84935958242,-12023.0
18682.849422079653,-14684.0
18682.84948457689,-17276.0
18682.84954707413,-19027.0
18682.849609571367,-19489.0
18682.8496720686,-20443.0
18682.84973456584,-21471.0
18682.849797063078,-21455.0
18682.849859560316,-22010.0
18682.84992205755,-23100.0
18682.84998455479,-23423.0
18682.850047052027,-24248.0
18682.850109549265,-25818.0
18682.8501720465,-27235.0
18682.850234543737,-28091.0
18682.850297040975,-28910.0
18682.850359538214,-29983.0
18682.850422035448,-30443.0
18682.850484532686,-27118.0
18682.850547029924,-17055.0
18682.850609527162,-7855.0
18682.850672024397,-881.0
18682.850734521635,11202.0
18682.850797018873,17489.0
18682.85085951611,17809.0
18682.850922013346,20739.0
18682.850984510584,21088.0
18682.85104700782,19172.0
18682.851109505056,14686.0
18682.851172002294,10805.0
18682.851234499532,7715.0
18682.85129699677,2787.0
18682.851359494005,2213.0
18682.851421991243,2259.0
18682.85148448848,736.0
18682.85154698572,-181.0
18682.851609482954,-2018.0
18682.851671980192,-4503.0
18682.85173447743,-7186.0
18682.851796974668,-6167.0
18682.851859471903,-4859.0
18682.85192196914,-4492.0
18682.85198446638,-1367.0
18682.852046963617,1641.0
18682.85210946085,5403.0
18682.85217195809,9626.0
18682.852234455328,14053.0
18682.852296952566,18476.0
18682.8523594498,19076.0
18682.85242194704,18857.0
18682.852484444276,17984.0
18682.85254694151,15158.0
18682.85260943875,12860.0
18682.852671935987,11022.0
18682.852734433225,8854.0
18682.85279693046,5563.0
18682.852859427698,2794.0
18682.852921924936,1352.0
18682.852984422174,1.0
18682.85304691941,-666.0
18682.853109416646,-757.0
18682.853171913885,-946.0
18682.853234411123,-1520.0
18682.853296908357,-1618.0
18682.853359405595,-521.0
18682.853421902833,1015.0
18682.85348440007,3550.0
18682.853546897306,7167.0
18682.853609394544,9431.0
18682.853671891782,10978.0
18682.85373438902,14336.0
18682.853796886255,16755.0
18682.853859383493,16414.0
18682.85392188073,17227.0
18682.85398437797,17595.0
18682.854046875203,13765.0
18682.85410937244,11646.0
18682.85417186968,11733.0
18682.854234366918,9275.0
18682.854296864152,7740.0
18682.85435936139,8308.0
18682.85442185863,7806.0
18682.854484355863,5213.0
18682.8545468531,4400.0
18682.85460935034,5037.0
18682.854671847577,2808.0
18682.85473434481,1241.0
18682.85479684205,1806.0
18682.854859339288,610.0
18682.854921836526,-1563.0
18682.85498433376,-1157.0
18682.855046831,-697.0
18682.855109328237,-3097.0
18682.855171825475,-5301.0
18682.85523432271,-7470.0
18682.855296819947,-11040.0
18682.855359317186,-14513.0
18682.855421814424,-16606.0
18682.855484311658,-17679.0
18682.855546808896,-19610.0
18682.855609306134,-21377.0
18682.855671803372,-21486.0
18682.855734300607,-22024.0
18682.855796797845,-23724.0
18682.855859295083,-24253.0
18682.85592179232,-24618.0
18682.855984289556,-26706.0
18682.856046786794,-28720.0
18682.856109284032,-29775.0
18682.85617178127,-30590.0
18682.856234278504,-31952.0
18682.856296775743,-32768.0
18682.85635927298,-31324.0
18682.856421770215,-24196.0
18682.856484267453,-13314.0
18682.85654676469,-4240.0
18682.85660926193,7107.0
18682.856671759164,17745.0
18682.856734256402,20302.0
18682.85679675364,22116.0
18682.85685925088,23448.0
18682.856921748113,22150.0
18682.85698424535,17881.0
18682.85704674259,12212.0
18682.857109239827,8641.0
18682.85717173706,3320.0
18682.8572342343,185.0
18682.857296731538,565.0
18682.857359228776,-131.0
18682.85742172601,-692.0
18682.85748422325,-1888.0
18682.857546720486,-3710.0
18682.857609217725,-6550.0
18682.85767171496,-7452.0
18682.857734212197,-5517.0
18682.857796709435,-4878.0
18682.85785920667,-3066.0
18682.857921703908,162.0
18682.857984201146,3759.0
18682.858046698384,8252.0
18682.85810919562,12748.0
18682.858171692857,17845.0
18682.858234190095,20708.0
18682.858296687333,20869.0
18682.858359184567,20179.0
18682.858421681805,17729.0
18682.858484179043,14789.0
18682.85854667628,12178.0
18682.858609173516,9613.0
18682.858671670754,6584.0
18682.858734167992,3110.0
18682.85879666523,903.0
18682.858859162465,-345.0
18682.858921659703,-1286.0
18682.85898415694,-1452.0
18682.85904665418,-1185.0
18682.859109151414,-930.0
18682.85917164865,-682.0
18682.85923414589,463.0
18682.859296643128,3036.0
18682.859359140362,5320.0
18682.8594216376,7541.0
18682.85948413484,9861.0
18682.859546632077,10998.0
18682.85960912931,12484.0
18682.85967162655,13739.0
18682.859734123787,13992.0
18682.85979662102,14167.0
18682.85985911826,13581.0
18682.859921615498,11989.0
18682.859984112736,10181.0
18682.86004660997,9226.0
18682.86010910721,8381.0
18682.860171604447,7721.0
18682.860234101685,7932.0
18682.86029659892,7883.0
18682.860359096157,7223.0
18682.860421593396,6544.0
18682.860484090634,6510.0
18682.860546587868,5923.0
18682.860609085106,4501.0
18682.860671582344,3800.0
18682.860734079582,2726.0
18682.860796576817,966.0
18682.860859074055,-213.0
18682.860921571293,-1118.0
18682.86098406853,-2522.0
18682.861046565766,-4765.0
18682.861109063004,-7440.0
18682.861171560242,-10438.0
18682.86123405748,-13551.0
18682.861296554714,-15920.0
18682.861359051953,-16966.0
18682.86142154919,-17851.0
18682.86148404643,-19345.0
18682.861546543663,-19948.0
18682.8616090409,-20229.0
18682.86167153814,-21367.0
18682.861734035374,-22167.0
18682.861796532612,-22967.0
18682.86185902985,-24855.0
18682.86192152709,-26570.0
18682.861984024323,-28190.0
18682.86204652156,-29619.0
18682.8621090188,-29868.0
18682.862171516037,-30173.0
18682.86223401327,-30760.0
18682.86229651051,-29408.0
18682.862359007748,-22318.0
18682.862421504986,-12097.0
18682.86248400222,-4713.0
18682.86254649946,5405.0
18682.862608996697,15728.0
18682.862671493935,17534.0
18682.86273399117,19473.0
18682.862796488407,22198.0
18682.862858985645,20679.0
18682.862921482883,17391.0
18682.862983980118,13492.0
18682.863046477356,10007.0
18682.863108974594,4841.0
18682.86317147183,1387.0
18682.863233969067,1746.0
18682.863296466305,448.0
18682.863358963543,-1137.0
18682.863421460777,-1801.0
18682.863483958015,-3608.0
18682.863546455254,-6530.0
18682.86360895249,-7169.0
18682.863671449726,-4960.0
18682.863733946964,-3970.0
18682.863796444202,-2208.0
18682.86385894144,1356.0
18682.863921438675,4653.0
18682.863983935913,8243.0
18682.86404643315,12201.0
18682.86410893039,16892.0
18682.864171427624,19641.0
18682.86423392486,19611.0
18682.8642964221,19095.0
18682.864358919338,17078.0
18682.864421416572,14412.0
18682.86448391381,11832.0
18682.86454641105,9210.0
18682.864608908287,6610.0
18682.86467140552,3306.0
18682.86473390276,869.0
18682.864796399997,-378.0
18682.864858897236,-1234.0
18682.86492139447,-1566.0
18682.864983891708,-1466.0
18682.865046388946,-950.0
18682.86510888618,-441.0
18682.86517138342,512.0
18682.865233880657,2373.0
18682.865296377895,4714.0
18682.86535887513,7363.0
18682.865421372368,9902.0
18682.865483869606,12107.0
18682.865546366844,14013.0
18682.86560886408,15222.0
18682.865671361316,15694.0
18682.865733858554,15694.0
18682.865796355793,15089.0
18682.865858853027,13626.0
18682.865921350265,11654.0
18682.865983847503,10473.0
18682.86604634474,8995.0
18682.866108841976,7675.0
18682.866171339214,7944.0
18682.866233836452,7249.0
18682.86629633369,5916.0
18682.866358830925,5319.0
18682.866421328163,4884.0
18682.8664838254,3895.0
18682.86654632264,2695.0
18682.866608819873,2824.0
18682.86667131711,2431.0
18682.86673381435,1242.0
18682.866796311588,650.0
18682.866858808822,-42.0
18682.86692130606,-1677.0
18682.8669838033,-4562.0
18682.867046300533,-7720.0
18682.86710879777,-11295.0
18682.86717129501,-14972.0
18682.867233792247,-17315.0
18682.86729628948,-19054.0
18682.86735878672,-20083.0
18682.867421283958,-20848.0
18682.867483781196,-21640.0
18682.86754627843,-21701.0
18682.86760877567,-22432.0
18682.867671272907,-23178.0
18682.867733770145,-23794.0
18682.86779626738,-25533.0
18682.867858764617,-27387.0
18682.867921261855,-28901.0
18682.867983759093,-30089.0
18682.868046256328,-30931.0
18682.868108753566,-31261.0
18682.868171250804,-30970.0
18682.868233748042,-26587.0
18682.868296245277,-16432.0
18682.868358742515,-7059.0
18682.868421239753,1601.0
18682.86848373699,12593.0
18682.868546234226,17674.0
18682.868608731464,18398.0
18682.8686712287,20184.0
18682.868733725936,19662.0
18682.868796223174,17281.0
18682.868858720412,12857.0
18682.86892121765,9168.0
18682.868983714885,6356.0
18682.869046212123,2453.0
18682.86910870936,2155.0
18682.8691712066,2847.0
18682.869233703834,1202.0
18682.869296201072,-407.0
18682.86935869831,-2171.0
18682.869421195548,-5220.0
18682.869483692783,-7683.0
18682.86954619002,-6736.0
18682.86960868726,-5124.0
18682.869671184497,-3714.0
18682.86973368173,-764.0
18682.86979617897,2924.0
18682.869858676208,7161.0
18682.869921173446,11291.0
18682.86998367068,15925.0
18682.87004616792,19715.0
18682.870108665156,19954.0
18682.870171162394,18973.0
18682.87023365963,17091.0
18682.870296156867,14459.0
18682.870358654105,12273.0
18682.87042115134,9995.0
18682.870483648578,7849.0
18682.870546145816,5397.0
18682.870608643054,2773.0
18682.87067114029,1101.0
18682.870733637526,680.0
18682.870796134765,440.0
18682.870858632003,-439.0
18682.870921129237,-1044.0
18682.870983626475,-1376.0
18682.871046123713,-1560.0
18682.87110862095,250.0
18682.871171118186,4013.0
18682.871233615424,8036.0
18682.871296112662,10819.0
18682.8713586099,12190.0
18682.871421107135,14664.0
18682.871483604373,15427.0
18682.87154610161,14766.0
18682.87160859885,15918.0
18682.871671096083,14842.0
18682.87173359332,11701.0
18682.87179609056,9286.0
18682.871858587798,7994.0
18682.871921085032,7002.0
18682.87198358227,6791.0
18682.87204607951,8730.0
18682.872108576747,8931.0
18682.87217107398,7163.0
18682.87223357122,6742.0
18682.872296068457,6210.0
18682.87235856569,4797.0
18682.87242106293,4236.0
18682.872483560168,4061.0
18682.872546057406,2418.0
18682.87260855464,521.0
18682.87267105188,-68.0
18682.872733549117,-491.0
18682.872796046355,-1459.0
18682.87285854359,-2724.0
18682.872921040827,-5277.0
18682.872983538065,-9598.0
18682.873046035304,-13533.0
18682.873108532538,-16066.0
18682.873171029776,-18545.0
18682.873233527014,-19715.0
18682.873296024252,-19836.0
18682.873358521487,-21171.0
18682.873421018725,-21605.0
18682.873483515963,-21352.0
18682.8735460132,-22051.0
18682.873608510436,-22366.0
18682.873671007674,-23266.0
18682.87373350491,-25453.0
18682.87379600215,-27711.0
18682.873858499384,-29761.0
18682.873920996622,-31485.0
18682.87398349386,-32301.0
18682.8740459911,-32395.0
18682.874108488333,-30810.0
18682.87417098557,-23446.0
18682.87423348281,-12184.0
18682.874295980044,-3350.0
18682.874358477282,7426.0
18682.87442097452,17588.0
18682.874483471758,19282.0
18682.874545968993,20262.0
18682.87460846623,20467.0
18682.87467096347,17662.0
18682.874733460707,14623.0
18682.87479595794,9957.0
18682.87485845518,7109.0
18682.874920952418,3859.0
18682.874983449656,1557.0
18682.87504594689,2636.0
18682.87510844413,2241.0
18682.875170941366,1546.0
18682.875233438604,3.0
18682.87529593584,-2845.0
18682.875358433077,-6176.0
18682.875420930315,-8098.0
18682.875483427553,-6958.0
18682.875545924788,-5826.0
18682.875608422026,-3255.0
18682.875670919264,671.0
18682.8757334165,4870.0
18682.875795913737,9658.0
18682.875858410975,13723.0
18682.875920908213,18589.0
18682.875983405447,21473.0
18682.876045902685,20861.0
18682.876108399923,19429.0
18682.87617089716,16635.0
18682.876233394396,13270.0
18682.876295891634,10408.0
18682.876358388872,8486.0
18682.87642088611,6349.0
18682.876483383345,3627.0
18682.876545880583,2162.0
18682.87660837782,1090.0
18682.87667087506,249.0
18682.876733372294,-106.0
18682.87679586953,-478.0
18682.87685836677,-829.0
18682.876920864008,-1406.0
18682.876983361242,-920.0
18682.87704585848,840.0
18682.87710835572,2964.0
18682.877170852957,6314.0
18682.87723335019,9923.0
18682.87729584743,12283.0
18682.877358344667,14423.0
18682.877420841905,15990.0
18682.87748333914,16030.0
18682.877545836378,15213.0
18682.877608333616,14590.0
18682.87767083085,12585.0
18682.87773332809,9931.0
18682.877795825327,8693.0
18682.877858322565,7706.0
18682.8779208198,7435.0
18682.877983317037,8101.0
18682.878045814276,8533.0
18682.878108311514,8197.0
18682.878170808748,7184.0
18682.878233305986,6442.0
18682.878295803224,5557.0
18682.878358300462,4147.0
18682.878420797697,3072.0
18682.878483294935,2261.0
18682.878545792173,957.0
18682.87860828941,84.0
18682.878670786646,-438.0
18682.878733283884,-1616.0
18682.878795781122,-3520.0
18682.87885827836,-6497.0
18682.878920775594,-10130.0
18682.878983272833,-13432.0
18682.87904577007,-16558.0
18682.87910826731,-18925.0
18682.879170764543,-19448.0
18682.87923326178,-19673.0
18682.87929575902,-20838.0
18682.879358256258,-21028.0
18682.879420753492,-20577.0
18682.87948325073,-21534.0
18682.87954574797,-22307.0
18682.879608245203,-22546.0
18682.87967074244,-24444.0
18682.87973323968,-27410.0
18682.879795736917,-29086.0
18682.87985823415,-30566.0
18682.87992073139,-32114.0
18682.879983228628,-32266.0
18682.880045725866,-30663.0
18682.8801082231,-23966.0
18682.88017072034,-14128.0
18682.880233217576,-5171.0
18682.880295714815,4858.0
18682.88035821205,14423.0
18682.880420709287,17567.0
18682.880483206525,18589.0
18682.880545703763,20292.0
18682.880608200998,18657.0
18682.880670698236,15369.0
18682.880733195474,11771.0
18682.880795692712,8811.0
18682.880858189947,5454.0
18682.880920687185,2943.0
18682.880983184423,3938.0
18682.881045681657,3316.0
18682.881108178895,1431.0
18682.881170676133,172.0
18682.88123317337,-2395.0
18682.881295670606,-6083.0
18682.881358167844,-7766.0
18682.881420665082,-6382.0
18682.88148316232,-5652.0
18682.881545659555,-4286.0
18682.881608156793,-492.0
18682.88167065403,3516.0
18682.88173315127,7460.0
18682.881795648504,11984.0
18682.88185814574,17027.0
18682.88192064298,19700.0
18682.881983140218,19342.0
18682.882045637452,18560.0
18682.88210813469,16577.0
18682.88217063193,13600.0
18682.882233129167,11328.0
18682.8822956264,9585.0
18682.88235812364,7164.0
18682.882420620877,4262.0
18682.882483118115,2659.0
18682.88254561535,1888.0
18682.882608112588,1130.0
18682.882670609826,342.0
18682.882733107064,-366.0
18682.8827956043,-814.0
18682.882858101537,-907.0
18682.882920598775,334.0
18682.88298309601,2505.0
18682.883045593248,5168.0
18682.883108090486,8095.0
18682.883170587724,10059.0
18682.88323308496,11891.0
18682.883295582196,13947.0
18682.883358079434,14919.0
18682.883420576673,14703.0
18682.883483073907,14095.0
18682.883545571145,12869.0
18682.883608068383,10765.0
18682.88367056562,9078.0
18682.883733062856,8511.0
18682.883795560094,8189.0
18682.883858057332,7972.0
18682.88392055457,8404.0
18682.883983051805,8569.0
18682.884045549043,7461.0
18682.88410804628,6897.0
18682.88417054352,7056.0
18682.884233040753,6186.0
18682.88429553799,4868.0
18682.88435803523,4165.0
18682.884420532468,3047.0
18682.884483029702,1288.0
18682.88454552694,403.0
18682.88460802418,50.0
18682.884670521416,-1630.0
18682.88473301865,-4564.0
18682.88479551589,-7827.0
18682.884858013127,-11589.0
18682.88492051036,-15415.0
18682.8849830076,-18006.0
18682.885045504838,-19474.0
18682.885108002076,-20687.0
18682.88517049931,-21514.0
18682.88523299655,-21703.0
18682.885295493787,-21979.0
18682.885357991025,-22247.0
18682.88542048826,-22302.0
18682.885482985497,-23172.0
18682.885545482735,-24274.0
18682.885607979973,-25942.0
18682.885670477208,-28042.0
18682.885732974446,-29001.0
18682.885795471684,-30219.0
18682.885857968922,-31107.0
18682.885920466157,-31200.0
18682.885982963395,-29379.0
18682.886045460633,-20956.0
18682.88610795787,-10087.0
18682.886170455105,-2098.0
18682.886232952344,8220.0
18682.88629544958,16756.0
18682.886357946816,17428.0
18682.886420444054,18880.0
18682.886482941292,20287.0
18682.88654543853,18195.0
18682.886607935765,14625.0
18682.886670433003,10383.0
18682.88673293024,6859.0
18682.88679542748,2594.0
18682.886857924714,942.0
18682.88692042195,2044.0
18682.88698291919,1085.0
18682.887045416428,-301.0
18682.887107913662,-1285.0
18682.8871704109,-3545.0
18682.88723290814,-6664.0
18682.887295405377,-6155.0
18682.88735790261,-3885.0
18682.88742039985,-3386.0
18682.887482897087,-1203.0
18682.887545394326,2302.0
18682.88760789156,5783.0
18682.887670388798,9608.0
18682.887732886036,14190.0
18682.887795383274,19078.0
18682.88785788051,20469.0
18682.887920377747,19737.0
18682.887982874985,18572.0
18682.888045372223,15699.0
18682.888107869458,12998.0
18682.888170366696,10949.0
18682.888232863934,8563.0
18682.88829536117,5501.0
18682.888357858406,2511.0
18682.888420355644,621.0
18682.888482852883,-356.0
18682.888545350117,-535.0
18682.888607847355,-673.0
18682.888670344593,-810.0
18682.88873284183,-901.0
18682.888795339066,-887.0
18682.888857836304,565.0
18682.888920333542,3552.0
18682.88898283078,7109.0
18682.889045328015,10077.0
18682.889107825253,12464.0
18682.88917032249,14194.0
18682.88923281973,15078.0
18682.889295316963,15513.0
18682.8893578142,15022.0
18682.88942031144,14382.0
18682.889482808678,12798.0
18682.889545305912,10473.0
18682.88960780315,8800.0
18682.88967030039,7609.0
18682.889732797626,7557.0
18682.88979529486,7926.0
18682.8898577921,8291.0
18682.889920289337,8566.0
18682.889982786575,7543.0
18682.89004528381,6585.0
18682.890107781048,6241.0
18682.890170278286,5482.0
18682.89023277552,4675.0
18682.89029527276,4022.0
18682.890357769997,2682.0
18682.890420267235,956.0
18682.89048276447,-318.0
18682.890545261707,-1560.0
18682.890607758945,-3654.0
18682.890670256184,-6746.0
18682.890732753418,-10439.0
18682.890795250656,-13957.0
18682.890857747894,-17212.0
18682.890920245132,-19357.0
18682.890982742367,-20119.0
18682.891045239605,-20709.0
18682.891107736843,-21093.0
18682.89117023408,-21189.0
18682.891232731316,-21155.0
18682.891295228554,-21298.0
18682.89135772579,-21604.0
18682.89142022303,-22338.0
18682.891482720264,-24222.0
18682.891545217502,-26615.0
18682.89160771474,-28775.0
18682.89167021198,-30638.0
18682.891732709213,-32135.0
18682.89179520645,-32655.0
18682.89185770369,-31780.0
18682.891920200927,-26597.0
18682.891982698162,-15895.0
18682.8920451954,-6685.0
18682.892107692638,2402.0
18682.892170189873,14281.0
18682.89223268711,17844.0
18682.89229518435,18241.0
18682.892357681587,21006.0
18682.89242017882,19508.0
18682.89248267606,16291.0
18682.892545173298,12553.0
18682.892607670536,10090.0
18682.89267016777,6331.0
18682.89273266501,1859.0
18682.892795162246,3099.0
18682.892857659484,3089.0
18682.89292015672,780.0
18682.892982653957,-5.0
18682.893045151195,-1706.0
18682.893107648433,-5419.0
18682.893170145668,-7925.0
18682.893232642906,-6304.0
18682.893295140144,-4984.0
18682.893357637382,-3682.0
18682.893420134616,247.0
18682.893482631855,3912.0
18682.893545129093,7367.0
18682.893607626327,11516.0
18682.893670123565,16458.0
18682.893732620803,19534.0
18682.89379511804,19428.0
18682.893857615276,19353.0
18682.893920112514,17329.0
18682.893982609752,13650.0
18682.89404510699,11564.0
18682.894107604225,9722.0
18682.894170101463,7675.0
18682.8942325987,5419.0
18682.89429509594,3242.0
18682.894357593173,1809.0
18682.89442009041,942.0
18682.89448258765,680.0
18682.894545084888,375.0
18682.894607582122,-44.0
18682.89467007936,19.0
18682.8947325766,881.0
18682.894795073837,3110.0
18682.89485757107,5628.0
18682.89492006831,8257.0
18682.894982565547,10802.0
18682.895045062785,11421.0
18682.89510756002,12284.0
18682.895170057258,12726.0
18682.895232554496,12140.0
18682.895295051734,12559.0
18682.89535754897,11623.0
18682.895420046207,10488.0
18682.895482543445,9687.0
18682.89554504068,8825.0
18682.895607537917,8990.0
18682.895670035155,9108.0
18682.895732532394,10033.0
18682.895795029628,10325.0
18682.895857526866,9110.0
18682.895920024104,7986.0
18682.895982521342,6906.0
18682.896045018577,5876.0
18682.896107515815,4725.0
18682.896170013053,4029.0
18682.89623251029,2898.0
18682.896295007526,985.0
18682.896357504764,-380.0
18682.896420002002,-1874.0
18682.89648249924,-3526.0
18682.896544996474,-5914.0
18682.896607493713,-9574.0
18682.89666999095,-13139.0
18682.89673248819,-16547.0
18682.896794985423,-19298.0
18682.89685748266,-20636.0
18682.8969199799,-20610.0
18682.896982477137,-20303.0
18682.897044974372,-20493.0
18682.89710747161,-19599.0
18682.897169968848,-19345.0
18682.897232466086,-20406.0
18682.89729496332,-21194.0
18682.89735746056,-22929.0
18682.897419957797,-25493.0
18682.89748245503,-28248.0
18682.89754495227,-30048.0
18682.897607449508,-31062.0
18682.897669946746,-31940.0
18682.89773244398,-32018.0
18682.89779494122,-29680.0
18682.897857438456,-21042.0
18682.897919935695,-10620.0
18682.89798243293,-3233.0
18682.898044930167,7255.0
18682.898107427405,15835.0
18682.898169924643,16297.0
18682.898232421878,17821.0
18682.898294919116,19874.0
18682.898357416354,18413.0
18682.898419913592,14756.0
18682.898482410827,11360.0
18682.898544908065,9051.0
18682.898607405303,4637.0
18682.89866990254,2943.0
18682.898732399775,4338.0
18682.898794897013,3060.0
18682.89885739425,1231.0
18682.898919891486,-529.0
18682.898982388724,-3414.0
18682.899044885962,-6654.0
18682.8991073832,-6835.0
18682.899169880435,-4474.0
18682.899232377673,-3440.0
18682.89929487491,-1761.0
18682.89935737215,1774.0
18682.899419869384,5510.0
18682.89948236662,9121.0
18682.89954486386,13068.0
18682.899607361098,17523.0
18682.899669858332,18995.0
18682.89973235557,17840.0
18682.89979485281,16981.0
18682.899857350047,15080.0
18682.89991984728,12655.0
18682.89998234452,11027.0
18682.900044841757,9731.0
18682.900107338995,7681.0
18682.90016983623,4627.0
18682.900232333468,2903.0
18682.900294830706,2243.0
18682.900357327944,956.0
18682.90041982518,206.0
18682.900482322417,294.0
18682.900544819655,60.0
18682.900607316893,-413.0
18682.900669814127,604.0
18682.900732311366,3695.0
18682.900794808604,7050.0
18682.900857305838,9255.0
18682.900919803076,10933.0
18682.900982300314,12766.0
18682.901044797552,13513.0
18682.901107294787,13130.0
18682.901169792025,13521.0
18682.901232289263,13419.0
18682.9012947865,11342.0
18682.901357283736,9667.0
18682.901419780974,8922.0
18682.901482278212,8095.0
18682.90154477545,7662.0
18682.901607272684,8686.0
18682.901669769923,9338.0
18682.90173226716,8230.0
18682.9017947644,7651.0
18682.901857261633,7212.0
18682.90191975887,5943.0
18682.90198225611,4874.0
18682.902044753348,4385.0
18682.902107250582,3697.0
18682.90216974782,1878.0
18682.90223224506,542.0
18682.902294742296,-527.0
18682.90235723953,-2564.0
18682.90241973677,-4747.0
18682.902482234007,-7547.0
18682.902544731245,-11161.0
18682.90260722848,-14655.0
18682.902669725718,-17114.0
18682.902732222956,-18572.0
18682.90279472019,-19628.0
18682.90285721743,-19815.0
18682.902919714666,-19866.0
18682.902982211905,-20595.0
18682.90304470914,-20883.0
18682.903107206377,-21150.0
18682.903169703615,-22349.0
18682.903232200853,-23747.0
18682.903294698088,-25174.0
18682.903357195326,-27063.0
18682.903419692564,-28522.0
18682.903482189802,-29146.0
18682.903544687037,-29804.0
18682.903607184275,-30284.0
18682.903669681513,-29517.0
18682.90373217875,-24975.0
18682.903794675985,-15151.0
18682.903857173224,-5600.0
18682.90391967046,2646.0
18682.9039821677,12847.0
18682.904044664934,17334.0
18682.904107162172,17684.0
18682.90416965941,19442.0
18682.904232156645,18605.0
18682.904294653883,16435.0
18682.90435715112,12607.0
18682.90441964836,9123.0
18682.904482145594,5925.0
18682.90454464283,2385.0
18682.90460714007,2504.0
18682.904669637308,2229.0
18682.904732134542,1128.0
18682.90479463178,292.0
18682.90485712902,-2163.0
18682.904919626257,-5015.0
18682.90498212349,-6973.0
18682.90504462073,-5864.0
18682.905107117967,-4262.0
18682.905169615206,-2366.0
18682.90523211244,1045.0
18682.905294609678,4125.0
18682.905357106916,7925.0
18682.905419604154,11863.0
18682.90548210139,15880.0
18682.905544598627,19278.0
18682.905607095865,19649.0
18682.905669593103,18630.0
18682.905732090338,16329.0
18682.905794587576,13632.0
18682.905857084814,11670.0
18682.905919582052,9801.0
18682.905982079286,8125.0
18682.906044576524,5560.0
18682.906107073763,3005.0
18682.906169570997,1472.0
18682.906232068235,383.0
18682.906294565473,-177.0
18682.90635706271,-439.0
18682.906419559946,-522.0
18682.906482057184,-1008.0
18682.906544554422,-946.0
18682.90660705166,469.0
18682.906669548895,2925.0
18682.906732046133,6739.0
18682.90679454337,10131.0
18682.90685704061,12248.0
18682.906919537843,14752.0
18682.90698203508,15465.0
18682.90704453232,14735.0
18682.907107029558,15102.0
18682.907169526792,14177.0
18682.90723202403,12264.0
18682.90729452127,10599.0
18682.907357018506,8992.0
18682.90741951574,7774.0
18682.90748201298,7297.0
18682.907544510217,8509.0
18682.907607007455,9007.0
18682.90766950469,8126.0
18682.907732001928,7641.0
18682.907794499166,6747.0
18682.907856996404,5227.0
18682.90791949364,4436.0
18682.907981990877,4372.0
18682.908044488115,3329.0
18682.90810698535,1968.0
18682.908169482587,1245.0
18682.908231979825,-248.0
18682.908294477063,-2169.0
18682.908356974298,-4106.0
18682.908419471536,-7125.0
18682.908481968774,-11322.0
18682.908544466012,-15113.0
18682.908606963247,-17780.0
18682.908669460485,-20178.0
18682.908731957723,-21256.0
18682.90879445496,-20835.0
18682.908856952195,-20948.0
18682.908919449434,-21385.0
18682.90898194667,-21585.0
18682.90904444391,-22201.0
18682.909106941144,-23077.0
18682.909169438382,-24392.0
18682.90923193562,-25466.0
18682.90929443286,-26614.0
18682.909356930093,-29057.0
18682.90941942733,-29975.0
18682.90948192457,-30023.0
18682.909544421804,-31150.0
18682.909606919042,-29429.0
18682.90966941628,-21929.0
18682.909731913518,-11078.0
18682.909794410753,-2773.0
18682.90985690799,6312.0
18682.90991940523,16009.0
18682.909981902467,18260.0
18682.9100443997,18865.0
18682.91010689694,20185.0
18682.910169394178,18952.0
18682.910231891416,15504.0
18682.91029438865,10622.0
18682.910356885888,7455.0
18682.910419383126,4148.0
18682.910481880364,1894.0
18682.9105443776,2444.0
18682.910606874837,1840.0
18682.910669372075,301.0
18682.910731869313,-1737.0
18682.910794366548,-3934.0
18682.910856863786,-6262.0
18682.910919361024,-7221.0
18682.910981858262,-5434.0
18682.911044355496,-4297.0
18682.911106852735,-2777.0
18682.911169349973,624.0
18682.91123184721,4450.0
18682.911294344445,9095.0
18682.911356841683,13430.0
18682.91141933892,17411.0
18682.911481836156,19820.0
18682.911544333394,19585.0
18682.911606830632,18660.0
18682.91166932787,16510.0
18682.911731825105,13852.0
18682.911794322343,11919.0
18682.91185681958,9489.0
18682.91191931682,6649.0
18682.911981814053,4238.0
18682.91204431129,2230.0
18682.91210680853,849.0
18682.912169305768,173.0
18682.912231803002,-413.0
18682.91229430024,-1097.0
18682.91235679748,-1028.0
18682.912419294717,134.0
18682.91248179195,1560.0
18682.91254428919,3535.0
18682.912606786427,6340.0
18682.912669283665,8734.0
18682.9127317809,9601.0
18682.912794278138,10811.0
18682.912856775376,12852.0
18682.912919272614,13288.0
18682.91298176985,12901.0
18682.913044267087,12899.0
18682.913106764325,11779.0
18682.913169261563,9880.0
18682.913231758797,9019.0
18682.913294256035,8757.0
18682.913356753274,8112.0
18682.913419250508,8154.0
18682.913481747746,8663.0
18682.913544244984,8362.0
18682.913606742222,7917.0
18682.913669239457,7887.0
18682.913731736695,7626.0
18682.913794233933,6887.0
18682.91385673117,5851.0
18682.913919228406,4607.0
18682.913981725644,3137.0
18682.91404422288,1638.0
18682.91410672012,164.0
18682.914169217354,-1553.0
18682.914231714592,-3558.0
18682.91429421183,-6546.0
18682.91435670907,-10594.0
18682.914419206303,-13969.0
18682.91448170354,-16400.0
18682.91454420078,-18965.0
18682.914606698017,-20278.0
18682.914669195252,-20624.0
18682.91473169249,-21428.0
18682.914794189728,-21733.0
18682.914856686966,-21422.0
18682.9149191842,-21104.0
18682.91498168144,-22062.0
18682.915044178677,-23007.0
18682.915106675915,-23834.0
18682.91516917315,-26555.0
18682.915231670388,-28507.0
18682.915294167626,-29321.0
18682.91535666486,-30779.0
18682.9154191621,-31541.0
18682.915481659336,-30590.0
18682.915544156574,-25690.0
18682.91560665381,-15948.0
18682.915669151047,-6138.0
18682.915731648285,2887.0
18682.915794145523,12740.0
18682.915856642758,17177.0
18682.915919139996,17761.0
18682.915981637234,19412.0
18682.916044134472,18497.0
18682.916106631706,16046.0
18682.916169128945,12860.0
18682.916231626183,9556.0
18682.91629412342,6397.0
18682.916356620655,3550.0
18682.916419117893,3628.0
18682.91648161513,3523.0
18682.91654411237,2285.0
18682.916606609604,588.0
18682.916669106842,-2291.0
18682.91673160408,-5630.0
18682.916794101315,-8108.0
18682.916856598553,-6958.0
18682.91691909579,-5276.0
18682.91698159303,-3665.0
18682.917044090264,-456.0
18682.9171065875,2531.0
18682.91716908474,6698.0
18682.917231581978,11283.0
18682.917294079212,15488.0
18682.91735657645,18821.0
18682.91741907369,19221.0
18682.917481570927,18356.0
18682.91754406816,16320.0
18682.9176065654,13747.0
18682.917669062637,12155.0
18682.917731559875,10369.0
18682.91779405711,8245.0
18682.917856554348,5831.0
18682.917919051586,3654.0
18682.917981548824,2151.0
18682.91804404606,1130.0
18682.918106543297,785.0
18682.918169040535,54.0
18682.918231537773,-819.0
18682.918294035007,-1147.0
18682.918356532246,-1052.0
18682.918419029484,681.0
18682.91848152672,3606.0
18682.918544023956,6426.0
18682.918606521194,9283.0
18682.918669018432,11659.0
18682.918731515667,13385.0
18682.918794012905,14016.0
18682.918856510143,14293.0
18682.91891900738,14417.0
18682.918981504616,12434.0
18682.919044001854,10616.0
18682.919106499092,9182.0
18682.91916899633,7528.0
18682.919231493564,7081.0
18682.919293990803,7047.0
18682.91935648804,7716.0
18682.91941898528,8108.0
18682.919481482513,8160.0
18682.91954397975,8226.0
18682.91960647699,7826.0
18682.919668974228,7516.0
18682.919731471462,6427.0
18682.9197939687,5251.0
18682.91985646594,3988.0
18682.919918963176,2415.0
18682.91998146041,1248.0
18682.92004395765,37.0
18682.920106454887,-1364.0
18682.920168952125,-3501.0
18682.92023144936,-6506.0
18682.920293946598,-10313.0
18682.920356443836,-14368.0
18682.920418941074,-17235.0
18682.92048143831,-19579.0
18682.920543935546,-20957.0
18682.920606432785,-21214.0
18682.92066893002,-21555.0
18682.920731427257,-21854.0
18682.920793924495,-21388.0
18682.920856421733,-20923.0
18682.920918918968,-22170.0
18682.920981416206,-22873.0
18682.921043913444,-24001.0
18682.921106410682,-26548.0
18682.921168907917,-28042.0
18682.921231405155,-29263.0
18682.921293902393,-30185.0
18682.92135639963,-31338.0
18682.921418896865,-30853.0
18682.921481394103,-24677.0
18682.92154389134,-14358.0
18682.92160638858,-5512.0
18682.921668885814,4225.0
18682.921731383052,15319.0
18682.92179388029,18401.0
18682.92185637753,19204.0
18682.921918874763,21813.0
18682.921981372,20354.0
18682.92204386924,16733.0
18682.922106366474,12460.0
18682.92216886371,8982.0
18682.92223136095,4554.0
18682.922293858188,832.0
18682.922356355422,1461.0
18682.92241885266,1273.0
18682.9224813499,-57.0
18682.922543847137,-844.0
18682.92260634437,-2771.0
18682.92266884161,-5802.0
18682.922731338847,-7365.0
18682.922793836085,-5730.0
18682.92285633332,-4360.0
18682.922918830558,-2651.0
18682.922981327796,928.0
18682.923043825034,4255.0
18682.92310632227,8088.0
18682.923168819507,12380.0
18682.923231316745,16901.0
18682.923293813983,19995.0
18682.923356311218,19959.0
18682.923418808456,18658.0
18682.923481305694,16256.0
18682.92354380293,13531.0
18682.923606300166,11152.0
18682.923668797404,9048.0
18682.923731294642,6830.0
18682.92379379188,3966.0
18682.923856289115,1646.0
18682.923918786353,232.0
18682.92398128359,-143.0
18682.924043780826,-462.0
18682.924106278064,-865.0
18682.924168775302,-710.0
18682.92423127254,-871.0
18682.924293769775,-748.0
18682.924356267013,994.0
18682.92441876425,3762.0
18682.92448126149,5997.0
18682.924543758723,9269.0
18682.92460625596,12857.0
18682.9246687532,13869.0
18682.924731250438,15375.0
18682.924793747672,16209.0
18682.92485624491,14556.0
18682.92491874215,13844.0
18682.924981239386,12262.0
18682.92504373662,9649.0
18682.92510623386,7889.0
18682.925168731097,7004.0
18682.925231228335,6825.0
18682.92529372557,6725.0
18682.925356222808,7928.0
18682.925418720046,8672.0
18682.925481217284,7769.0
18682.92554371452,7358.0
18682.925606211757,6943.0
18682.925668708995,5391.0
18682.925731206233,3726.0
18682.925793703467,3339.0
18682.925856200705,2248.0
18682.925918697943,306.0
18682.925981195178,-564.0
18682.926043692416,-2088.0
18682.926106189654,-4762.0
18682.926168686892,-7928.0
18682.926231184127,-11281.0
18682.926293681365,-14140.0
18682.926356178603,-17514.0
18682.92641867584,-19978.0
18682.926481173075,-20354.0
18682.926543670314,-20810.0
18682.92660616755,-21635.0
18682.92666866479,-21164.0
18682.926731162024,-20460.0
18682.926793659262,-21695.0
18682.9268561565,-22545.0
18682.92691865374,-22763.0
18682.926981150973,-24627.0
18682.92704364821,-27098.0
18682.92710614545,-29300.0
18682.927168642687,-30912.0
18682.92723113992,-32311.0
18682.92729363716,-32768.0
18682.927356134398,-29497.0
18682.927418631632,-20827.0
18682.92748112887,-10437.0
18682.92754362611,-1068.0
18682.927606123347,10017.0
18682.92766862058,17713.0
18682.92773111782,18550.0
18682.927793615057,20179.0
18682.927856112296,20223.0
18682.92791860953,17137.0
18682.927981106768,13631.0
18682.928043604006,9607.0
18682.928106101244,6810.0
18682.92816859848,3676.0
18682.928231095717,2553.0
18682.928293592955,4016.0
18682.928356090193,3161.0
18682.928418587428,1461.0
18682.928481084666,-751.0
18682.928543581904,-3972.0
18682.928606079142,-6858.0
18682.928668576376,-7859.0
18682.928731073614,-6592.0
18682.928793570853,-5094.0
18682.92885606809,-2805.0
18682.928918565325,942.0
18682.928981062563,5418.0
18682.9290435598,10166.0
18682.92910605704,14734.0
18682.929168554274,19044.0
18682.929231051512,20524.0
18682.92929354875,19534.0
18682.929356045985,17974.0
18682.929418543223,15093.0
18682.92948104046,12108.0
18682.9295435377,9805.0
18682.929606034933,7634.0
18682.92966853217,5454.0
18682.92973102941,3412.0
18682.929793526648,2203.0
18682.929856023882,1423.0
18682.92991852112,832.0
18682.92998101836,104.0
18682.930043515596,-1019.0
18682.93010601283,-1954.0
18682.93016851007,-2341.0
18682.930231007307,-1259.0
18682.930293504545,1750.0
18682.93035600178,5448.0
18682.930418499018,8938.0
18682.930480996256,11626.0
18682.930543493494,14074.0
18682.93060599073,15646.0
18682.930668487967,15356.0
18682.930730985205,15107.0
18682.930793482443,14258.0
18682.930855979677,11427.0
18682.930918476915,8600.0
18682.930980974153,6988.0
18682.93104347139,6206.0
18682.931105968626,6294.0
18682.931168465864,7437.0
18682.931230963102,8883.0
18682.931293460337,9377.0
18682.931355957575,8919.0
18682.931418454813,8095.0
18682.93148095205,7621.0
18682.931543449286,6762.0
18682.931605946524,5046.0
18682.93166844376,3907.0
18682.931730941,2697.0
18682.931793438234,1121.0
18682.931855935472,384.0
18682.93191843271,-127.0
18682.93198092995,-1493.0
18682.932043427183,-4162.0
18682.93210592442,-7555.0
18682.93216842166,-11347.0
18682.932230918897,-15466.0
18682.932293416132,-18866.0
18682.93235591337,-20511.0
18682.932418410608,-21364.0
18682.932480907846,-22385.0
18682.93254340508,-22334.0
18682.93260590232,-21746.0
18682.932668399557,-21879.0
18682.932730896795,-21708.0
18682.93279339403,-21653.0
18682.932855891268,-22942.0
18682.932918388506,-24801.0
18682.93298088574,-27095.0
18682.93304338298,-29243.0
18682.933105880216,-30741.0
18682.933168377454,-32057.0
18682.93323087469,-32583.0
18682.933293371927,-28762.0
18682.933355869165,-18703.0
18682.933418366403,-8717.0
18682.933480863638,511.0
18682.933543360876,12549.0
18682.933605858114,18702.0
18682.933668355352,18944.0
18682.933730852586,20771.0
18682.933793349825,20457.0
18682.933855847063,17523.0
18682.9339183443,13297.0
18682.933980841535,9438.0
18682.934043338773,5890.0
18682.93410583601,2088.0
18682.93416833325,2200.0
18682.934230830484,2907.0
18682.934293327722,1990.0
18682.93435582496,911.0
18682.9344183222,-1410.0
18682.934480819433,-4556.0
18682.93454331667,-7476.0
18682.93460581391,-7057.0
18682.934668311143,-5711.0
18682.93473080838,-4833.0
18682.93479330562,-1638.0
18682.934855802858,2122.0
18682.934918300092,6279.0
18682.93498079733,10979.0
18682.93504329457,15872.0
18682.935105791807,20226.0
18682.93516828904,20961.0
18682.93523078628,19973.0
18682.935293283517,17852.0
18682.935355780755,14502.0
18682.93541827799,11873.0
18682.935480775228,9588.0
18682.935543272466,7420.0
18682.935605769704,4942.0
18682.93566826694,2527.0
18682.935730764177,1281.0
18682.935793261415,705.0
18682.935855758653,658.0
18682.935918255887,750.0
18682.935980753125,577.0
18682.936043250364,-51.0
18682.9361057476,-764.0
18682.936168244836,-261.0
18682.936230742074,1446.0
18682.936293239312,3562.0
18682.93635573655,6637.0
18682.936418233785,10373.0
18682.936480731023,12963.0
18682.93654322826,14430.0
18682.936605725496,16147.0
18682.936668222734,16138.0
18682.936730719972,14500.0
18682.93679321721,13424.0
18682.936855714444,11274.0
18682.936918211682,8845.0
18682.93698070892,7320.0
18682.93704320616,6691.0
18682.937105703393,7119.0
18682.93716820063,7420.0
18682.93723069787,8508.0
18682.937293195107,9060.0
18682.937355692342,7864.0
18682.93741818958,7373.0
18682.937480686818,6680.0
18682.937543184056,4608.0
18682.93760568129,3268.0
18682.93766817853,2642.0
18682.937730675767,1120.0
18682.937793173005,-724.0
18682.93785567024,-1708.0
18682.937918167478,-3071.0
18682.937980664716,-6223.0
18682.938043161954,-10106.0
18682.93810565919,-13106.0
18682.938168156426,-16244.0
18682.938230653665,-19615.0
18682.938293150903,-20472.0
18682.938355648137,-20950.0
18682.938418145375,-21977.0
18682.938480642613,-21581.0
18682.938543139848,-21658.0
18682.938605637086,-22064.0
18682.938668134324,-22833.0
18682.938730631562,-23835.0
18682.938793128797,-24566.0
18682.938855626035,-27117.0
18682.938918123273,-29212.0
18682.93898062051,-29948.0
18682.939043117745,-31684.0
18682.939105614983,-32597.0
18682.93916811222,-30124.0
18682.93923060946,-22542.0
18682.939293106694,-12007.0
18682.939355603932,-3298.0
18682.93941810117,6752.0
18682.93948059841,16280.0
18682.939543095643,18123.0
18682.93960559288,19536.0
18682.93966809012,21324.0
18682.939730587357,19325.0
18682.93979308459,15751.0
18682.93985558183,11408.0
18682.939918079068,8280.0
18682.939980576302,4561.0
18682.94004307354,2402.0
18682.94010557078,3560.0
18682.940168068017,2823.0
18682.94023056525,1136.0
18682.94029306249,-859.0
18682.940355559727,-3805.0
18682.940418056965,-7170.0
18682.9404805542,-8340.0
18682.940543051438,-6513.0
18682.940605548676,-5697.0
18682.940668045914,-3978.0
18682.94073054315,-359.0
18682.940793040387,3604.0
18682.940855537625,8529.0
18682.940918034863,13292.0
18682.940980532097,18034.0
18682.941043029336,20115.0
18682.941105526574,19354.0
18682.94116802381,18358.0
18682.941230521046,15707.0
18682.941293018284,13186.0
18682.941355515522,11483.0
18682.94141801276,9204.0
18682.941480509995,6684.0
18682.941543007233,4278.0
18682.94160550447,2744.0
18682.94166800171,1542.0
18682.941730498944,944.0
18682.941792996182,622.0
18682.94185549342,-119.0
18682.941917990654,-528.0
18682.941980487893,-819.0
18682.94204298513,-280.0
18682.94210548237,1739.0
18682.942167979603,4677.0
18682.94223047684,7688.0
18682.94229297408,9911.0
18682.942355471318,12038.0
18682.942417968552,13724.0
18682.94248046579,13996.0
18682.94254296303,14006.0
18682.942605460266,13910.0
18682.9426679575,11886.0
18682.94273045474,9622.0
18682.942792951977,8614.0
18682.942855449215,7693.0
18682.94291794645,7305.0
18682.942980443688,8211.0
18682.943042940926,9564.0
18682.943105438164,9305.0
18682.9431679354,8766.0
18682.943230432636,8779.0
18682.943292929875,7434.0
18682.943355427113,5995.0
18682.943417924347,5135.0
18682.943480421585,3921.0
18682.943542918823,2140.0
18682.94360541606,787.0
18682.943667913296,-15.0
18682.943730410534,-1631.0
18682.943792907772,-3264.0
18682.943855405007,-5282.0
18682.943917902245,-9020.0
18682.943980399483,-12953.0
18682.94404289672,-15962.0
18682.944105393955,-18487.0
18682.944167891194,-20446.0
18682.94423038843,-20975.0
18682.94429288567,-20877.0
18682.944355382904,-21713.0
18682.944417880142,-21937.0
18682.94448037738,-21110.0
18682.94454287462,-21865.0
18682.944605371853,-23126.0
18682.94466786909,-23357.0
18682.94473036633,-25040.0
18682.944792863567,-27726.0
18682.9448553608,-28718.0
18682.94491785804,-29571.0
18682.944980355278,-31640.0
18682.945042852516,-31945.0
18682.94510534975,-26548.0
18682.94516784699,-15978.0
18682.945230344227,-7291.0
18682.94529284146,1448.0
18682.9453553387,13696.0
18682.945417835937,17732.0
18682.945480333176,17775.0
18682.94554283041,21064.0
18682.945605327648,20479.0
18682.945667824886,17142.0
18682.945730322124,12555.0
18682.94579281936,9173.0
18682.945855316597,6028.0
18682.945917813835,2009.0
18682.945980311073,2817.0
18682.946042808308,3788.0
18682.946105305546,2252.0
18682.946167802784,892.0
18682.946230300022,-1429.0
18682.946292797256,-5066.0
18682.946355294494,-7726.0
18682.946417791733,-6545.0
18682.94648028897,-5565.0
18682.946542786205,-5068.0
18682.946605283443,-1913.0
18682.94666778068,1919.0
18682.94673027792,6224.0
18682.946792775154,10844.0
18682.946855272392,16152.0
18682.94691776963,20268.0
18682.94698026687,20138.0
18682.947042764103,18831.0
18682.94710526134,17086.0
18682.94716775858,14333.0
18682.947230255813,11816.0
18682.94729275305,9859.0
