0,1,2,3,4
18634.443192008694,1.1240084171295166,1.2239093780517578,1.6307990550994873,1.3336869478225708
18634.44519207102,1.1235227584838867,1.2240712642669678,1.6304752826690674,1.3332011699676514
18634.447192133346,1.1231988668441772,1.2243950366973877,1.6304752826690674,1.3335250616073608
18634.449192195672,1.1236846446990967,1.2245569229125977,1.6303133964538574,1.3336869478225708
18634.451192257995,1.1253037452697754,1.225204586982727,1.629827618598938,1.3336869478225708
18634.45319232032,1.1254656314849854,1.2247189283370972,1.629503846168518,1.3335250616073608
18634.455192382648,1.1249799728393555,1.2247189283370972,1.6301515102386475,1.3327155113220215
18634.457192444974,1.1254656314849854,1.2245569229125977,1.629665732383728,1.3327155113220215
18634.4591925073,1.1251418590545654,1.2245569229125977,1.6304752826690674,1.3333631753921509
18634.461192569626,1.1240084171295166,1.2242331504821777,1.6306371688842773,1.3332011699676514
18634.463192631953,1.1236846446990967,1.2247189283370972,1.6307990550994873,1.3333631753921509
18634.46519269428,1.1241704225540161,1.2248808145523071,1.6303133964538574,1.3332011699676514
18634.467192756605,1.1240084171295166,1.2245569229125977,1.629827618598938,1.3327155113220215
18634.46919281893,1.1238465309143066,1.2245569229125977,1.6291799545288086,1.3343346118927002
18634.471192881258,1.1248180866241455,1.2253665924072266,1.629827618598938,1.3336869478225708
18634.473192943584,1.124332308769226,1.2248808145523071,1.6291799545288086,1.3330392837524414
18634.47519300591,1.124332308769226,1.2245569229125977,1.6293418407440186,1.332553505897522
18634.477193068236,1.124656081199646,1.2248808145523071,1.629827618598938,1.3335250616073608
18634.479193130563,1.124332308769226,1.2248808145523071,1.629665732383728,1.3330392837524414
18634.48119319289,1.1235227584838867,1.2240712642669678,1.629665732383728,1.3332011699676514
18634.483193255215,1.1231988668441772,1.2243950366973877,1.629503846168518,1.3333631753921509
18634.48519331754,1.1235227584838867,1.2248808145523071,1.6290180683135986,1.3328773975372314
18634.487193379868,1.1227132081985474,1.2248808145523071,1.6288561820983887,1.3328773975372314
18634.48919344219,1.1235227584838867,1.2248808145523071,1.6288561820983887,1.3336869478225708
18634.491193504517,1.1248180866241455,1.2247189283370972,1.6291799545288086,1.3338488340377808
18634.493193566843,1.1248180866241455,1.2248808145523071,1.6291799545288086,1.3332011699676514
18634.49519362917,1.124494194984436,1.2247189283370972,1.629989504814148,1.3332011699676514
18634.497193691495,1.1241704225540161,1.2247189283370972,1.6301515102386475,1.3333631753921509
18634.49919375382,1.1248180866241455,1.2255284786224365,1.6307990550994873,1.3327155113220215
18634.501193816148,1.124494194984436,1.225204586982727,1.6309610605239868,1.3332011699676514
18634.503193878474,1.1241704225540161,1.225204586982727,1.629665732383728,1.3335250616073608
18634.5051939408,1.1235227584838867,1.225042700767517,1.6306371688842773,1.3333631753921509
18634.507194003127,1.1238465309143066,1.225042700767517,1.6309610605239868,1.3328773975372314
18634.509194065453,1.124494194984436,1.2243950366973877,1.6304752826690674,1.3332011699676514
18634.51119412778,1.1254656314849854,1.2242331504821777,1.6303133964538574,1.3338488340377808
18634.513194190105,1.1249799728393555,1.2248808145523071,1.6293418407440186,1.3338488340377808
18634.51519425243,1.124332308769226,1.225204586982727,1.6291799545288086,1.3340108394622803
18634.517194314758,1.1248180866241455,1.225204586982727,1.629665732383728,1.3340108394622803
18634.519194377084,1.124332308769226,1.225042700767517,1.629665732383728,1.3335250616073608
18634.52119443941,1.1235227584838867,1.2255284786224365,1.6304752826690674,1.3335250616073608
18634.523194501737,1.1236846446990967,1.2253665924072266,1.629989504814148,1.3332011699676514
18634.525194564063,1.124332308769226,1.2255284786224365,1.629827618598938,1.3335250616073608
18634.52719462639,1.1233607530593872,1.2264999151229858,1.629503846168518,1.3340108394622803
18634.529194688712,1.1236846446990967,1.2264999151229858,1.629827618598938,1.3344964981079102
18634.531194751038,1.124494194984436,1.226014256477356,1.629989504814148,1.3341727256774902
18634.533194813364,1.124656081199646,1.225204586982727,1.6306371688842773,1.3341727256774902
18634.53519487569,1.1240084171295166,1.226014256477356,1.629989504814148,1.3332011699676514
18634.537194938017,1.1240084171295166,1.2268238067626953,1.629503846168518,1.3332011699676514
18634.539195000343,1.1235227584838867,1.2263380289077759,1.629665732383728,1.3328773975372314
18634.54119506267,1.122227430343628,1.2258522510528564,1.629989504814148,1.3330392837524414
18634.543195124996,1.1225512027740479,1.2258522510528564,1.6293418407440186,1.3332011699676514
18634.545195187322,1.1225512027740479,1.2255284786224365,1.6288561820983887,1.3344964981079102
18634.54719524965,1.122065544128418,1.2258522510528564,1.6290180683135986,1.3341727256774902
18634.549195311974,1.122065544128418,1.2258522510528564,1.6280465126037598,1.3349822759628296
18634.5511953743,1.122389316558838,1.2255284786224365,1.6275608539581299,1.3348203897476196
18634.553195436627,1.1227132081985474,1.2253665924072266,1.6277227401733398,1.3343346118927002
18634.555195498953,1.1227132081985474,1.2247189283370972,1.6270750761032104,1.3338488340377808
18634.55719556128,1.1228750944137573,1.2256903648376465,1.6269131898880005,1.3346583843231201
18634.559195623606,1.1228750944137573,1.2264999151229858,1.6267513036727905,1.3332011699676514
18634.561195685932,1.122227430343628,1.226014256477356,1.62739896774292,1.332229733467102
18634.56319574826,1.1225512027740479,1.2256903648376465,1.6278846263885498,1.332391619682312
18634.565195810585,1.1217416524887085,1.226176142692566,1.6275608539581299,1.3333631753921509
18634.567195872907,1.121255874633789,1.2255284786224365,1.6277227401733398,1.3335250616073608
18634.569195935233,1.122389316558838,1.2258522510528564,1.62739896774292,1.3341727256774902
18634.57119599756,1.1230369806289673,1.2247189283370972,1.6280465126037598,1.3338488340377808
18634.573196059886,1.1228750944137573,1.2245569229125977,1.6272369623184204,1.3332011699676514
18634.575196122212,1.122227430343628,1.2245569229125977,1.6261036396026611,1.3333631753921509
18634.57719618454,1.1227132081985474,1.2256903648376465,1.6270750761032104,1.3333631753921509
18634.579196246865,1.122065544128418,1.226014256477356,1.6278846263885498,1.3330392837524414
18634.58119630919,1.1209321022033691,1.2255284786224365,1.6275608539581299,1.3330392837524414
18634.583196371517,1.1209321022033691,1.2256903648376465,1.6278846263885498,1.3332011699676514
18634.585196433844,1.121093988418579,1.2256903648376465,1.6283704042434692,1.3330392837524414
18634.58719649617,1.121093988418579,1.2258522510528564,1.6282085180282593,1.3327155113220215
18634.589196558496,1.1207702159881592,1.2263380289077759,1.6286941766738892,1.3333631753921509
18634.591196620822,1.1217416524887085,1.226014256477356,1.6285322904586792,1.3341727256774902
18634.59319668315,1.1219035387039185,1.2266618013381958,1.6286941766738892,1.3346583843231201
18634.595196745475,1.122389316558838,1.2268238067626953,1.6282085180282593,1.3341727256774902
18634.5971968078,1.122065544128418,1.226176142692566,1.6283704042434692,1.3340108394622803
18634.599196870127,1.1214178800582886,1.2268238067626953,1.6280465126037598,1.3335250616073608
18634.601196932454,1.1199606657028198,1.226176142692566,1.6275608539581299,1.3335250616073608
18634.60319699478,1.1204463243484497,1.2255284786224365,1.6280465126037598,1.3333631753921509
18634.605197057106,1.1207702159881592,1.2256903648376465,1.6272369623184204,1.3344964981079102
18634.607197119432,1.1201225519180298,1.2258522510528564,1.626265525817871,1.3335250616073608
18634.609197181755,1.1202844381332397,1.226176142692566,1.6270750761032104,1.3336869478225708
18634.61119724408,1.1219035387039185,1.2276333570480347,1.6272369623184204,1.3338488340377808
18634.613197306408,1.1215797662734985,1.2268238067626953,1.6275608539581299,1.3341727256774902
18634.615197368734,1.121093988418579,1.226014256477356,1.6267513036727905,1.3341727256774902
18634.61719743106,1.122389316558838,1.2253665924072266,1.6272369623184204,1.3343346118927002
18634.619197493386,1.1215797662734985,1.2253665924072266,1.6278846263885498,1.3344964981079102
18634.621197555713,1.1201225519180298,1.225204586982727,1.6275608539581299,1.3343346118927002
18634.62319761804,1.1204463243484497,1.226014256477356,1.6278846263885498,1.3344964981079102
18634.625197680365,1.1201225519180298,1.2264999151229858,1.6278846263885498,1.3344964981079102
18634.62719774269,1.1193130016326904,1.226176142692566,1.6277227401733398,1.3341727256774902
18634.629197805018,1.1197986602783203,1.2266618013381958,1.6270750761032104,1.3344964981079102
18634.631197867344,1.1214178800582886,1.2263380289077759,1.6278846263885498,1.3346583843231201
18634.63319792967,1.121255874633789,1.2268238067626953,1.6275608539581299,1.3351441621780396
18634.635197991996,1.1202844381332397,1.2263380289077759,1.6275608539581299,1.3344964981079102
18634.637198054323,1.1209321022033691,1.2273094654083252,1.6275608539581299,1.3346583843231201
18634.63919811665,1.1209321022033691,1.2277952432632446,1.6278846263885498,1.3343346118927002
18634.641198178975,1.1206083297729492,1.2277952432632446,1.6278846263885498,1.3340108394622803
18634.6431982413,1.1209321022033691,1.2271475791931152,1.6280465126037598,1.3327155113220215
18634.645198303628,1.1214178800582886,1.2273094654083252,1.6282085180282593,1.3338488340377808
18634.64719836595,1.1207702159881592,1.2274714708328247,1.6283704042434692,1.3351441621780396
18634.649198428277,1.1204463243484497,1.2279571294784546,1.6269131898880005,1.335629940032959
18634.651198490603,1.1215797662734985,1.228281021118164,1.6272369623184204,1.3344964981079102
18634.65319855293,1.121093988418579,1.228281021118164,1.6278846263885498,1.3338488340377808
18634.655198615255,1.1206083297729492,1.228119134902954,1.6282085180282593,1.3340108394622803
18634.65719867758,1.1225512027740479,1.228604793548584,1.6291799545288086,1.335629940032959
18634.659198739908,1.122065544128418,1.228442907333374,1.6291799545288086,1.3344964981079102
18634.661198802234,1.1206083297729492,1.228604793548584,1.6290180683135986,1.3344964981079102
18634.66319886456,1.1209321022033691,1.228442907333374,1.6280465126037598,1.3348203897476196
18634.665198926887,1.1202844381332397,1.228119134902954,1.6285322904586792,1.3344964981079102
18634.667198989213,1.1196367740631104,1.2274714708328247,1.6278846263885498,1.3344964981079102
18634.66919905154,1.1207702159881592,1.2274714708328247,1.6275608539581299,1.3353060483932495
18634.671199113865,1.121255874633789,1.228119134902954,1.6280465126037598,1.3370871543884277
18634.67319917619,1.1207702159881592,1.228119134902954,1.6283704042434692,1.335953712463379
18634.675199238518,1.1209321022033691,1.228604793548584,1.6278846263885498,1.3351441621780396
18634.677199300844,1.1225512027740479,1.2287667989730835,1.6280465126037598,1.3353060483932495
18634.67919936317,1.1214178800582886,1.2290905714035034,1.6280465126037598,1.335629940032959
18634.681199425497,1.1196367740631104,1.228119134902954,1.6272369623184204,1.3349822759628296
18634.683199487823,1.1194748878479004,1.2277952432632446,1.6267513036727905,1.3349822759628296
18634.68519955015,1.1209321022033691,1.228119134902954,1.6272369623184204,1.3361157178878784
18634.687199612472,1.1196367740631104,1.228442907333374,1.6270750761032104,1.3353060483932495
18634.689199674798,1.1197986602783203,1.2287667989730835,1.62739896774292,1.3362776041030884
18634.691199737124,1.1199606657028198,1.2292524576187134,1.6272369623184204,1.3367632627487183
18634.69319979945,1.1196367740631104,1.2292524576187134,1.6275608539581299,1.3369252681732178
18634.695199861777,1.1201225519180298,1.2292524576187134,1.626427412033081,1.3369252681732178
18634.697199924103,1.1207702159881592,1.2287667989730835,1.6272369623184204,1.3366013765335083
18634.69919998643,1.1201225519180298,1.2289286851882935,1.6270750761032104,1.3351441621780396
18634.701200048756,1.119150996208191,1.228604793548584,1.6272369623184204,1.335791826248169
18634.703200111082,1.119150996208191,1.228119134902954,1.62739896774292,1.335468053817749
18634.70520017341,1.118827223777771,1.228119134902954,1.6270750761032104,1.3351441621780396
18634.707200235734,1.1176937818527222,1.2279571294784546,1.6270750761032104,1.3344964981079102
18634.70920029806,1.1180176734924316,1.2290905714035034,1.6269131898880005,1.3349822759628296
18634.711200360387,1.119150996208191,1.2292524576187134,1.6270750761032104,1.3351441621780396
18634.713200422713,1.118827223777771,1.2290905714035034,1.626427412033081,1.3351441621780396
18634.71520048504,1.118827223777771,1.2292524576187134,1.626427412033081,1.3344964981079102
18634.717200547366,1.1201225519180298,1.2287667989730835,1.6261036396026611,1.3343346118927002
18634.719200609692,1.1194748878479004,1.228604793548584,1.6267513036727905,1.3333631753921509
18634.72120067202,1.1181795597076416,1.228442907333374,1.6267513036727905,1.3332011699676514
18634.723200734345,1.1178557872772217,1.228442907333374,1.626265525817871,1.3335250616073608
18634.725200796667,1.1181795597076416,1.228281021118164,1.6259416341781616,1.3340108394622803
18634.727200858993,1.1178557872772217,1.2277952432632446,1.6261036396026611,1.3343346118927002
18634.72920092132,1.1183414459228516,1.2273094654083252,1.6259416341781616,1.3349822759628296
18634.731200983646,1.118827223777771,1.228281021118164,1.6257797479629517,1.3353060483932495
18634.733201045972,1.119150996208191,1.2279571294784546,1.6261036396026611,1.3353060483932495
18634.7352011083,1.118503451347351,1.2277952432632446,1.626265525817871,1.3343346118927002
18634.737201170625,1.1193130016326904,1.2276333570480347,1.6261036396026611,1.3343346118927002
18634.73920123295,1.118989109992981,1.2271475791931152,1.6251320838928223,1.3340108394622803
18634.741201295277,1.1183414459228516,1.2276333570480347,1.6256178617477417,1.3343346118927002
18634.743201357604,1.119150996208191,1.228281021118164,1.6252940893173218,1.3349822759628296
18634.74520141993,1.118827223777771,1.228281021118164,1.6252940893173218,1.3353060483932495
18634.747201482256,1.1176937818527222,1.228604793548584,1.6259416341781616,1.3346583843231201
18634.749201544582,1.1181795597076416,1.228281021118164,1.6256178617477417,1.335953712463379
18634.75120160691,1.118827223777771,1.2274714708328247,1.6251320838928223,1.335791826248169
18634.753201669235,1.118503451347351,1.2271475791931152,1.6254559755325317,1.335791826248169
18634.75520173156,1.118665337562561,1.2279571294784546,1.6252940893173218,1.3351441621780396
18634.757201793887,1.118827223777771,1.2287667989730835,1.6249701976776123,1.335953712463379
18634.759201856214,1.1181795597076416,1.2290905714035034,1.6252940893173218,1.335468053817749
18634.76120191854,1.1175318956375122,1.228442907333374,1.6246464252471924,1.3348203897476196
18634.763201980866,1.1183414459228516,1.228281021118164,1.6249701976776123,1.335468053817749
18634.765202043192,1.118503451347351,1.228119134902954,1.6251320838928223,1.3349822759628296
18634.767202105515,1.1163984537124634,1.228281021118164,1.6257797479629517,1.3341727256774902
18634.76920216784,1.1172081232070923,1.2274714708328247,1.6257797479629517,1.3351441621780396
18634.771202230168,1.118503451347351,1.2268238067626953,1.6252940893173218,1.335468053817749
18634.773202292494,1.1175318956375122,1.2273094654083252,1.6244844198226929,1.3351441621780396
18634.77520235482,1.1176937818527222,1.2273094654083252,1.624322533607483,1.3348203897476196
18634.777202417146,1.1197986602783203,1.2271475791931152,1.6244844198226929,1.335468053817749
18634.779202479473,1.1183414459228516,1.2276333570480347,1.6249701976776123,1.3349822759628296
18634.7812025418,1.1173700094223022,1.228604793548584,1.6248083114624023,1.335629940032959
18634.783202604125,1.1183414459228516,1.228604793548584,1.6251320838928223,1.335629940032959
18634.78520266645,1.118665337562561,1.228119134902954,1.6244844198226929,1.335953712463379
18634.787202728778,1.1176937818527222,1.2276333570480347,1.6249701976776123,1.335953712463379
18634.789202791104,1.1181795597076416,1.2273094654083252,1.6244844198226929,1.335791826248169
18634.79120285343,1.1193130016326904,1.2274714708328247,1.6256178617477417,1.335953712463379
18634.793202915756,1.1194748878479004,1.2276333570480347,1.6254559755325317,1.3361157178878784
18634.795202978083,1.1202844381332397,1.2279571294784546,1.6257797479629517,1.3361157178878784
18634.79720304041,1.1215797662734985,1.228119134902954,1.6252940893173218,1.3369252681732178
18634.799203102735,1.121093988418579,1.2279571294784546,1.6257797479629517,1.335953712463379
18634.80120316506,1.1197986602783203,1.228442907333374,1.6254559755325317,1.3353060483932495
18634.803203227388,1.1194748878479004,1.2277952432632446,1.6256178617477417,1.335953712463379
18634.80520328971,1.1197986602783203,1.2268238067626953,1.6251320838928223,1.3366013765335083
18634.807203352037,1.118503451347351,1.2269856929779053,1.6251320838928223,1.335953712463379
18634.809203414363,1.1193130016326904,1.2274714708328247,1.6251320838928223,1.335953712463379
18634.81120347669,1.1196367740631104,1.2271475791931152,1.626589298248291,1.335953712463379
18634.813203539015,1.1196367740631104,1.2266618013381958,1.6267513036727905,1.3366013765335083
18634.81520360134,1.1199606657028198,1.2273094654083252,1.626265525817871,1.3362776041030884
18634.817203663668,1.1207702159881592,1.2276333570480347,1.6254559755325317,1.3361157178878784
18634.819203725994,1.1199606657028198,1.2279571294784546,1.6249701976776123,1.3351441621780396
18634.82120378832,1.118989109992981,1.2277952432632446,1.6254559755325317,1.335629940032959
18634.823203850647,1.1193130016326904,1.2269856929779053,1.6259416341781616,1.3362776041030884
18634.825203912973,1.1196367740631104,1.2268238067626953,1.6251320838928223,1.3361157178878784
18634.8272039753,1.118665337562561,1.2274714708328247,1.6251320838928223,1.335791826248169
18634.829204037625,1.1193130016326904,1.2279571294784546,1.6248083114624023,1.335468053817749
18634.83120409995,1.1201225519180298,1.228119134902954,1.6244844198226929,1.3351441621780396
18634.833204162278,1.1206083297729492,1.228119134902954,1.6246464252471924,1.335791826248169
18634.835204224604,1.1202844381332397,1.228281021118164,1.6246464252471924,1.3361157178878784
18634.83720428693,1.119150996208191,1.2287667989730835,1.6259416341781616,1.3364394903182983
18634.839204349257,1.118989109992981,1.228604793548584,1.6269131898880005,1.335791826248169
18634.841204411583,1.118665337562561,1.228119134902954,1.626265525817871,1.3361157178878784
18634.84320447391,1.1197986602783203,1.2277952432632446,1.6257797479629517,1.335953712463379
18634.845204536232,1.1202844381332397,1.2277952432632446,1.6256178617477417,1.3364394903182983
18634.847204598558,1.1194748878479004,1.2269856929779053,1.626265525817871,1.335953712463379
18634.849204660884,1.1206083297729492,1.2276333570480347,1.6254559755325317,1.3369252681732178
18634.85120472321,1.1215797662734985,1.2276333570480347,1.6251320838928223,1.3370871543884277
18634.853204785537,1.121093988418579,1.2271475791931152,1.6259416341781616,1.3372490406036377
18634.855204847863,1.1204463243484497,1.2276333570480347,1.6254559755325317,1.3366013765335083
18634.85720491019,1.121255874633789,1.228281021118164,1.6249701976776123,1.3362776041030884
18634.859204972516,1.1206083297729492,1.228604793548584,1.6246464252471924,1.335629940032959
18634.861205034842,1.1204463243484497,1.228442907333374,1.6254559755325317,1.3362776041030884
18634.86320509717,1.1204463243484497,1.2276333570480347,1.6252940893173218,1.3364394903182983
18634.865205159495,1.1206083297729492,1.2274714708328247,1.6256178617477417,1.3364394903182983
18634.86720522182,1.1199606657028198,1.228281021118164,1.6249701976776123,1.335953712463379
18634.869205284147,1.1202844381332397,1.2279571294784546,1.623998761177063,1.3367632627487183
18634.871205346473,1.1207702159881592,1.2269856929779053,1.6251320838928223,1.3370871543884277
18634.8732054088,1.1206083297729492,1.2277952432632446,1.6256178617477417,1.3369252681732178
18634.875205471126,1.1206083297729492,1.2279571294784546,1.6257797479629517,1.3369252681732178
18634.877205533452,1.1225512027740479,1.2273094654083252,1.6257797479629517,1.3370871543884277
18634.87920559578,1.121255874633789,1.2273094654083252,1.6251320838928223,1.3364394903182983
18634.881205658105,1.1196367740631104,1.2273094654083252,1.6249701976776123,1.335629940032959
18634.88320572043,1.118665337562561,1.2277952432632446,1.6246464252471924,1.3361157178878784
18634.885205782753,1.1194748878479004,1.228119134902954,1.6246464252471924,1.3361157178878784
18634.88720584508,1.119150996208191,1.2274714708328247,1.624322533607483,1.335468053817749
18634.889205907406,1.1197986602783203,1.2268238067626953,1.6236748695373535,1.335953712463379
18634.891205969732,1.1207702159881592,1.2274714708328247,1.624322533607483,1.335953712463379
18634.89320603206,1.1207702159881592,1.2276333570480347,1.6259416341781616,1.3369252681732178
18634.895206094385,1.1201225519180298,1.2277952432632446,1.6257797479629517,1.3370871543884277
18634.89720615671,1.121093988418579,1.2276333570480347,1.6244844198226929,1.3375729322433472
18634.899206219037,1.1204463243484497,1.228281021118164,1.6248083114624023,1.335953712463379
18634.901206281364,1.1202844381332397,1.2276333570480347,1.6244844198226929,1.3361157178878784
18634.90320634369,1.121093988418579,1.2271475791931152,1.6257797479629517,1.3366013765335083
18634.905206406016,1.1214178800582886,1.2273094654083252,1.6259416341781616,1.3361157178878784
18634.907206468342,1.1204463243484497,1.2276333570480347,1.6256178617477417,1.335953712463379
18634.90920653067,1.1215797662734985,1.2273094654083252,1.6261036396026611,1.3367632627487183
18634.911206592995,1.1231988668441772,1.2271475791931152,1.6269131898880005,1.3372490406036377
18634.91320665532,1.1227132081985474,1.2279571294784546,1.6257797479629517,1.3374109268188477
18634.915206717647,1.1227132081985474,1.228281021118164,1.6257797479629517,1.3375729322433472
18634.917206779974,1.1231988668441772,1.2276333570480347,1.62739896774292,1.3374109268188477
18634.9192068423,1.1225512027740479,1.2279571294784546,1.6278846263885498,1.3367632627487183
18634.921206904626,1.1217416524887085,1.228119134902954,1.6269131898880005,1.3366013765335083
18634.923206966952,1.1215797662734985,1.228119134902954,1.62739896774292,1.3366013765335083
18634.925207029275,1.122389316558838,1.2279571294784546,1.6275608539581299,1.3361157178878784
18634.9272070916,1.1219035387039185,1.2276333570480347,1.6267513036727905,1.3370871543884277
18634.929207153928,1.1231988668441772,1.2268238067626953,1.6257797479629517,1.337896704673767
18634.931207216254,1.1248180866241455,1.2269856929779053,1.626265525817871,1.3374109268188477
18634.93320727858,1.1235227584838867,1.2268238067626953,1.6259416341781616,1.3372490406036377
18634.935207340906,1.1231988668441772,1.2273094654083252,1.6256178617477417,1.3367632627487183
18634.937207403233,1.1235227584838867,1.2271475791931152,1.6249701976776123,1.3370871543884277
18634.93920746556,1.122389316558838,1.2274714708328247,1.6252940893173218,1.3364394903182983
18634.941207527885,1.121255874633789,1.2269856929779053,1.6246464252471924,1.335629940032959
18634.94320759021,1.1219035387039185,1.2271475791931152,1.6246464252471924,1.335791826248169
18634.945207652538,1.122389316558838,1.2276333570480347,1.6235129833221436,1.3364394903182983
18634.947207714864,1.121093988418579,1.2279571294784546,1.624160647392273,1.335953712463379
18634.94920777719,1.1209321022033691,1.2271475791931152,1.6246464252471924,1.3362776041030884
18634.951207839516,1.121255874633789,1.2268238067626953,1.6248083114624023,1.3364394903182983
18634.953207901843,1.1217416524887085,1.2263380289077759,1.624160647392273,1.3362776041030884
18634.95520796417,1.1217416524887085,1.2258522510528564,1.6235129833221436,1.3362776041030884
18634.957208026495,1.1227132081985474,1.225042700767517,1.6235129833221436,1.3364394903182983
18634.95920808882,1.1214178800582886,1.2255284786224365,1.624160647392273,1.335629940032959
18634.961208151148,1.1209321022033691,1.2264999151229858,1.6236748695373535,1.3353060483932495
18634.96320821347,1.121255874633789,1.2256903648376465,1.6235129833221436,1.3348203897476196
18634.965208275797,1.121093988418579,1.2263380289077759,1.6233510971069336,1.3353060483932495
18634.967208338123,1.1202844381332397,1.2263380289077759,1.6236748695373535,1.335629940032959
18634.96920840045,1.121093988418579,1.2268238067626953,1.6230272054672241,1.3364394903182983
18634.971208462775,1.122227430343628,1.2269856929779053,1.6233510971069336,1.335791826248169
18634.9732085251,1.1219035387039185,1.2266618013381958,1.624322533607483,1.3367632627487183
18634.975208587428,1.1214178800582886,1.2264999151229858,1.624160647392273,1.3366013765335083
18634.977208649754,1.1219035387039185,1.2263380289077759,1.6236748695373535,1.3369252681732178
18634.97920871208,1.1209321022033691,1.226176142692566,1.6235129833221436,1.3370871543884277
18634.981208774407,1.1197986602783203,1.2255284786224365,1.6225415468215942,1.3366013765335083
18634.983208836733,1.1204463243484497,1.2268238067626953,1.6223795413970947,1.335791826248169
18634.98520889906,1.1202844381332397,1.2264999151229858,1.623189091682434,1.335953712463379
18634.987208961385,1.1194748878479004,1.2256903648376465,1.6228653192520142,1.3348203897476196
18634.98920902371,1.1204463243484497,1.2256903648376465,1.6217318773269653,1.335791826248169
18634.991209086038,1.1215797662734985,1.2256903648376465,1.6217318773269653,1.335791826248169
18634.993209148364,1.1214178800582886,1.2255284786224365,1.6223795413970947,1.335629940032959
18634.99520921069,1.1206083297729492,1.2248808145523071,1.623189091682434,1.335629940032959
18634.997209273017,1.1214178800582886,1.2255284786224365,1.6236748695373535,1.335953712463379
18634.999209335343,1.1199606657028198,1.2256903648376465,1.6233510971069336,1.3351441621780396
18635.00120939767,1.1193130016326904,1.2242331504821777,1.6228653192520142,1.3346583843231201
18635.003209459996,1.1197986602783203,1.2245569229125977,1.6227034330368042,1.335629940032959
18635.00520952232,1.1197986602783203,1.2253665924072266,1.6223795413970947,1.335629940032959
18635.007209584644,1.1194748878479004,1.2253665924072266,1.6223795413970947,1.3348203897476196
18635.00920964697,1.1209321022033691,1.225204586982727,1.6225415468215942,1.335953712463379
18635.011209709297,1.1217416524887085,1.2258522510528564,1.6222176551818848,1.3348203897476196
18635.013209771623,1.1219035387039185,1.225204586982727,1.6228653192520142,1.3343346118927002
18635.01520983395,1.1214178800582886,1.2243950366973877,1.6230272054672241,1.3344964981079102
18635.017209896276,1.1215797662734985,1.2243950366973877,1.6228653192520142,1.3349822759628296
18635.019209958602,1.1199606657028198,1.2258522510528564,1.6227034330368042,1.3348203897476196
18635.02121002093,1.1194748878479004,1.2258522510528564,1.6227034330368042,1.3361157178878784
18635.023210083255,1.1199606657028198,1.225204586982727,1.6227034330368042,1.335629940032959
18635.02521014558,1.1201225519180298,1.2248808145523071,1.6238367557525635,1.335468053817749
18635.027210207907,1.1196367740631104,1.225204586982727,1.6233510971069336,1.335629940032959
18635.029210270233,1.121255874633789,1.2255284786224365,1.623189091682434,1.3369252681732178
18635.03121033256,1.122065544128418,1.226176142692566,1.6236748695373535,1.3366013765335083
18635.033210394886,1.122389316558838,1.226176142692566,1.6230272054672241,1.3369252681732178
18635.035210457212,1.1219035387039185,1.2258522510528564,1.6235129833221436,1.3374109268188477
18635.03721051954,1.122389316558838,1.2258522510528564,1.6236748695373535,1.3372490406036377
18635.039210581865,1.1209321022033691,1.226176142692566,1.623998761177063,1.3367632627487183
18635.04121064419,1.1206083297729492,1.2263380289077759,1.623998761177063,1.3364394903182983
18635.043210706513,1.1209321022033691,1.2271475791931152,1.624160647392273,1.3362776041030884
18635.04521076884,1.1209321022033691,1.2263380289077759,1.6251320838928223,1.3361157178878784
18635.047210831166,1.1204463243484497,1.226014256477356,1.6252940893173218,1.3351441621780396
18635.049210893492,1.121255874633789,1.2256903648376465,1.6236748695373535,1.3361157178878784
18635.05121095582,1.122065544128418,1.2253665924072266,1.6230272054672241,1.3369252681732178
18635.053211018145,1.121255874633789,1.2256903648376465,1.6233510971069336,1.3367632627487183
18635.05521108047,1.1217416524887085,1.226014256477356,1.624322533607483,1.3364394903182983
18635.057211142797,1.1225512027740479,1.2258522510528564,1.6248083114624023,1.3370871543884277
18635.059211205124,1.122065544128418,1.2255284786224365,1.624322533607483,1.3362776041030884
18635.06121126745,1.1214178800582886,1.225204586982727,1.6244844198226929,1.335953712463379
18635.063211329776,1.1219035387039185,1.2263380289077759,1.6252940893173218,1.3349822759628296
18635.065211392102,1.1228750944137573,1.226014256477356,1.6256178617477417,1.3353060483932495
18635.06721145443,1.122065544128418,1.2247189283370972,1.6256178617477417,1.335629940032959
18635.069211516755,1.1225512027740479,1.2248808145523071,1.626265525817871,1.335629940032959
18635.07121157908,1.122389316558838,1.2255284786224365,1.6252940893173218,1.3349822759628296
18635.073211641407,1.1225512027740479,1.2255284786224365,1.6259416341781616,1.335953712463379
18635.075211703734,1.1231988668441772,1.226014256477356,1.6256178617477417,1.3353060483932495
18635.07721176606,1.124656081199646,1.226176142692566,1.626427412033081,1.3366013765335083
18635.079211828386,1.1236846446990967,1.226014256477356,1.6272369623184204,1.3374109268188477
18635.081211890712,1.1231988668441772,1.2263380289077759,1.6267513036727905,1.3374109268188477
18635.083211953035,1.122389316558838,1.2266618013381958,1.6252940893173218,1.3374109268188477
18635.08521201536,1.122389316558838,1.2266618013381958,1.6259416341781616,1.3367632627487183
18635.087212077688,1.1219035387039185,1.2264999151229858,1.6254559755325317,1.335629940032959
18635.089212140014,1.122389316558838,1.2258522510528564,1.6261036396026611,1.3370871543884277
18635.09121220234,1.1231988668441772,1.226014256477356,1.626589298248291,1.3375729322433472
18635.093212264666,1.122389316558838,1.226014256477356,1.626265525817871,1.3370871543884277
18635.095212326993,1.1228750944137573,1.2271475791931152,1.626265525817871,1.3366013765335083
18635.09721238932,1.124494194984436,1.2277952432632446,1.626265525817871,1.335953712463379
18635.099212451645,1.1235227584838867,1.2277952432632446,1.6257797479629517,1.335629940032959
18635.10121251397,1.1225512027740479,1.2274714708328247,1.6257797479629517,1.3364394903182983
18635.103212576298,1.1225512027740479,1.2268238067626953,1.6249701976776123,1.3364394903182983
18635.105212638624,1.1225512027740479,1.2266618013381958,1.6254559755325317,1.335791826248169
18635.10721270095,1.1215797662734985,1.2266618013381958,1.6256178617477417,1.335629940032959
18635.109212763276,1.122389316558838,1.2266618013381958,1.6251320838928223,1.3364394903182983
18635.111212825603,1.1225512027740479,1.2264999151229858,1.6246464252471924,1.3364394903182983
18635.11321288793,1.1219035387039185,1.2263380289077759,1.6244844198226929,1.335629940032959
18635.115212950255,1.1214178800582886,1.2266618013381958,1.624160647392273,1.3351441621780396
18635.11721301258,1.1227132081985474,1.2255284786224365,1.624322533607483,1.3369252681732178
18635.119213074908,1.122389316558838,1.2248808145523071,1.624322533607483,1.3367632627487183
18635.12121313723,1.1214178800582886,1.2255284786224365,1.6248083114624023,1.3367632627487183
18635.123213199557,1.122227430343628,1.226014256477356,1.623998761177063,1.335629940032959
18635.125213261883,1.122227430343628,1.2264999151229858,1.6246464252471924,1.335953712463379
18635.12721332421,1.1207702159881592,1.2264999151229858,1.624322533607483,1.335791826248169
18635.129213386535,1.1215797662734985,1.226014256477356,1.6251320838928223,1.3362776041030884
18635.13121344886,1.122227430343628,1.2255284786224365,1.6249701976776123,1.3370871543884277
18635.133213511188,1.1217416524887085,1.2248808145523071,1.6252940893173218,1.3370871543884277
18635.135213573514,1.122227430343628,1.225204586982727,1.6254559755325317,1.3366013765335083
18635.13721363584,1.1233607530593872,1.2266618013381958,1.6257797479629517,1.3361157178878784
18635.139213698167,1.122389316558838,1.2256903648376465,1.626265525817871,1.3353060483932495
18635.141213760493,1.1214178800582886,1.226014256477356,1.6249701976776123,1.3353060483932495
18635.14321382282,1.121255874633789,1.226176142692566,1.6254559755325317,1.335629940032959
18635.145213885145,1.122389316558838,1.2256903648376465,1.6256178617477417,1.335791826248169
18635.14721394747,1.122389316558838,1.2256903648376465,1.626427412033081,1.3361157178878784
18635.149214009798,1.124494194984436,1.2263380289077759,1.626427412033081,1.3366013765335083
18635.151214072124,1.1251418590545654,1.2266618013381958,1.6269131898880005,1.3369252681732178
18635.15321413445,1.124656081199646,1.2255284786224365,1.626427412033081,1.3362776041030884
18635.155214196777,1.1241704225540161,1.2255284786224365,1.6251320838928223,1.3367632627487183
18635.157214259103,1.1254656314849854,1.225204586982727,1.6256178617477417,1.3362776041030884
18635.15921432143,1.124332308769226,1.226176142692566,1.6261036396026611,1.3353060483932495
18635.161214383756,1.124494194984436,1.226176142692566,1.6256178617477417,1.3351441621780396
18635.16321444608,1.1238465309143066,1.2264999151229858,1.626589298248291,1.335629940032959
18635.165214508404,1.1241704225540161,1.2256903648376465,1.6272369623184204,1.3364394903182983
18635.16721457073,1.1231988668441772,1.226176142692566,1.6272369623184204,1.3367632627487183
18635.169214633057,1.1235227584838867,1.226176142692566,1.626427412033081,1.3374109268188477
18635.171214695383,1.124332308769226,1.2264999151229858,1.626265525817871,1.3361157178878784
18635.17321475771,1.124656081199646,1.2273094654083252,1.6257797479629517,1.3351441621780396
18635.175214820036,1.1248180866241455,1.2264999151229858,1.6259416341781616,1.3353060483932495
18635.177214882362,1.1257895231246948,1.226176142692566,1.6267513036727905,1.3361157178878784
18635.17921494469,1.124494194984436,1.2268238067626953,1.6275608539581299,1.3366013765335083
18635.181215007015,1.1230369806289673,1.2264999151229858,1.62739896774292,1.3362776041030884
18635.18321506934,1.1233607530593872,1.2271475791931152,1.6275608539581299,1.3361157178878784
18635.185215131667,1.124656081199646,1.2268238067626953,1.6277227401733398,1.335629940032959
18635.187215193993,1.1233607530593872,1.226014256477356,1.6280465126037598,1.3353060483932495
18635.18921525632,1.1238465309143066,1.2258522510528564,1.6277227401733398,1.3364394903182983
18635.191215318646,1.124656081199646,1.2263380289077759,1.6277227401733398,1.3366013765335083
18635.193215380972,1.124494194984436,1.2264999151229858,1.6275608539581299,1.3367632627487183
18635.1952154433,1.124656081199646,1.2268238067626953,1.6277227401733398,1.3367632627487183
18635.197215505625,1.1259514093399048,1.2279571294784546,1.6288561820983887,1.3372490406036377
18635.19921556795,1.1240084171295166,1.2277952432632446,1.6291799545288086,1.3361157178878784
18635.201215630274,1.1236846446990967,1.2276333570480347,1.6285322904586792,1.335953712463379
18635.2032156926,1.124332308769226,1.2274714708328247,1.6288561820983887,1.3364394903182983
18635.205215754926,1.124494194984436,1.226176142692566,1.629503846168518,1.3362776041030884
18635.207215817252,1.124332308769226,1.2266618013381958,1.6286941766738892,1.335468053817749
18635.20921587958,1.1251418590545654,1.2264999151229858,1.6267513036727905,1.3361157178878784
18635.211215941905,1.1254656314849854,1.2256903648376465,1.626589298248291,1.3364394903182983
18635.21321600423,1.1253037452697754,1.2256903648376465,1.6269131898880005,1.3364394903182983
18635.215216066557,1.124494194984436,1.226176142692566,1.62739896774292,1.3364394903182983
18635.217216128884,1.1249799728393555,1.2258522510528564,1.6272369623184204,1.3361157178878784
18635.21921619121,1.1233607530593872,1.2256903648376465,1.6272369623184204,1.3349822759628296
18635.221216253536,1.1228750944137573,1.2247189283370972,1.6272369623184204,1.335468053817749
18635.223216315862,1.1228750944137573,1.225204586982727,1.6277227401733398,1.335468053817749
18635.22521637819,1.1236846446990967,1.2248808145523071,1.6275608539581299,1.335629940032959
18635.227216440515,1.122227430343628,1.225042700767517,1.6275608539581299,1.3351441621780396
18635.22921650284,1.1225512027740479,1.225204586982727,1.6270750761032104,1.3348203897476196
18635.231216565167,1.1233607530593872,1.2255284786224365,1.626589298248291,1.3351441621780396
18635.233216627494,1.1227132081985474,1.2255284786224365,1.6270750761032104,1.3351441621780396
18635.23521668982,1.122389316558838,1.2247189283370972,1.6277227401733398,1.3348203897476196
18635.237216752146,1.1235227584838867,1.2248808145523071,1.62739896774292,1.3349822759628296
18635.239216814472,1.1227132081985474,1.2253665924072266,1.6261036396026611,1.3346583843231201
18635.241216876795,1.1219035387039185,1.226176142692566,1.6252940893173218,1.3343346118927002
18635.24321693912,1.122389316558838,1.2266618013381958,1.6267513036727905,1.3341727256774902
18635.245217001448,1.1217416524887085,1.226176142692566,1.6269131898880005,1.3332011699676514
18635.247217063774,1.1209321022033691,1.226176142692566,1.626589298248291,1.332229733467102
18635.2492171261,1.1217416524887085,1.2263380289077759,1.6270750761032104,1.3340108394622803
18635.251217188426,1.1225512027740479,1.2263380289077759,1.6272369623184204,1.3340108394622803
18635.253217250753,1.122065544128418,1.2255284786224365,1.6269131898880005,1.3338488340377808
18635.25521731308,1.1217416524887085,1.225042700767517,1.6272369623184204,1.3346583843231201
18635.257217375405,1.1231988668441772,1.2258522510528564,1.6269131898880005,1.3349822759628296
18635.25921743773,1.1230369806289673,1.2255284786224365,1.6267513036727905,1.3335250616073608
18635.261217500058,1.1228750944137573,1.2253665924072266,1.62739896774292,1.3335250616073608
18635.263217562384,1.1230369806289673,1.2243950366973877,1.6278846263885498,1.3341727256774902
18635.26521762471,1.1233607530593872,1.2243950366973877,1.6275608539581299,1.3346583843231201
18635.267217687036,1.1225512027740479,1.2237473726272583,1.6277227401733398,1.3335250616073608
18635.269217749363,1.1227132081985474,1.225204586982727,1.6282085180282593,1.3341727256774902
18635.27121781169,1.1230369806289673,1.2255284786224365,1.6285322904586792,1.3348203897476196
18635.273217874015,1.1231988668441772,1.2253665924072266,1.6278846263885498,1.3353060483932495
18635.27521793634,1.1236846446990967,1.2253665924072266,1.6282085180282593,1.3351441621780396
18635.277217998668,1.1249799728393555,1.2255284786224365,1.6290180683135986,1.3351441621780396
18635.27921806099,1.1240084171295166,1.2255284786224365,1.6293418407440186,1.3340108394622803
18635.281218123317,1.1235227584838867,1.2263380289077759,1.6293418407440186,1.3332011699676514
18635.283218185643,1.1235227584838867,1.2264999151229858,1.6290180683135986,1.3338488340377808
18635.28521824797,1.1227132081985474,1.2253665924072266,1.6290180683135986,1.3335250616073608
18635.287218310295,1.1225512027740479,1.2253665924072266,1.6288561820983887,1.3332011699676514
18635.28921837262,1.1233607530593872,1.225204586982727,1.6283704042434692,1.3343346118927002
18635.291218434948,1.1240084171295166,1.226014256477356,1.6286941766738892,1.3344964981079102
18635.293218497274,1.124332308769226,1.2255284786224365,1.6283704042434692,1.3336869478225708
18635.2952185596,1.1248180866241455,1.226176142692566,1.6291799545288086,1.3344964981079102
18635.297218621927,1.1251418590545654,1.2263380289077759,1.6293418407440186,1.3346583843231201
18635.299218684253,1.1238465309143066,1.226014256477356,1.6293418407440186,1.3335250616073608
18635.30121874658,1.1231988668441772,1.226014256477356,1.629503846168518,1.3336869478225708
18635.303218808906,1.1240084171295166,1.2269856929779053,1.6304752826690674,1.3344964981079102
18635.30521887123,1.124494194984436,1.2258522510528564,1.6301515102386475,1.3343346118927002
18635.307218933558,1.1238465309143066,1.2253665924072266,1.6301515102386475,1.3328773975372314
18635.309218995884,1.1249799728393555,1.225204586982727,1.6293418407440186,1.3335250616073608
18635.31121905821,1.1256276369094849,1.2248808145523071,1.6291799545288086,1.3335250616073608
18635.313219120537,1.124332308769226,1.2248808145523071,1.629665732383728,1.3330392837524414
18635.315219182863,1.124332308769226,1.225204586982727,1.629665732383728,1.3338488340377808
18635.31721924519,1.1251418590545654,1.226176142692566,1.6306371688842773,1.3338488340377808
18635.319219307516,1.1241704225540161,1.226176142692566,1.6304752826690674,1.3333631753921509
18635.32121936984,1.1248180866241455,1.2256903648376465,1.6304752826690674,1.3330392837524414
18635.323219432164,1.1248180866241455,1.2247189283370972,1.6306371688842773,1.332391619682312
18635.32521949449,1.1251418590545654,1.226014256477356,1.6307990550994873,1.332391619682312
18635.327219556817,1.1235227584838867,1.2255284786224365,1.6301515102386475,1.3332011699676514
18635.329219619143,1.1238465309143066,1.2255284786224365,1.629503846168518,1.3336869478225708
18635.33121968147,1.1241704225540161,1.2247189283370972,1.629989504814148,1.3338488340377808
18635.333219743796,1.1241704225540161,1.2258522510528564,1.629989504814148,1.3332011699676514
18635.335219806122,1.124332308769226,1.226014256477356,1.6301515102386475,1.3332011699676514
18635.33721986845,1.1254656314849854,1.2255284786224365,1.629989504814148,1.3336869478225708
18635.339219930775,1.1249799728393555,1.225204586982727,1.6306371688842773,1.332391619682312
18635.3412199931,1.1238465309143066,1.2258522510528564,1.6309610605239868,1.332229733467102
18635.343220055427,1.1241704225540161,1.225204586982727,1.6311229467391968,1.3328773975372314
18635.345220117753,1.1238465309143066,1.2247189283370972,1.6319324970245361,1.332391619682312
18635.34722018008,1.1228750944137573,1.2245569229125977,1.6307990550994873,1.3319058418273926
18635.349220242406,1.1236846446990967,1.2247189283370972,1.6306371688842773,1.3330392837524414
18635.351220304732,1.1249799728393555,1.2256903648376465,1.6316087245941162,1.3333631753921509
18635.35322036706,1.1253037452697754,1.2253665924072266,1.6317706108093262,1.3327155113220215
18635.355220429385,1.1248180866241455,1.2256903648376465,1.6319324970245361,1.3328773975372314
18635.35722049171,1.1259514093399048,1.226014256477356,1.6312848329544067,1.3332011699676514
18635.359220554034,1.1241704225540161,1.2255284786224365,1.6327420473098755,1.3327155113220215
18635.36122061636,1.1235227584838867,1.225204586982727,1.633065938949585,1.3332011699676514
18635.363220678686,1.124332308769226,1.2245569229125977,1.6327420473098755,1.3328773975372314
18635.365220741012,1.1236846446990967,1.2253665924072266,1.6311229467391968,1.3335250616073608
18635.36722080334,1.1231988668441772,1.2248808145523071,1.6309610605239868,1.3327155113220215
18635.369220865665,1.124494194984436,1.225204586982727,1.6311229467391968,1.3330392837524414
18635.37122092799,1.1241704225540161,1.225042700767517,1.6319324970245361,1.3328773975372314
18635.373220990317,1.1240084171295166,1.2256903648376465,1.6319324970245361,1.3332011699676514
18635.375221052644,1.1240084171295166,1.225204586982727,1.632094383239746,1.3332011699676514
18635.37722111497,1.1257895231246948,1.225042700767517,1.6314467191696167,1.3332011699676514
18635.379221177296,1.1233607530593872,1.2253665924072266,1.6317706108093262,1.3328773975372314
18635.381221239622,1.1233607530593872,1.225042700767517,1.6311229467391968,1.3332011699676514
18635.38322130195,1.1236846446990967,1.2253665924072266,1.6316087245941162,1.332391619682312
18635.385221364275,1.1238465309143066,1.225204586982727,1.6309610605239868,1.332067847251892
18635.3872214266,1.1227132081985474,1.2256903648376465,1.6304752826690674,1.3310962915420532
18635.389221488927,1.1228750944137573,1.2253665924072266,1.6307990550994873,1.3317439556121826
18635.391221551254,1.1231988668441772,1.225204586982727,1.6314467191696167,1.332553505897522
18635.39322161358,1.1240084171295166,1.225204586982727,1.6322563886642456,1.3330392837524414
18635.395221675906,1.1236846446990967,1.2253665924072266,1.6319324970245361,1.3327155113220215
18635.397221738232,1.124656081199646,1.226014256477356,1.6322563886642456,1.3327155113220215
18635.399221800555,1.1233607530593872,1.226014256477356,1.6319324970245361,1.332553505897522
18635.40122186288,1.1235227584838867,1.2253665924072266,1.6314467191696167,1.3336869478225708
18635.403221925208,1.124656081199646,1.2256903648376465,1.6319324970245361,1.332553505897522
18635.405221987534,1.1240084171295166,1.2255284786224365,1.6319324970245361,1.332391619682312
18635.40722204986,1.1225512027740479,1.225042700767517,1.6311229467391968,1.3317439556121826
18635.409222112186,1.1240084171295166,1.2255284786224365,1.6312848329544067,1.3327155113220215
18635.411222174513,1.1241704225540161,1.2256903648376465,1.6316087245941162,1.332391619682312
18635.41322223684,1.1240084171295166,1.225204586982727,1.6307990550994873,1.332553505897522
18635.415222299165,1.1235227584838867,1.2256903648376465,1.6307990550994873,1.332391619682312
18635.41722236149,1.124494194984436,1.2258522510528564,1.6319324970245361,1.3335250616073608
18635.419222423818,1.1236846446990967,1.2253665924072266,1.6319324970245361,1.332229733467102
18635.421222486144,1.1227132081985474,1.225204586982727,1.6317706108093262,1.3319058418273926
18635.42322254847,1.1225512027740479,1.225204586982727,1.6312848329544067,1.3314201831817627
18635.425222610796,1.122065544128418,1.226014256477356,1.6325801610946655,1.3306106328964233
18635.427222673123,1.122065544128418,1.2269856929779053,1.6324182748794556,1.3312582969665527
18635.42922273545,1.1231988668441772,1.2256903648376465,1.6312848329544067,1.332391619682312
18635.431222797775,1.1230369806289673,1.2255284786224365,1.6314467191696167,1.3319058418273926
18635.4332228601,1.1228750944137573,1.2256903648376465,1.6314467191696167,1.3319058418273926
18635.435222922428,1.1238465309143066,1.2253665924072266,1.6317706108093262,1.3317439556121826
18635.437222984754,1.124494194984436,1.2258522510528564,1.6309610605239868,1.3319058418273926
18635.439223047077,1.1231988668441772,1.2256903648376465,1.6314467191696167,1.3315820693969727
18635.441223109403,1.122389316558838,1.2255284786224365,1.6312848329544067,1.3315820693969727
18635.44322317173,1.1227132081985474,1.2245569229125977,1.6309610605239868,1.3317439556121826
18635.445223234055,1.1225512027740479,1.225042700767517,1.6316087245941162,1.3310962915420532
18635.44722329638,1.121255874633789,1.2243950366973877,1.6324182748794556,1.3307725191116333
18635.449223358708,1.122389316558838,1.2242331504821777,1.6327420473098755,1.3310962915420532
18635.451223421034,1.1238465309143066,1.2237473726272583,1.632094383239746,1.3309344053268433
18635.45322348336,1.1235227584838867,1.2239093780517578,1.6312848329544067,1.3312582969665527
18635.455223545687,1.1225512027740479,1.2247189283370972,1.6312848329544067,1.3310962915420532
18635.457223608013,1.1240084171295166,1.225204586982727,1.6306371688842773,1.3315820693969727
18635.45922367034,1.1241704225540161,1.2242331504821777,1.6319324970245361,1.3314201831817627
18635.461223732666,1.1231988668441772,1.2245569229125977,1.6319324970245361,1.3317439556121826
18635.46322379499,1.1236846446990967,1.225204586982727,1.6325801610946655,1.3319058418273926
18635.465223857318,1.1241704225540161,1.2256903648376465,1.6327420473098755,1.332391619682312
18635.467223919644,1.1227132081985474,1.226176142692566,1.6322563886642456,1.3314201831817627
18635.46922398197,1.124332308769226,1.2269856929779053,1.6329039335250854,1.3319058418273926
18635.471224044297,1.124332308769226,1.2271475791931152,1.6345231533050537,1.3312582969665527
18635.473224106623,1.1241704225540161,1.2271475791931152,1.6343612670898438,1.3309344053268433
18635.47522416895,1.1240084171295166,1.2266618013381958,1.6350089311599731,1.3307725191116333
18635.477224231276,1.1248180866241455,1.2268238067626953,1.6350089311599731,1.3315820693969727
18635.4792242936,1.1233607530593872,1.2268238067626953,1.6350089311599731,1.3317439556121826
18635.481224355924,1.1235227584838867,1.2258522510528564,1.6346850395202637,1.332067847251892
18635.48322441825,1.1238465309143066,1.2258522510528564,1.6345231533050537,1.3319058418273926
18635.485224480577,1.1238465309143066,1.2263380289077759,1.6340373754501343,1.3317439556121826
18635.487224542903,1.122227430343628,1.2266618013381958,1.6341992616653442,1.3314201831817627
18635.48922460523,1.1231988668441772,1.2256903648376465,1.6345231533050537,1.3327155113220215
18635.491224667556,1.124332308769226,1.226014256477356,1.6340373754501343,1.332229733467102
18635.493224729882,1.124332308769226,1.2264999151229858,1.6341992616653442,1.3319058418273926
18635.49522479221,1.1251418590545654,1.2264999151229858,1.6345231533050537,1.3310962915420532
18635.497224854535,1.1254656314849854,1.2271475791931152,1.635332703590393,1.3315820693969727
18635.49922491686,1.124494194984436,1.2269856929779053,1.6359803676605225,1.3310962915420532
18635.501224979187,1.1230369806289673,1.2268238067626953,1.635656476020813,1.3312582969665527
18635.503225041513,1.1231988668441772,1.2266618013381958,1.6348469257354736,1.3314201831817627
18635.50522510384,1.1236846446990967,1.2268238067626953,1.6343612670898438,1.3312582969665527
18635.507225166166,1.1227132081985474,1.2264999151229858,1.6350089311599731,1.3315820693969727
18635.509225228492,1.1238465309143066,1.2266618013381958,1.635656476020813,1.332067847251892
18635.51122529082,1.124656081199646,1.2274714708328247,1.635656476020813,1.332067847251892
18635.513225353145,1.1249799728393555,1.2273094654083252,1.6361422538757324,1.332391619682312
18635.51522541547,1.1254656314849854,1.2269856929779053,1.635494589805603,1.332553505897522
18635.517225477794,1.1257895231246948,1.2268238067626953,1.635332703590393,1.3328773975372314
18635.51922554012,1.1236846446990967,1.2274714708328247,1.635332703590393,1.332553505897522
18635.521225602446,1.124494194984436,1.2279571294784546,1.6358184814453125,1.332229733467102
18635.523225664772,1.1240084171295166,1.2277952432632446,1.635656476020813,1.332391619682312
18635.5252257271,1.124494194984436,1.2273094654083252,1.635170817375183,1.3317439556121826
18635.527225789425,1.1236846446990967,1.2269856929779053,1.6341992616653442,1.3314201831817627
18635.52922585175,1.124494194984436,1.2269856929779053,1.6345231533050537,1.3327155113220215
18635.531225914077,1.1253037452697754,1.2273094654083252,1.6345231533050537,1.3319058418273926
18635.533225976404,1.1253037452697754,1.2274714708328247,1.635332703590393,1.3315820693969727
18635.53522603873,1.124656081199646,1.2277952432632446,1.6358184814453125,1.332391619682312
18635.537226101056,1.1257895231246948,1.2274714708328247,1.6363041400909424,1.3327155113220215
18635.539226163382,1.1248180866241455,1.2271475791931152,1.6358184814453125,1.3315820693969727
18635.54122622571,1.1236846446990967,1.2268238067626953,1.635656476020813,1.3319058418273926
18635.543226288035,1.1236846446990967,1.2269856929779053,1.635332703590393,1.3312582969665527
18635.54522635036,1.1236846446990967,1.2273094654083252,1.635170817375183,1.3306106328964233
18635.547226412687,1.1219035387039185,1.226176142692566,1.6346850395202637,1.3309344053268433
18635.549226475014,1.1230369806289673,1.226176142692566,1.6346850395202637,1.332229733467102
18635.55122653734,1.1230369806289673,1.226176142692566,1.6348469257354736,1.3315820693969727
18635.553226599666,1.1231988668441772,1.2263380289077759,1.6345231533050537,1.3312582969665527
18635.555226661992,1.1227132081985474,1.2268238067626953,1.6335515975952148,1.3310962915420532
18635.557226724315,1.1240084171295166,1.2271475791931152,1.633065938949585,1.3315820693969727
18635.55922678664,1.1228750944137573,1.2271475791931152,1.6345231533050537,1.3317439556121826
18635.561226848968,1.1231988668441772,1.2269856929779053,1.6340373754501343,1.3309344053268433
18635.563226911294,1.1235227584838867,1.2269856929779053,1.6327420473098755,1.330124855041504
18635.56522697362,1.1225512027740479,1.2269856929779053,1.6333897113800049,1.3309344053268433
18635.567227035946,1.1202844381332397,1.2264999151229858,1.6325801610946655,1.330124855041504
18635.569227098273,1.122227430343628,1.2264999151229858,1.6324182748794556,1.3315820693969727
18635.5712271606,1.1231988668441772,1.2269856929779053,1.6327420473098755,1.3319058418273926
18635.573227222925,1.1230369806289673,1.2264999151229858,1.6325801610946655,1.3307725191116333
18635.57522728525,1.122227430343628,1.2258522510528564,1.6322563886642456,1.3302867412567139
18635.577227347578,1.1228750944137573,1.2258522510528564,1.6324182748794556,1.3310962915420532
18635.579227409904,1.1214178800582886,1.2256903648376465,1.6327420473098755,1.3302867412567139
18635.58122747223,1.121093988418579,1.225042700767517,1.633065938949585,1.3304486274719238
18635.583227534556,1.1214178800582886,1.2256903648376465,1.6324182748794556,1.3302867412567139
18635.585227596883,1.1204463243484497,1.2263380289077759,1.6327420473098755,1.330124855041504
18635.58722765921,1.118503451347351,1.2258522510528564,1.6327420473098755,1.329962968826294
18635.589227721535,1.1197986602783203,1.225204586982727,1.6324182748794556,1.3304486274719238
18635.59122778386,1.1207702159881592,1.226176142692566,1.6317706108093262,1.3310962915420532
18635.593227846188,1.1202844381332397,1.2269856929779053,1.6314467191696167,1.3312582969665527
18635.595227908514,1.1206083297729492,1.2269856929779053,1.632094383239746,1.3309344053268433
18635.597227970837,1.1219035387039185,1.2266618013381958,1.6324182748794556,1.3315820693969727
18635.599228033163,1.1206083297729492,1.2273094654083252,1.6322563886642456,1.3307725191116333
18635.60122809549,1.1202844381332397,1.2269856929779053,1.6325801610946655,1.3302867412567139
18635.603228157815,1.1206083297729492,1.2264999151229858,1.633065938949585,1.3294771909713745
18635.60522822014,1.1197986602783203,1.226176142692566,1.6333897113800049,1.3294771909713745
18635.607228282468,1.1194748878479004,1.226176142692566,1.633065938949585,1.3298009634017944
18635.609228344794,1.121093988418579,1.2269856929779053,1.6329039335250854,1.3307725191116333
18635.61122840712,1.121255874633789,1.2269856929779053,1.633065938949585,1.330124855041504
18635.613228469447,1.1217416524887085,1.2268238067626953,1.6324182748794556,1.3302867412567139
18635.615228531773,1.121093988418579,1.2269856929779053,1.6338754892349243,1.3304486274719238
18635.6172285941,1.122227430343628,1.2264999151229858,1.6346850395202637,1.3307725191116333
18635.619228656426,1.1206083297729492,1.226176142692566,1.6343612670898438,1.3307725191116333
18635.62122871875,1.1206083297729492,1.226176142692566,1.6343612670898438,1.3302867412567139
18635.623228781078,1.121093988418579,1.2268238067626953,1.6350089311599731,1.3304486274719238
18635.625228843404,1.121255874633789,1.2271475791931152,1.635656476020813,1.3310962915420532
18635.62722890573,1.1207702159881592,1.2266618013381958,1.635656476020813,1.3312582969665527
18635.629228968057,1.1225512027740479,1.2269856929779053,1.6341992616653442,1.3309344053268433
18635.631229030383,1.1230369806289673,1.2266618013381958,1.635170817375183,1.330124855041504
18635.63322909271,1.122389316558838,1.2277952432632446,1.635656476020813,1.330124855041504
18635.635229155036,1.1225512027740479,1.2277952432632446,1.6348469257354736,1.3310962915420532
18635.63722921736,1.1235227584838867,1.2271475791931152,1.635332703590393,1.3314201831817627
18635.639229279685,1.122065544128418,1.2266618013381958,1.635494589805603,1.3302867412567139
18635.64122934201,1.122065544128418,1.2273094654083252,1.635656476020813,1.3306106328964233
18635.643229404337,1.1228750944137573,1.2269856929779053,1.635332703590393,1.3309344053268433
18635.645229466663,1.1235227584838867,1.226176142692566,1.635656476020813,1.3314201831817627
18635.64722952899,1.1235227584838867,1.226014256477356,1.636466145515442,1.3310962915420532
18635.649229591316,1.124656081199646,1.2274714708328247,1.6366280317306519,1.3310962915420532
18635.651229653642,1.1248180866241455,1.2266618013381958,1.6366280317306519,1.3317439556121826
18635.65322971597,1.124656081199646,1.2266618013381958,1.6359803676605225,1.3315820693969727
18635.655229778295,1.1248180866241455,1.2277952432632446,1.636466145515442,1.3317439556121826
18635.65722984062,1.1249799728393555,1.2273094654083252,1.6375994682312012,1.3317439556121826
18635.659229902947,1.1235227584838867,1.2271475791931152,1.6379233598709106,1.3312582969665527
18635.661229965273,1.1233607530593872,1.2279571294784546,1.6374375820159912,1.3314201831817627
18635.6632300276,1.1236846446990967,1.2279571294784546,1.6361422538757324,1.3315820693969727
18635.665230089926,1.1230369806289673,1.228119134902954,1.6363041400909424,1.3310962915420532
18635.667230152252,1.122389316558838,1.2279571294784546,1.6359803676605225,1.3309344053268433
18635.66923021458,1.1231988668441772,1.2279571294784546,1.635332703590393,1.3307725191116333
18635.671230276905,1.1236846446990967,1.228281021118164,1.6350089311599731,1.3315820693969727
18635.67323033923,1.1238465309143066,1.228442907333374,1.635170817375183,1.3312582969665527
18635.675230401554,1.1235227584838867,1.228119134902954,1.635332703590393,1.3312582969665527
18635.67723046388,1.1240084171295166,1.2269856929779053,1.635494589805603,1.3317439556121826
18635.679230526206,1.1228750944137573,1.226176142692566,1.635332703590393,1.3315820693969727
18635.681230588532,1.1228750944137573,1.2274714708328247,1.635656476020813,1.3310962915420532
18635.68323065086,1.1230369806289673,1.228604793548584,1.635170817375183,1.3310962915420532
18635.685230713185,1.1227132081985474,1.228119134902954,1.635170817375183,1.3306106328964233
18635.68723077551,1.1217416524887085,1.2276333570480347,1.6345231533050537,1.330124855041504
18635.689230837837,1.1225512027740479,1.2277952432632446,1.6340373754501343,1.3310962915420532
18635.691230900164,1.1225512027740479,1.2276333570480347,1.6338754892349243,1.3310962915420532
18635.69323096249,1.122389316558838,1.2276333570480347,1.6341992616653442,1.3307725191116333
18635.695231024816,1.1219035387039185,1.2279571294784546,1.6337136030197144,1.3304486274719238
18635.697231087142,1.1225512027740479,1.2271475791931152,1.6346850395202637,1.3314201831817627
18635.69923114947,1.121255874633789,1.2273094654083252,1.6345231533050537,1.3304486274719238
18635.701231211795,1.1206083297729492,1.2273094654083252,1.6335515975952148,1.3302867412567139
18635.70323127412,1.1202844381332397,1.2269856929779053,1.6335515975952148,1.329962968826294
18635.705231336447,1.1204463243484497,1.2264999151229858,1.6333897113800049,1.330124855041504
18635.707231398774,1.1193130016326904,1.2266618013381958,1.633065938949585,1.3304486274719238
18635.7092314611,1.1204463243484497,1.2269856929779053,1.633227825164795,1.330124855041504
18635.711231523426,1.121255874633789,1.2274714708328247,1.6324182748794556,1.3307725191116333
18635.713231585753,1.1209321022033691,1.2274714708328247,1.6325801610946655,1.3306106328964233
18635.71523164808,1.121093988418579,1.2274714708328247,1.6319324970245361,1.3307725191116333
18635.7172317104,1.122065544128418,1.2266618013381958,1.6322563886642456,1.3309344053268433
18635.719231772728,1.121255874633789,1.2268238067626953,1.6337136030197144,1.3309344053268433
18635.721231835054,1.1204463243484497,1.2273094654083252,1.633227825164795,1.3307725191116333
18635.72323189738,1.1199606657028198,1.2271475791931152,1.633227825164795,1.3307725191116333
18635.725231959706,1.121255874633789,1.2264999151229858,1.6340373754501343,1.3314201831817627
18635.727232022033,1.1204463243484497,1.2274714708328247,1.6345231533050537,1.329962968826294
18635.72923208436,1.1209321022033691,1.2271475791931152,1.6340373754501343,1.3309344053268433
18635.731232146685,1.1214178800582886,1.2273094654083252,1.6338754892349243,1.3315820693969727
18635.73323220901,1.1214178800582886,1.2274714708328247,1.633065938949585,1.3312582969665527
18635.735232271338,1.1219035387039185,1.2279571294784546,1.6333897113800049,1.3310962915420532
18635.737232333664,1.1235227584838867,1.2269856929779053,1.6338754892349243,1.3312582969665527
18635.73923239599,1.1228750944137573,1.2269856929779053,1.6350089311599731,1.3309344053268433
18635.741232458317,1.1217416524887085,1.2273094654083252,1.6358184814453125,1.3309344053268433
18635.743232520643,1.122065544128418,1.2276333570480347,1.6350089311599731,1.3314201831817627
18635.74523258297,1.122227430343628,1.2274714708328247,1.6346850395202637,1.3315820693969727
18635.747232645295,1.1215797662734985,1.2279571294784546,1.6359803676605225,1.3310962915420532
18635.74923270762,1.1228750944137573,1.2279571294784546,1.635494589805603,1.3319058418273926
18635.751232769948,1.1240084171295166,1.2276333570480347,1.6350089311599731,1.3319058418273926
18635.753232832274,1.1233607530593872,1.2276333570480347,1.635332703590393,1.3319058418273926
18635.755232894597,1.1230369806289673,1.228281021118164,1.6346850395202637,1.332229733467102
18635.757232956923,1.124332308769226,1.2279571294784546,1.6345231533050537,1.332553505897522
18635.75923301925,1.1238465309143066,1.2279571294784546,1.6358184814453125,1.3314201831817627
18635.761233081575,1.1238465309143066,1.2273094654083252,1.6359803676605225,1.3309344053268433
18635.7632331439,1.1228750944137573,1.2273094654083252,1.6363041400909424,1.3304486274719238
18635.765233206228,1.1240084171295166,1.228119134902954,1.6358184814453125,1.3304486274719238
18635.767233268554,1.122389316558838,1.228119134902954,1.6361422538757324,1.3302867412567139
18635.76923333088,1.1236846446990967,1.2274714708328247,1.635656476020813,1.3317439556121826
18635.771233393207,1.1241704225540161,1.2266618013381958,1.6350089311599731,1.3319058418273926
18635.773233455533,1.1240084171295166,1.226014256477356,1.6350089311599731,1.3307725191116333
18635.77523351786,1.1233607530593872,1.2263380289077759,1.635656476020813,1.3315820693969727
18635.777233580186,1.1241704225540161,1.2264999151229858,1.6350089311599731,1.332391619682312
18635.779233642512,1.1227132081985474,1.226014256477356,1.6341992616653442,1.3319058418273926
18635.781233704838,1.1228750944137573,1.2263380289077759,1.633227825164795,1.3315820693969727
18635.783233767164,1.1230369806289673,1.2271475791931152,1.6337136030197144,1.332553505897522
18635.78523382949,1.1231988668441772,1.2274714708328247,1.6350089311599731,1.332067847251892
18635.787233891817,1.1228750944137573,1.2269856929779053,1.635170817375183,1.3309344053268433
18635.789233954143,1.1241704225540161,1.226014256477356,1.6348469257354736,1.3307725191116333
18635.79123401647,1.124656081199646,1.225204586982727,1.6350089311599731,1.3315820693969727
18635.793234078796,1.124656081199646,1.2255284786224365,1.6346850395202637,1.3317439556121826
18635.79523414112,1.1248180866241455,1.2258522510528564,1.6333897113800049,1.332391619682312
18635.797234203445,1.1253037452697754,1.226014256477356,1.6333897113800049,1.3314201831817627
18635.79923426577,1.1235227584838867,1.226014256477356,1.6337136030197144,1.330124855041504
18635.801234328097,1.1230369806289673,1.2263380289077759,1.6341992616653442,1.3304486274719238
18635.803234390423,1.1233607530593872,1.226014256477356,1.6341992616653442,1.330124855041504
18635.80523445275,1.1231988668441772,1.2256903648376465,1.6337136030197144,1.3307725191116333
18635.807234515076,1.122389316558838,1.2255284786224365,1.633227825164795,1.3298009634017944
18635.809234577402,1.1235227584838867,1.2258522510528564,1.6335515975952148,1.329962968826294
18635.81123463973,1.1238465309143066,1.2263380289077759,1.633227825164795,1.330124855041504
18635.813234702055,1.1235227584838867,1.2263380289077759,1.6329039335250854,1.3294771909713745
18635.81523476438,1.1236846446990967,1.2263380289077759,1.6324182748794556,1.3294771909713745
18635.817234826707,1.1249799728393555,1.2264999151229858,1.6316087245941162,1.3302867412567139
18635.819234889033,1.1231988668441772,1.2256903648376465,1.6309610605239868,1.329962968826294
18635.82123495136,1.1219035387039185,1.225204586982727,1.6314467191696167,1.3296390771865845
18635.823235013686,1.1217416524887085,1.2248808145523071,1.6312848329544067,1.3291534185409546
18635.825235076012,1.1214178800582886,1.2247189283370972,1.6309610605239868,1.3291534185409546
18635.82723513834,1.1193130016326904,1.2247189283370972,1.6316087245941162,1.3302867412567139
18635.829235200665,1.1207702159881592,1.2245569229125977,1.6314467191696167,1.3309344053268433
18635.83123526299,1.121255874633789,1.2255284786224365,1.6306371688842773,1.3309344053268433
18635.833235325314,1.1209321022033691,1.226014256477356,1.6301515102386475,1.330124855041504
18635.83523538764,1.1202844381332397,1.2256903648376465,1.6307990550994873,1.330124855041504
18635.837235449966,1.1214178800582886,1.2256903648376465,1.6306371688842773,1.3304486274719238
18635.839235512292,1.1193130016326904,1.2253665924072266,1.629503846168518,1.329962968826294
18635.84123557462,1.118665337562561,1.2255284786224365,1.6291799545288086,1.330124855041504
18635.843235636945,1.1194748878479004,1.2255284786224365,1.6283704042434692,1.329962968826294
18635.84523569927,1.1194748878479004,1.225204586982727,1.6280465126037598,1.3296390771865845
18635.847235761597,1.1183414459228516,1.225042700767517,1.6283704042434692,1.3296390771865845
18635.849235823924,1.1196367740631104,1.226176142692566,1.6286941766738892,1.329962968826294
18635.85123588625,1.1197986602783203,1.2255284786224365,1.6288561820983887,1.3302867412567139
18635.853235948576,1.119150996208191,1.2248808145523071,1.6285322904586792,1.3304486274719238
18635.855236010902,1.1194748878479004,1.2248808145523071,1.6288561820983887,1.3304486274719238
18635.85723607323,1.1202844381332397,1.2248808145523071,1.6288561820983887,1.3309344053268433
18635.859236135555,1.118665337562561,1.2258522510528564,1.6286941766738892,1.3302867412567139
18635.86123619788,1.118989109992981,1.2255284786224365,1.6290180683135986,1.3302867412567139
18635.863236260207,1.1194748878479004,1.2242331504821777,1.6286941766738892,1.330124855041504
18635.865236322534,1.118665337562561,1.2247189283370972,1.629503846168518,1.3298009634017944
18635.86723638486,1.1168842315673828,1.2256903648376465,1.629665732383728,1.3291534185409546
18635.869236447186,1.118827223777771,1.226176142692566,1.629665732383728,1.3304486274719238
18635.871236509513,1.1199606657028198,1.2263380289077759,1.629827618598938,1.3309344053268433
18635.87323657184,1.1204463243484497,1.226176142692566,1.6307990550994873,1.3302867412567139
18635.87523663416,1.121255874633789,1.2256903648376465,1.6316087245941162,1.3304486274719238
18635.877236696488,1.1217416524887085,1.226014256477356,1.6307990550994873,1.3307725191116333
18635.879236758814,1.1206083297729492,1.2258522510528564,1.6306371688842773,1.3302867412567139
18635.88123682114,1.1207702159881592,1.2266618013381958,1.6306371688842773,1.3296390771865845
18635.883236883466,1.1214178800582886,1.2266618013381958,1.6317706108093262,1.3298009634017944
18635.885236945793,1.1214178800582886,1.2263380289077759,1.6319324970245361,1.3298009634017944
18635.88723700812,1.121255874633789,1.225042700767517,1.633065938949585,1.3296390771865845
18635.889237070445,1.1231988668441772,1.2247189283370972,1.6327420473098755,1.3312582969665527
18635.89123713277,1.1238465309143066,1.2258522510528564,1.6333897113800049,1.3315820693969727
18635.893237195098,1.1241704225540161,1.2258522510528564,1.6338754892349243,1.3315820693969727
18635.895237257424,1.1248180866241455,1.2256903648376465,1.6343612670898438,1.3314201831817627
18635.89723731975,1.1264371871948242,1.2258522510528564,1.635332703590393,1.3315820693969727
18635.899237382077,1.1249799728393555,1.2256903648376465,1.635332703590393,1.3310962915420532
18635.901237444403,1.1241704225540161,1.225042700767517,1.6350089311599731,1.3312582969665527
18635.90323750673,1.1241704225540161,1.2256903648376465,1.6350089311599731,1.3315820693969727
18635.905237569055,1.1249799728393555,1.2264999151229858,1.635656476020813,1.3312582969665527
18635.90723763138,1.1238465309143066,1.2268238067626953,1.6367899179458618,1.3312582969665527
18635.909237693708,1.1261132955551147,1.2266618013381958,1.6371138095855713,1.3319058418273926
18635.911237756034,1.1267609596252441,1.2269856929779053,1.6369518041610718,1.332229733467102
18635.913237818357,1.1272467374801636,1.2264999151229858,1.6367899179458618,1.3319058418273926
18635.915237880683,1.1283801794052124,1.2266618013381958,1.6363041400909424,1.332067847251892
18635.91723794301,1.1288658380508423,1.2264999151229858,1.6361422538757324,1.3328773975372314
18635.919238005336,1.1267609596252441,1.2264999151229858,1.636466145515442,1.3333631753921509
18635.92123806766,1.1265990734100342,1.2258522510528564,1.636466145515442,1.3327155113220215
18635.923238129988,1.1261132955551147,1.2258522510528564,1.6358184814453125,1.332553505897522
18635.925238192314,1.1267609596252441,1.2255284786224365,1.635332703590393,1.332067847251892
18635.92723825464,1.1249799728393555,1.2255284786224365,1.6346850395202637,1.3307725191116333
18635.929238316967,1.1264371871948242,1.2253665924072266,1.635656476020813,1.3319058418273926
18635.931238379293,1.1269229650497437,1.2258522510528564,1.6369518041610718,1.332067847251892
18635.93323844162,1.1257895231246948,1.226176142692566,1.6359803676605225,1.3317439556121826
18635.935238503946,1.1256276369094849,1.2271475791931152,1.6350089311599731,1.332229733467102
18635.937238566272,1.1259514093399048,1.2277952432632446,1.6343612670898438,1.332391619682312
18635.939238628598,1.1238465309143066,1.2268238067626953,1.6341992616653442,1.332067847251892
18635.941238690924,1.1236846446990967,1.2266618013381958,1.6346850395202637,1.3317439556121826
18635.94323875325,1.1238465309143066,1.2263380289077759,1.6346850395202637,1.332229733467102
18635.945238815577,1.1240084171295166,1.2268238067626953,1.6348469257354736,1.332067847251892
18635.947238877903,1.122389316558838,1.2266618013381958,1.6345231533050537,1.3312582969665527
18635.94923894023,1.124332308769226,1.2271475791931152,1.633227825164795,1.3319058418273926
18635.951239002556,1.1240084171295166,1.2268238067626953,1.6333897113800049,1.3314201831817627
18635.95323906488,1.1235227584838867,1.2269856929779053,1.6337136030197144,1.3307725191116333
18635.955239127205,1.1231988668441772,1.2269856929779053,1.6338754892349243,1.3317439556121826
18635.95723918953,1.1238465309143066,1.2266618013381958,1.6337136030197144,1.3327155113220215
18635.959239251857,1.1230369806289673,1.226176142692566,1.6337136030197144,1.332391619682312
18635.961239314183,1.1225512027740479,1.2258522510528564,1.6345231533050537,1.3314201831817627
18635.96323937651,1.1228750944137573,1.2263380289077759,1.6340373754501343,1.3310962915420532
18635.965239438836,1.122227430343628,1.2256903648376465,1.6340373754501343,1.3307725191116333
18635.967239501162,1.1215797662734985,1.2263380289077759,1.6333897113800049,1.3306106328964233
18635.96923956349,1.1233607530593872,1.2271475791931152,1.6335515975952148,1.332067847251892
18635.971239625815,1.1235227584838867,1.2276333570480347,1.6337136030197144,1.332391619682312
18635.97323968814,1.122227430343628,1.2269856929779053,1.6333897113800049,1.3330392837524414
18635.975239750467,1.122389316558838,1.2264999151229858,1.6327420473098755,1.332067847251892
18635.977239812793,1.1238465309143066,1.2264999151229858,1.6317706108093262,1.3315820693969727
18635.97923987512,1.1225512027740479,1.2258522510528564,1.6319324970245361,1.3310962915420532
18635.981239937446,1.1219035387039185,1.226176142692566,1.6317706108093262,1.332553505897522
18635.983239999772,1.1214178800582886,1.226014256477356,1.632094383239746,1.3327155113220215
18635.9852400621,1.122065544128418,1.2253665924072266,1.6325801610946655,1.3319058418273926
18635.987240124425,1.1214178800582886,1.2253665924072266,1.6324182748794556,1.3307725191116333
18635.98924018675,1.1236846446990967,1.2256903648376465,1.6322563886642456,1.3310962915420532
18635.991240249074,1.1238465309143066,1.226014256477356,1.6327420473098755,1.3314201831817627
18635.9932403114,1.1249799728393555,1.226014256477356,1.6325801610946655,1.3319058418273926
18635.995240373726,1.1249799728393555,1.2256903648376465,1.632094383239746,1.3319058418273926
18635.997240436052,1.1257895231246948,1.226014256477356,1.6325801610946655,1.332229733467102
18635.99924049838,1.124656081199646,1.226176142692566,1.6324182748794556,1.332229733467102
18636.001240560705,1.1240084171295166,1.2256903648376465,1.6324182748794556,1.3312582969665527
18636.00324062303,1.1236846446990967,1.2258522510528564,1.6333897113800049,1.3319058418273926
18636.005240685357,1.1235227584838867,1.2256903648376465,1.633065938949585,1.3315820693969727
18636.007240747684,1.1225512027740479,1.2256903648376465,1.6327420473098755,1.3314201831817627
18636.00924081001,1.1241704225540161,1.2255284786224365,1.6322563886642456,1.332553505897522
18636.011240872336,1.1248180866241455,1.2245569229125977,1.6324182748794556,1.3312582969665527
18636.013240934662,1.1248180866241455,1.2253665924072266,1.6327420473098755,1.3317439556121826
18636.01524099699,1.1253037452697754,1.2263380289077759,1.6329039335250854,1.332067847251892
18636.017241059315,1.1265990734100342,1.2258522510528564,1.6325801610946655,1.3319058418273926
18636.01924112164,1.124656081199646,1.226014256477356,1.6322563886642456,1.3312582969665527
18636.021241183968,1.1235227584838867,1.2256903648376465,1.632094383239746,1.332067847251892
18636.023241246294,1.1231988668441772,1.2258522510528564,1.6319324970245361,1.3309344053268433
18636.02524130862,1.1235227584838867,1.2263380289077759,1.6327420473098755,1.3317439556121826
18636.027241370946,1.1230369806289673,1.226176142692566,1.6325801610946655,1.3319058418273926
18636.029241433273,1.124656081199646,1.226014256477356,1.6316087245941162,1.332229733467102
18636.0312414956,1.124494194984436,1.226176142692566,1.6322563886642456,1.3335250616073608
18636.03324155792,1.1233607530593872,1.2264999151229858,1.6322563886642456,1.3330392837524414
18636.035241620248,1.1230369806289673,1.226014256477356,1.6316087245941162,1.332067847251892
18636.037241682574,1.1248180866241455,1.2256903648376465,1.6317706108093262,1.332553505897522
18636.0392417449,1.1236846446990967,1.2253665924072266,1.6322563886642456,1.332391619682312
18636.041241807226,1.1235227584838867,1.2247189283370972,1.6306371688842773,1.3317439556121826
18636.043241869553,1.1228750944137573,1.225204586982727,1.629989504814148,1.3317439556121826
18636.04524193188,1.1215797662734985,1.2253665924072266,1.6306371688842773,1.330124855041504
18636.047241994205,1.121093988418579,1.225204586982727,1.6303133964538574,1.3296390771865845
18636.04924205653,1.1219035387039185,1.2253665924072266,1.6303133964538574,1.329962968826294
18636.051242118858,1.1215797662734985,1.2256903648376465,1.6307990550994873,1.3310962915420532
18636.053242181184,1.122389316558838,1.2258522510528564,1.6306371688842773,1.332391619682312
18636.05524224351,1.1227132081985474,1.226176142692566,1.6309610605239868,1.332553505897522
18636.057242305837,1.1233607530593872,1.2256903648376465,1.6309610605239868,1.332067847251892
18636.059242368163,1.121255874633789,1.2255284786224365,1.6311229467391968,1.3315820693969727
18636.06124243049,1.1217416524887085,1.226176142692566,1.6306371688842773,1.3314201831817627
18636.063242492815,1.1214178800582886,1.225204586982727,1.6306371688842773,1.3306106328964233
18636.06524255514,1.1207702159881592,1.2245569229125977,1.629827618598938,1.3315820693969727
18636.067242617468,1.1204463243484497,1.2255284786224365,1.6306371688842773,1.3312582969665527
18636.069242679794,1.122065544128418,1.226014256477356,1.6317706108093262,1.3309344053268433
18636.071242742117,1.122065544128418,1.226176142692566,1.6316087245941162,1.3312582969665527
18636.073242804443,1.1227132081985474,1.2263380289077759,1.6322563886642456,1.3317439556121826
18636.07524286677,1.1231988668441772,1.2264999151229858,1.6312848329544067,1.3312582969665527
18636.077242929096,1.1231988668441772,1.226176142692566,1.6304752826690674,1.3314201831817627
18636.07924299142,1.122065544128418,1.2264999151229858,1.6309610605239868,1.3307725191116333
18636.081243053748,1.1214178800582886,1.2263380289077759,1.6304752826690674,1.3315820693969727
18636.083243116074,1.1227132081985474,1.226014256477356,1.6317706108093262,1.3315820693969727
18636.0852431784,1.1227132081985474,1.2263380289077759,1.6316087245941162,1.3310962915420532
18636.087243240727,1.1214178800582886,1.2264999151229858,1.6311229467391968,1.3312582969665527
18636.089243303053,1.122065544128418,1.2266618013381958,1.6312848329544067,1.3327155113220215
18636.09124336538,1.1227132081985474,1.2268238067626953,1.6314467191696167,1.332391619682312
18636.093243427706,1.122065544128418,1.2263380289077759,1.6322563886642456,1.3330392837524414
18636.095243490032,1.1225512027740479,1.226176142692566,1.6325801610946655,1.3332011699676514
18636.097243552358,1.1241704225540161,1.2263380289077759,1.6325801610946655,1.3332011699676514
18636.099243614684,1.1228750944137573,1.226176142692566,1.6319324970245361,1.3319058418273926
18636.10124367701,1.1231988668441772,1.2271475791931152,1.6324182748794556,1.3317439556121826
18636.103243739337,1.1235227584838867,1.2264999151229858,1.6324182748794556,1.3315820693969727
18636.105243801663,1.1230369806289673,1.226176142692566,1.6322563886642456,1.332229733467102
18636.10724386399,1.1228750944137573,1.2258522510528564,1.6324182748794556,1.3330392837524414
18636.109243926316,1.1248180866241455,1.2264999151229858,1.6329039335250854,1.3335250616073608
18636.11124398864,1.1254656314849854,1.2263380289077759,1.6329039335250854,1.332391619682312
18636.113244050965,1.1253037452697754,1.2263380289077759,1.6329039335250854,1.3327155113220215
18636.11524411329,1.1251418590545654,1.2263380289077759,1.633065938949585,1.3328773975372314
18636.117244175617,1.1256276369094849,1.2264999151229858,1.6324182748794556,1.3336869478225708
18636.119244237943,1.124332308769226,1.2263380289077759,1.6327420473098755,1.332391619682312
18636.12124430027,1.1251418590545654,1.2266618013381958,1.6327420473098755,1.332553505897522
18636.123244362596,1.1257895231246948,1.2263380289077759,1.6329039335250854,1.3330392837524414
18636.125244424922,1.1256276369094849,1.2271475791931152,1.633065938949585,1.3330392837524414
18636.12724448725,1.1235227584838867,1.2269856929779053,1.6333897113800049,1.3330392837524414
18636.129244549575,1.1262753009796143,1.2263380289077759,1.6325801610946655,1.3335250616073608
18636.1312446119,1.1275705099105835,1.226176142692566,1.6337136030197144,1.3330392837524414
18636.133244674227,1.1262753009796143,1.226014256477356,1.6340373754501343,1.3333631753921509
18636.135244736553,1.1256276369094849,1.2258522510528564,1.6337136030197144,1.3341727256774902
18636.13724479888,1.1261132955551147,1.2263380289077759,1.6333897113800049,1.3341727256774902
18636.139244861206,1.1241704225540161,1.226014256477356,1.633065938949585,1.3327155113220215
18636.141244923532,1.124656081199646,1.226176142692566,1.6329039335250854,1.3327155113220215
18636.14324498586,1.1253037452697754,1.2268238067626953,1.6333897113800049,1.3330392837524414
18636.145245048185,1.124656081199646,1.2263380289077759,1.6338754892349243,1.3333631753921509
18636.14724511051,1.1233607530593872,1.226014256477356,1.633065938949585,1.3335250616073608
18636.149245172837,1.1251418590545654,1.226176142692566,1.6322563886642456,1.3333631753921509
18636.15124523516,1.1256276369094849,1.226014256477356,1.6316087245941162,1.3333631753921509
18636.153245297486,1.1256276369094849,1.226176142692566,1.6312848329544067,1.3336869478225708
18636.155245359812,1.1256276369094849,1.2264999151229858,1.6317706108093262,1.3338488340377808
18636.15724542214,1.1264371871948242,1.2258522510528564,1.6319324970245361,1.3335250616073608
18636.159245484465,1.124494194984436,1.225204586982727,1.6324182748794556,1.332391619682312
18636.16124554679,1.1249799728393555,1.2253665924072266,1.6316087245941162,1.3330392837524414
18636.163245609117,1.124332308769226,1.2258522510528564,1.6317706108093262,1.3335250616073608
18636.165245671444,1.124494194984436,1.226176142692566,1.6317706108093262,1.3335250616073608
18636.16724573377,1.1230369806289673,1.226014256477356,1.6307990550994873,1.3338488340377808
18636.169245796096,1.1249799728393555,1.225204586982727,1.6293418407440186,1.3343346118927002
18636.171245858422,1.1248180866241455,1.225042700767517,1.629665732383728,1.3336869478225708
18636.17324592075,1.124332308769226,1.2256903648376465,1.6301515102386475,1.3328773975372314
18636.175245983075,1.124494194984436,1.2253665924072266,1.629989504814148,1.3333631753921509
18636.1772460454,1.1259514093399048,1.2255284786224365,1.6306371688842773,1.3333631753921509
18636.179246107728,1.1238465309143066,1.2258522510528564,1.6301515102386475,1.3327155113220215
18636.181246170054,1.1236846446990967,1.2256903648376465,1.629827618598938,1.3332011699676514
18636.18324623238,1.1235227584838867,1.2247189283370972,1.6306371688842773,1.3332011699676514
18636.185246294706,1.1228750944137573,1.2248808145523071,1.629989504814148,1.3340108394622803
18636.187246357033,1.1219035387039185,1.2243950366973877,1.629665732383728,1.3336869478225708
18636.18924641936,1.1236846446990967,1.2253665924072266,1.629503846168518,1.3338488340377808
18636.19124648168,1.124656081199646,1.2253665924072266,1.6288561820983887,1.3336869478225708
18636.193246544008,1.1248180866241455,1.2253665924072266,1.6304752826690674,1.3333631753921509
18636.195246606334,1.1248180866241455,1.225204586982727,1.6304752826690674,1.3333631753921509
18636.19724666866,1.1254656314849854,1.2255284786224365,1.6304752826690674,1.3336869478225708
18636.199246730986,1.124332308769226,1.2266618013381958,1.6307990550994873,1.3341727256774902
18636.201246793313,1.1230369806289673,1.2258522510528564,1.6301515102386475,1.3336869478225708
18636.20324685564,1.1230369806289673,1.225204586982727,1.6303133964538574,1.3327155113220215
18636.205246917965,1.1231988668441772,1.2258522510528564,1.6311229467391968,1.3327155113220215
18636.20724698029,1.1230369806289673,1.2256903648376465,1.6319324970245361,1.332229733467102
18636.209247042618,1.1251418590545654,1.2258522510528564,1.6311229467391968,1.3327155113220215
18636.211247104944,1.1249799728393555,1.2255284786224365,1.6306371688842773,1.3340108394622803
18636.21324716727,1.124332308769226,1.2247189283370972,1.629989504814148,1.3338488340377808
18636.215247229597,1.1248180866241455,1.2256903648376465,1.629665732383728,1.3340108394622803
18636.217247291923,1.1257895231246948,1.2258522510528564,1.6306371688842773,1.3338488340377808
18636.21924735425,1.1248180866241455,1.2247189283370972,1.6306371688842773,1.3328773975372314
18636.221247416575,1.1241704225540161,1.2243950366973877,1.629827618598938,1.3327155113220215
18636.2232474789,1.124494194984436,1.225204586982727,1.629827618598938,1.332553505897522
18636.225247541228,1.124656081199646,1.2245569229125977,1.6307990550994873,1.3336869478225708
18636.227247603554,1.1231988668441772,1.2242331504821777,1.6304752826690674,1.3341727256774902
18636.229247665877,1.1254656314849854,1.2247189283370972,1.6301515102386475,1.3341727256774902
18636.231247728203,1.1253037452697754,1.2245569229125977,1.629827618598938,1.3340108394622803
18636.23324779053,1.1253037452697754,1.2243950366973877,1.629989504814148,1.3343346118927002
18636.235247852856,1.1256276369094849,1.2245569229125977,1.629665732383728,1.3335250616073608
18636.23724791518,1.1261132955551147,1.2243950366973877,1.6293418407440186,1.3341727256774902
18636.239247977508,1.124494194984436,1.2245569229125977,1.629503846168518,1.3333631753921509
18636.241248039834,1.124332308769226,1.2247189283370972,1.6293418407440186,1.3335250616073608
18636.24324810216,1.1241704225540161,1.2243950366973877,1.629827618598938,1.3335250616073608
18636.245248164487,1.124656081199646,1.2239093780517578,1.6307990550994873,1.3343346118927002
18636.247248226813,1.1241704225540161,1.2243950366973877,1.6301515102386475,1.3330392837524414
18636.24924828914,1.1262753009796143,1.2240712642669678,1.629503846168518,1.3327155113220215
18636.251248351466,1.1261132955551147,1.2248808145523071,1.629503846168518,1.3333631753921509
18636.253248413792,1.1249799728393555,1.2247189283370972,1.6291799545288086,1.3341727256774902
18636.255248476118,1.124656081199646,1.2240712642669678,1.6291799545288086,1.3341727256774902
18636.257248538444,1.1262753009796143,1.2245569229125977,1.6301515102386475,1.3338488340377808
18636.25924860077,1.1240084171295166,1.2242331504821777,1.629827618598938,1.3335250616073608
18636.261248663097,1.1241704225540161,1.2239093780517578,1.629989504814148,1.3333631753921509
18636.263248725423,1.124494194984436,1.2243950366973877,1.6290180683135986,1.332553505897522
18636.26524878775,1.124494194984436,1.2247189283370972,1.6290180683135986,1.332229733467102
18636.267248850076,1.1238465309143066,1.2245569229125977,1.6293418407440186,1.332553505897522
18636.269248912402,1.1256276369094849,1.225042700767517,1.6291799545288086,1.3340108394622803
18636.271248974725,1.1261132955551147,1.2255284786224365,1.6283704042434692,1.3336869478225708
18636.27324903705,1.1259514093399048,1.2243950366973877,1.6277227401733398,1.3341727256774902
18636.275249099377,1.1262753009796143,1.2239093780517578,1.6277227401733398,1.3349822759628296
18636.277249161703,1.1262753009796143,1.2245569229125977,1.6282085180282593,1.3344964981079102
18636.27924922403,1.1241704225540161,1.2243950366973877,1.6286941766738892,1.3338488340377808
18636.281249286356,1.124656081199646,1.2245569229125977,1.6288561820983887,1.3338488340377808
18636.283249348682,1.1259514093399048,1.2243950366973877,1.6288561820983887,1.3344964981079102
18636.28524941101,1.1257895231246948,1.2243950366973877,1.629503846168518,1.3351441621780396
18636.287249473335,1.1249799728393555,1.2243950366973877,1.629503846168518,1.3351441621780396
18636.28924953566,1.1265990734100342,1.2247189283370972,1.629665732383728,1.3348203897476196
18636.291249597987,1.1270848512649536,1.2248808145523071,1.629503846168518,1.3353060483932495
18636.293249660313,1.1261132955551147,1.2243950366973877,1.629665732383728,1.3351441621780396
18636.29524972264,1.1265990734100342,1.2240712642669678,1.629989504814148,1.335468053817749
18636.297249784966,1.1275705099105835,1.2239093780517578,1.6291799545288086,1.3353060483932495
18636.299249847292,1.1262753009796143,1.2240712642669678,1.6303133964538574,1.3340108394622803
18636.30124990962,1.1261132955551147,1.2240712642669678,1.629989504814148,1.3344964981079102
18636.303249971945,1.1265990734100342,1.2239093780517578,1.629827618598938,1.3346583843231201
18636.30525003427,1.1262753009796143,1.2243950366973877,1.629989504814148,1.3346583843231201
18636.307250096597,1.1253037452697754,1.2240712642669678,1.6301515102386475,1.3349822759628296
18636.30925015892,1.1264371871948242,1.2239093780517578,1.6293418407440186,1.3351441621780396
18636.311250221246,1.1270848512649536,1.2243950366973877,1.629503846168518,1.3344964981079102
18636.313250283572,1.127894401550293,1.2240712642669678,1.629503846168518,1.3341727256774902
18636.3152503459,1.1285420656204224,1.2237473726272583,1.6282085180282593,1.3343346118927002
18636.317250408225,1.1285420656204224,1.2245569229125977,1.6290180683135986,1.3336869478225708
18636.31925047055,1.1267609596252441,1.2237473726272583,1.6293418407440186,1.3340108394622803
18636.321250532877,1.1275705099105835,1.223099708557129,1.6303133964538574,1.3341727256774902
18636.323250595204,1.1272467374801636,1.222775936126709,1.629989504814148,1.3338488340377808
18636.32525065753,1.1267609596252441,1.223099708557129,1.629989504814148,1.3335250616073608
18636.327250719856,1.1257895231246948,1.2234236001968384,1.6293418407440186,1.3335250616073608
18636.329250782182,1.127732515335083,1.2234236001968384,1.629827618598938,1.3349822759628296
18636.33125084451,1.127732515335083,1.2239093780517578,1.629827618598938,1.335468053817749
18636.333250906835,1.1270848512649536,1.2242331504821777,1.629989504814148,1.3353060483932495
18636.33525096916,1.1275705099105835,1.2242331504821777,1.6290180683135986,1.3353060483932495
18636.337251031488,1.128218173980713,1.2235854864120483,1.629503846168518,1.335468053817749
18636.339251093814,1.1265990734100342,1.2240712642669678,1.6293418407440186,1.3343346118927002
18636.34125115614,1.1270848512649536,1.2243950366973877,1.6285322904586792,1.3344964981079102
18636.343251218466,1.1265990734100342,1.2239093780517578,1.6290180683135986,1.3349822759628296
18636.345251280793,1.1256276369094849,1.2235854864120483,1.629503846168518,1.3341727256774902
18636.34725134312,1.1241704225540161,1.223099708557129,1.6290180683135986,1.3338488340377808
18636.34925140544,1.1261132955551147,1.2242331504821777,1.6280465126037598,1.3344964981079102
18636.351251467768,1.1270848512649536,1.2243950366973877,1.6277227401733398,1.3340108394622803
18636.353251530094,1.1270848512649536,1.2239093780517578,1.6283704042434692,1.3343346118927002
18636.35525159242,1.1269229650497437,1.2240712642669678,1.6290180683135986,1.3344964981079102
18636.357251654747,1.1274086236953735,1.225042700767517,1.6283704042434692,1.3343346118927002
18636.359251717073,1.1257895231246948,1.225042700767517,1.6288561820983887,1.3346583843231201
18636.3612517794,1.1251418590545654,1.2237473726272583,1.6286941766738892,1.3351441621780396
18636.363251841725,1.1256276369094849,1.2248808145523071,1.6283704042434692,1.3349822759628296
18636.36525190405,1.1254656314849854,1.2234236001968384,1.6278846263885498,1.3346583843231201
18636.367251966378,1.124494194984436,1.222775936126709,1.6280465126037598,1.3349822759628296
18636.369252028704,1.1262753009796143,1.2232617139816284,1.6288561820983887,1.3346583843231201
18636.37125209103,1.1274086236953735,1.2237473726272583,1.6288561820983887,1.3348203897476196
18636.373252153357,1.1270848512649536,1.2240712642669678,1.6286941766738892,1.335468053817749
18636.375252215683,1.1269229650497437,1.2237473726272583,1.6283704042434692,1.335791826248169
18636.37725227801,1.127732515335083,1.2232617139816284,1.6286941766738892,1.335629940032959
18636.379252340335,1.1265990734100342,1.2235854864120483,1.6283704042434692,1.3344964981079102
18636.38125240266,1.1270848512649536,1.2240712642669678,1.6291799545288086,1.3341727256774902
18636.383252464988,1.1267609596252441,1.2240712642669678,1.6285322904586792,1.3340108394622803
18636.385252527314,1.1259514093399048,1.2234236001968384,1.6277227401733398,1.3344964981079102
18636.387252589637,1.1257895231246948,1.2240712642669678,1.6277227401733398,1.3351441621780396
18636.389252651963,1.1269229650497437,1.2239093780517578,1.6277227401733398,1.3351441621780396
18636.39125271429,1.1270848512649536,1.2242331504821777,1.6288561820983887,1.3351441621780396
18636.393252776616,1.1272467374801636,1.2240712642669678,1.6288561820983887,1.3361157178878784
18636.39525283894,1.1272467374801636,1.2234236001968384,1.6290180683135986,1.335953712463379
18636.397252901268,1.128056287765503,1.2243950366973877,1.6293418407440186,1.3362776041030884
18636.399252963594,1.1264371871948242,1.2247189283370972,1.6291799545288086,1.335953712463379
18636.40125302592,1.1261132955551147,1.2245569229125977,1.6282085180282593,1.3362776041030884
18636.403253088247,1.1264371871948242,1.2242331504821777,1.6286941766738892,1.3362776041030884
18636.405253150573,1.1267609596252441,1.2242331504821777,1.6285322904586792,1.3353060483932495
18636.4072532129,1.1256276369094849,1.2240712642669678,1.6288561820983887,1.3353060483932495
18636.409253275226,1.1270848512649536,1.2240712642669678,1.6285322904586792,1.3353060483932495
18636.411253337552,1.1275705099105835,1.2234236001968384,1.6280465126037598,1.335629940032959
18636.413253399878,1.1269229650497437,1.2237473726272583,1.6291799545288086,1.3353060483932495
18636.415253462204,1.1270848512649536,1.2243950366973877,1.629827618598938,1.3361157178878784
18636.41725352453,1.127732515335083,1.2245569229125977,1.6290180683135986,1.3348203897476196
18636.419253586857,1.1261132955551147,1.2247189283370972,1.6283704042434692,1.3344964981079102
18636.421253649183,1.1261132955551147,1.2239093780517578,1.6282085180282593,1.3343346118927002
18636.42325371151,1.1262753009796143,1.2239093780517578,1.6277227401733398,1.3348203897476196
18636.425253773836,1.1267609596252441,1.2234236001968384,1.6278846263885498,1.3341727256774902
18636.427253836162,1.1254656314849854,1.2232617139816284,1.6275608539581299,1.3344964981079102
18636.429253898485,1.1267609596252441,1.222937822341919,1.6280465126037598,1.335468053817749
18636.43125396081,1.1269229650497437,1.2232617139816284,1.6286941766738892,1.3364394903182983
18636.433254023137,1.1270848512649536,1.2232617139816284,1.62739896774292,1.335953712463379
18636.435254085463,1.1270848512649536,1.222775936126709,1.6270750761032104,1.335791826248169
18636.43725414779,1.1275705099105835,1.2239093780517578,1.6267513036727905,1.3351441621780396
18636.439254210116,1.1256276369094849,1.2237473726272583,1.6259416341781616,1.3340108394622803
18636.441254272442,1.1254656314849854,1.2243950366973877,1.626589298248291,1.3336869478225708
18636.44325433477,1.1254656314849854,1.2239093780517578,1.6272369623184204,1.3335250616073608
18636.445254397095,1.1257895231246948,1.2239093780517578,1.6277227401733398,1.3335250616073608
18636.44725445942,1.124656081199646,1.2235854864120483,1.6270750761032104,1.3332011699676514
18636.449254521747,1.1257895231246948,1.223099708557129,1.626265525817871,1.3336869478225708
18636.451254584073,1.1269229650497437,1.222937822341919,1.6267513036727905,1.3335250616073608
18636.4532546464,1.1265990734100342,1.222937822341919,1.6267513036727905,1.3338488340377808
18636.455254708726,1.1261132955551147,1.2222901582717896,1.6269131898880005,1.3341727256774902
18636.457254771052,1.1272467374801636,1.222937822341919,1.6272369623184204,1.3341727256774902
18636.45925483338,1.1253037452697754,1.222614049911499,1.626427412033081,1.3333631753921509
18636.461254895705,1.124494194984436,1.2216424942016602,1.6256178617477417,1.3333631753921509
18636.46325495803,1.1248180866241455,1.222937822341919,1.6256178617477417,1.3340108394622803
18636.465255020357,1.124332308769226,1.223099708557129,1.6254559755325317,1.3341727256774902
18636.46725508268,1.124332308769226,1.2240712642669678,1.6256178617477417,1.3338488340377808
18636.469255145006,1.1257895231246948,1.2239093780517578,1.6257797479629517,1.3348203897476196
18636.471255207332,1.1256276369094849,1.222937822341919,1.626265525817871,1.3346583843231201
18636.47325526966,1.1249799728393555,1.222614049911499,1.626589298248291,1.335468053817749
18636.475255331985,1.1259514093399048,1.2234236001968384,1.626427412033081,1.3362776041030884
18636.47725539431,1.1270848512649536,1.2234236001968384,1.6259416341781616,1.335468053817749
18636.479255456637,1.1253037452697754,1.2239093780517578,1.6259416341781616,1.3341727256774902
18636.481255518964,1.1257895231246948,1.2237473726272583,1.6251320838928223,1.3343346118927002
18636.48325558129,1.1251418590545654,1.2237473726272583,1.6254559755325317,1.3353060483932495
18636.485255643616,1.1248180866241455,1.2234236001968384,1.6252940893173218,1.3344964981079102
18636.487255705943,1.124332308769226,1.223099708557129,1.6261036396026611,1.3335250616073608
18636.48925576827,1.1265990734100342,1.223099708557129,1.6270750761032104,1.3338488340377808
18636.491255830595,1.1275705099105835,1.2247189283370972,1.6277227401733398,1.3343346118927002
18636.49325589292,1.1262753009796143,1.2243950366973877,1.6277227401733398,1.3353060483932495
18636.495255955248,1.1264371871948242,1.2239093780517578,1.626589298248291,1.3349822759628296
18636.497256017574,1.1269229650497437,1.2245569229125977,1.6269131898880005,1.3353060483932495
18636.4992560799,1.1256276369094849,1.2242331504821777,1.6272369623184204,1.3343346118927002
18636.501256142226,1.1256276369094849,1.2237473726272583,1.6272369623184204,1.3341727256774902
18636.503256204553,1.1259514093399048,1.2235854864120483,1.62739896774292,1.3349822759628296
18636.50525626688,1.1257895231246948,1.2243950366973877,1.6277227401733398,1.3348203897476196
18636.5072563292,1.1249799728393555,1.225042700767517,1.62739896774292,1.3353060483932495
18636.509256391528,1.1274086236953735,1.2245569229125977,1.62739896774292,1.335791826248169
18636.511256453854,1.128218173980713,1.2243950366973877,1.6272369623184204,1.3362776041030884
18636.51325651618,1.1270848512649536,1.2245569229125977,1.6275608539581299,1.335953712463379
18636.515256578507,1.128056287765503,1.225042700767517,1.6275608539581299,1.3361157178878784
18636.517256640833,1.128218173980713,1.2243950366973877,1.6278846263885498,1.335953712463379
18636.51925670316,1.1265990734100342,1.2242331504821777,1.6278846263885498,1.3353060483932495
18636.521256765485,1.1269229650497437,1.2242331504821777,1.6278846263885498,1.3349822759628296
18636.52325682781,1.1270848512649536,1.2237473726272583,1.6291799545288086,1.3361157178878784
18636.525256890138,1.1267609596252441,1.2242331504821777,1.6291799545288086,1.3349822759628296
18636.527256952464,1.1262753009796143,1.225042700767517,1.6293418407440186,1.3353060483932495
18636.52925701479,1.1296755075454712,1.2243950366973877,1.6291799545288086,1.335468053817749
18636.531257077117,1.1296755075454712,1.2243950366973877,1.6288561820983887,1.3353060483932495
18636.533257139443,1.1288658380508423,1.2239093780517578,1.6290180683135986,1.335468053817749
18636.53525720177,1.1285420656204224,1.2234236001968384,1.6291799545288086,1.335953712463379
18636.537257264095,1.1283801794052124,1.2237473726272583,1.6293418407440186,1.3361157178878784
18636.53925732642,1.1267609596252441,1.2234236001968384,1.629503846168518,1.3351441621780396
18636.541257388748,1.1264371871948242,1.2234236001968384,1.6291799545288086,1.335791826248169
18636.543257451074,1.127894401550293,1.2240712642669678,1.629503846168518,1.3353060483932495
18636.545257513397,1.1269229650497437,1.2243950366973877,1.6282085180282593,1.3351441621780396
18636.547257575723,1.1259514093399048,1.2242331504821777,1.6278846263885498,1.335468053817749
18636.54925763805,1.1275705099105835,1.2247189283370972,1.62739896774292,1.335953712463379
18636.551257700376,1.127894401550293,1.2243950366973877,1.6272369623184204,1.335629940032959
18636.553257762702,1.127732515335083,1.2235854864120483,1.6290180683135986,1.3348203897476196
18636.555257825028,1.127894401550293,1.2242331504821777,1.6290180683135986,1.3353060483932495
18636.557257887354,1.1291897296905518,1.2247189283370972,1.6290180683135986,1.3362776041030884
18636.55925794968,1.1270848512649536,1.2247189283370972,1.6285322904586792,1.335468053817749
18636.561258012007,1.1269229650497437,1.2248808145523071,1.6286941766738892,1.3353060483932495
18636.563258074333,1.1275705099105835,1.2245569229125977,1.6286941766738892,1.335629940032959
18636.56525813666,1.1270848512649536,1.2247189283370972,1.6285322904586792,1.335468053817749
18636.567258198986,1.1264371871948242,1.2240712642669678,1.6283704042434692,1.335629940032959
18636.569258261312,1.127894401550293,1.225204586982727,1.6290180683135986,1.3364394903182983
18636.571258323638,1.127732515335083,1.225042700767517,1.6293418407440186,1.335791826248169
18636.573258385964,1.1274086236953735,1.2243950366973877,1.629827618598938,1.335629940032959
18636.57525844829,1.1275705099105835,1.2248808145523071,1.6290180683135986,1.335468053817749
18636.577258510617,1.1285420656204224,1.2248808145523071,1.6291799545288086,1.3353060483932495
18636.579258572943,1.1275705099105835,1.2247189283370972,1.629989504814148,1.3361157178878784
18636.58125863527,1.1283801794052124,1.2255284786224365,1.6291799545288086,1.3362776041030884
18636.583258697596,1.1283801794052124,1.2255284786224365,1.6286941766738892,1.3364394903182983
18636.585258759922,1.1287039518356323,1.2248808145523071,1.6291799545288086,1.335953712463379
18636.587258822245,1.1269229650497437,1.2243950366973877,1.629665732383728,1.335953712463379
18636.58925888457,1.128218173980713,1.2239093780517578,1.629665732383728,1.3362776041030884
18636.591258946897,1.127894401550293,1.2247189283370972,1.629827618598938,1.335953712463379
18636.593259009223,1.1275705099105835,1.225204586982727,1.629989504814148,1.3361157178878784
18636.59525907155,1.128056287765503,1.2243950366973877,1.629665732383728,1.3366013765335083
18636.597259133876,1.1291897296905518,1.2248808145523071,1.629989504814148,1.3364394903182983
18636.599259196202,1.1285420656204224,1.2243950366973877,1.6301515102386475,1.335629940032959
18636.60125925853,1.1272467374801636,1.2243950366973877,1.629827618598938,1.335468053817749
18636.603259320855,1.1270848512649536,1.2243950366973877,1.629827618598938,1.3362776041030884
18636.60525938318,1.1272467374801636,1.2248808145523071,1.629665732383728,1.335629940032959
18636.607259445507,1.1269229650497437,1.2237473726272583,1.6307990550994873,1.3361157178878784
18636.609259507833,1.128218173980713,1.2235854864120483,1.629827618598938,1.3364394903182983
18636.61125957016,1.128056287765503,1.2235854864120483,1.6306371688842773,1.335468053817749
18636.613259632486,1.1270848512649536,1.2235854864120483,1.6304752826690674,1.3343346118927002
18636.615259694812,1.1272467374801636,1.223099708557129,1.6301515102386475,1.335468053817749
18636.61725975714,1.1275705099105835,1.2237473726272583,1.629503846168518,1.335468053817749
18636.619259819465,1.1253037452697754,1.2237473726272583,1.6293418407440186,1.3349822759628296
18636.62125988179,1.1257895231246948,1.2240712642669678,1.6291799545288086,1.335468053817749
18636.623259944117,1.1254656314849854,1.2248808145523071,1.6286941766738892,1.3346583843231201
18636.62526000644,1.124656081199646,1.2248808145523071,1.6283704042434692,1.3346583843231201
18636.627260068766,1.1240084171295166,1.225042700767517,1.6283704042434692,1.3351441621780396
18636.629260131092,1.1264371871948242,1.2247189283370972,1.6277227401733398,1.3364394903182983
18636.63126019342,1.1267609596252441,1.2240712642669678,1.6283704042434692,1.335629940032959
18636.633260255745,1.1267609596252441,1.2243950366973877,1.6288561820983887,1.3344964981079102
18636.63526031807,1.127894401550293,1.2237473726272583,1.6280465126037598,1.3340108394622803
18636.637260380397,1.1290278434753418,1.2235854864120483,1.6269131898880005,1.3338488340377808
18636.639260442724,1.1262753009796143,1.2234236001968384,1.6269131898880005,1.3338488340377808
18636.64126050505,1.1257895231246948,1.2235854864120483,1.6269131898880005,1.3346583843231201
18636.643260567376,1.1261132955551147,1.2239093780517578,1.6270750761032104,1.3343346118927002
18636.645260629703,1.1249799728393555,1.2237473726272583,1.6269131898880005,1.3346583843231201
18636.64726069203,1.1236846446990967,1.2232617139816284,1.6267513036727905,1.3340108394622803
18636.649260754355,1.1251418590545654,1.2234236001968384,1.6269131898880005,1.3343346118927002
18636.65126081668,1.124656081199646,1.2234236001968384,1.626265525817871,1.3346583843231201
18636.653260879008,1.1240084171295166,1.2237473726272583,1.6256178617477417,1.3341727256774902
18636.655260941334,1.124494194984436,1.2237473726272583,1.626265525817871,1.3344964981079102
18636.65726100366,1.124656081199646,1.2232617139816284,1.6269131898880005,1.3341727256774902
18636.659261065986,1.1236846446990967,1.2222901582717896,1.6261036396026611,1.3333631753921509
18636.661261128313,1.1240084171295166,1.222614049911499,1.6257797479629517,1.3338488340377808
18636.66326119064,1.1233607530593872,1.222937822341919,1.6252940893173218,1.3341727256774902
18636.66526125296,1.122227430343628,1.222937822341919,1.6257797479629517,1.3336869478225708
18636.667261315288,1.1215797662734985,1.222614049911499,1.6256178617477417,1.3332011699676514
18636.669261377614,1.1231988668441772,1.222614049911499,1.6251320838928223,1.3330392837524414
18636.67126143994,1.1228750944137573,1.2214806079864502,1.6249701976776123,1.3330392837524414
18636.673261502267,1.122065544128418,1.2218044996261597,1.6244844198226929,1.3332011699676514
18636.675261564593,1.1219035387039185,1.2224520444869995,1.6244844198226929,1.3336869478225708
18636.67726162692,1.1233607530593872,1.2224520444869995,1.624322533607483,1.3336869478225708
18636.679261689245,1.1227132081985474,1.2224520444869995,1.6238367557525635,1.3330392837524414
18636.68126175157,1.122389316558838,1.2222901582717896,1.623998761177063,1.3332011699676514
18636.683261813898,1.122389316558838,1.2221282720565796,1.6238367557525635,1.3328773975372314
18636.685261876224,1.1225512027740479,1.2221282720565796,1.6251320838928223,1.3327155113220215
18636.68726193855,1.1219035387039185,1.2218044996261597,1.6251320838928223,1.332553505897522
18636.689262000877,1.1235227584838867,1.222937822341919,1.6248083114624023,1.3330392837524414
18636.691262063203,1.124332308769226,1.2239093780517578,1.6246464252471924,1.3332011699676514
18636.69326212553,1.1236846446990967,1.2240712642669678,1.6252940893173218,1.3333631753921509
18636.695262187855,1.1230369806289673,1.2235854864120483,1.6251320838928223,1.3344964981079102
18636.69726225018,1.1240084171295166,1.223099708557129,1.6254559755325317,1.335953712463379
18636.699262312508,1.1219035387039185,1.222614049911499,1.6251320838928223,1.3341727256774902
18636.701262374834,1.122389316558838,1.222775936126709,1.6257797479629517,1.332391619682312
18636.70326243716,1.1219035387039185,1.2240712642669678,1.6257797479629517,1.3330392837524414
18636.705262499483,1.122227430343628,1.225042700767517,1.6256178617477417,1.3333631753921509
18636.70726256181,1.122389316558838,1.2242331504821777,1.626265525817871,1.3336869478225708
18636.709262624136,1.1248180866241455,1.2240712642669678,1.626427412033081,1.3340108394622803
18636.711262686462,1.124656081199646,1.222775936126709,1.626589298248291,1.3343346118927002
18636.713262748788,1.1251418590545654,1.222937822341919,1.626427412033081,1.3351441621780396
18636.715262811114,1.1257895231246948,1.2234236001968384,1.6267513036727905,1.3349822759628296
18636.71726287344,1.1262753009796143,1.222937822341919,1.6272369623184204,1.3340108394622803
18636.719262935767,1.1254656314849854,1.2239093780517578,1.62739896774292,1.3333631753921509
18636.721262998093,1.1248180866241455,1.225042700767517,1.6280465126037598,1.3340108394622803
18636.72326306042,1.1249799728393555,1.2248808145523071,1.6286941766738892,1.3349822759628296
18636.725263122746,1.1251418590545654,1.2239093780517578,1.629503846168518,1.3346583843231201
18636.727263185072,1.1241704225540161,1.2245569229125977,1.6288561820983887,1.3341727256774902
18636.7292632474,1.1259514093399048,1.2248808145523071,1.629665732383728,1.3348203897476196
18636.731263309724,1.1267609596252441,1.2248808145523071,1.6293418407440186,1.3346583843231201
18636.73326337205,1.1267609596252441,1.2247189283370972,1.6306371688842773,1.3349822759628296
18636.735263434377,1.1270848512649536,1.225042700767517,1.6301515102386475,1.335791826248169
18636.737263496703,1.1275705099105835,1.2248808145523071,1.6301515102386475,1.3362776041030884
18636.73926355903,1.1265990734100342,1.2248808145523071,1.6290180683135986,1.335629940032959
18636.741263621356,1.1265990734100342,1.2258522510528564,1.6301515102386475,1.3362776041030884
18636.743263683682,1.1262753009796143,1.2256903648376465,1.6301515102386475,1.335791826248169
18636.745263746005,1.1257895231246948,1.225204586982727,1.629503846168518,1.335629940032959
18636.74726380833,1.1251418590545654,1.2248808145523071,1.629827618598938,1.3351441621780396
18636.749263870657,1.1264371871948242,1.2240712642669678,1.629665732383728,1.3351441621780396
18636.751263932983,1.1269229650497437,1.2243950366973877,1.6291799545288086,1.3351441621780396
18636.75326399531,1.1261132955551147,1.225042700767517,1.629665732383728,1.3348203897476196
18636.755264057636,1.1264371871948242,1.2255284786224365,1.629503846168518,1.335629940032959
18636.757264119962,1.1267609596252441,1.2256903648376465,1.6290180683135986,1.335468053817749
18636.75926418229,1.1257895231246948,1.2258522510528564,1.629665732383728,1.335791826248169
18636.761264244615,1.1248180866241455,1.2258522510528564,1.6285322904586792,1.3361157178878784
18636.76326430694,1.1253037452697754,1.2268238067626953,1.6277227401733398,1.3361157178878784
18636.765264369267,1.1251418590545654,1.2256903648376465,1.6272369623184204,1.335953712463379
18636.767264431594,1.1241704225540161,1.2253665924072266,1.6275608539581299,1.3348203897476196
18636.76926449392,1.1261132955551147,1.2255284786224365,1.6278846263885498,1.335953712463379
18636.771264556246,1.1257895231246948,1.2247189283370972,1.6280465126037598,1.3366013765335083
18636.773264618572,1.1261132955551147,1.2258522510528564,1.6288561820983887,1.335953712463379
18636.7752646809,1.1256276369094849,1.2263380289077759,1.6288561820983887,1.3367632627487183
18636.777264743225,1.1262753009796143,1.226176142692566,1.6282085180282593,1.3364394903182983
18636.77926480555,1.124656081199646,1.226176142692566,1.6278846263885498,1.3351441621780396
18636.781264867877,1.1235227584838867,1.2258522510528564,1.6275608539581299,1.335468053817749
18636.7832649302,1.1228750944137573,1.2253665924072266,1.62739896774292,1.3353060483932495
18636.785264992526,1.1230369806289673,1.225042700767517,1.6278846263885498,1.3351441621780396
18636.787265054852,1.1240084171295166,1.2253665924072266,1.6275608539581299,1.3351441621780396
18636.78926511718,1.124656081199646,1.2258522510528564,1.6270750761032104,1.335468053817749
18636.791265179505,1.1240084171295166,1.226176142692566,1.62739896774292,1.335791826248169
18636.79326524183,1.124332308769226,1.2256903648376465,1.6270750761032104,1.3346583843231201
18636.795265304158,1.124656081199646,1.2255284786224365,1.62739896774292,1.3361157178878784
18636.797265366484,1.1249799728393555,1.2263380289077759,1.6272369623184204,1.3366013765335083
18636.79926542881,1.1227132081985474,1.2256903648376465,1.6272369623184204,1.3361157178878784
18636.801265491136,1.1231988668441772,1.2258522510528564,1.6272369623184204,1.3362776041030884
18636.803265553463,1.1238465309143066,1.226176142692566,1.6267513036727905,1.3362776041030884
18636.80526561579,1.1227132081985474,1.2256903648376465,1.62739896774292,1.3348203897476196
18636.807265678115,1.122227430343628,1.2253665924072266,1.6269131898880005,1.3349822759628296
18636.80926574044,1.1235227584838867,1.2256903648376465,1.6267513036727905,1.3353060483932495
18636.811265802768,1.1233607530593872,1.2258522510528564,1.626265525817871,1.335629940032959
18636.813265865094,1.1230369806289673,1.2253665924072266,1.6261036396026611,1.335468053817749
18636.81526592742,1.1230369806289673,1.2248808145523071,1.626427412033081,1.3353060483932495
18636.817265989746,1.124332308769226,1.2253665924072266,1.626265525817871,1.3351441621780396
18636.819266052073,1.1235227584838867,1.225204586982727,1.6261036396026611,1.3349822759628296
18636.8212661144,1.1227132081985474,1.225042700767517,1.6252940893173218,1.3344964981079102
18636.823266176725,1.1233607530593872,1.2243950366973877,1.6252940893173218,1.335468053817749
18636.825266239048,1.1230369806289673,1.225042700767517,1.6259416341781616,1.335629940032959
18636.827266301374,1.122227430343628,1.225042700767517,1.6254559755325317,1.335791826248169
18636.8292663637,1.1231988668441772,1.226014256477356,1.6252940893173218,1.335468053817749
18636.831266426027,1.1228750944137573,1.2263380289077759,1.626265525817871,1.3349822759628296
18636.833266488353,1.122065544128418,1.2258522510528564,1.626265525817871,1.3349822759628296
18636.83526655068,1.1227132081985474,1.2255284786224365,1.6261036396026611,1.335468053817749
18636.837266613005,1.1231988668441772,1.2256903648376465,1.6269131898880005,1.3353060483932495
18636.83926667533,1.1217416524887085,1.226176142692566,1.6261036396026611,1.3351441621780396
18636.841266737658,1.1217416524887085,1.2258522510528564,1.6256178617477417,1.3349822759628296
18636.843266799984,1.1227132081985474,1.2258522510528564,1.6254559755325317,1.3341727256774902
18636.84526686231,1.1225512027740479,1.226014256477356,1.626265525817871,1.3338488340377808
18636.847266924637,1.122065544128418,1.226014256477356,1.6259416341781616,1.3349822759628296
18636.849266986963,1.1231988668441772,1.226014256477356,1.626265525817871,1.335629940032959
18636.85126704929,1.1233607530593872,1.2256903648376465,1.6267513036727905,1.3349822759628296
18636.853267111615,1.1228750944137573,1.2264999151229858,1.6267513036727905,1.3348203897476196
18636.85526717394,1.1225512027740479,1.2274714708328247,1.6267513036727905,1.335953712463379
18636.857267236268,1.1231988668441772,1.2273094654083252,1.6267513036727905,1.335629940032959
18636.859267298594,1.1219035387039185,1.2274714708328247,1.626427412033081,1.3351441621780396
18636.86126736092,1.1225512027740479,1.2274714708328247,1.6251320838928223,1.3343346118927002
18636.863267423243,1.1227132081985474,1.2274714708328247,1.6259416341781616,1.3341727256774902
18636.86526748557,1.1217416524887085,1.2269856929779053,1.626589298248291,1.3346583843231201
18636.867267547896,1.1219035387039185,1.2266618013381958,1.6261036396026611,1.3346583843231201
18636.869267610222,1.1236846446990967,1.226176142692566,1.6259416341781616,1.3351441621780396
18636.871267672548,1.1233607530593872,1.226014256477356,1.6261036396026611,1.3346583843231201
18636.873267734874,1.1231988668441772,1.225204586982727,1.626265525817871,1.3344964981079102
18636.8752677972,1.1235227584838867,1.2263380289077759,1.6257797479629517,1.3351441621780396
18636.877267859527,1.1230369806289673,1.2264999151229858,1.6257797479629517,1.335468053817749
18636.879267921853,1.1215797662734985,1.2264999151229858,1.6254559755325317,1.3361157178878784
18636.88126798418,1.122065544128418,1.2268238067626953,1.6251320838928223,1.3361157178878784
18636.883268046506,1.1219035387039185,1.2263380289077759,1.6261036396026611,1.335791826248169
18636.885268108832,1.1214178800582886,1.226176142692566,1.6261036396026611,1.335953712463379
18636.88726817116,1.1204463243484497,1.2253665924072266,1.6251320838928223,1.335953712463379
18636.889268233484,1.1230369806289673,1.226014256477356,1.6246464252471924,1.3361157178878784
18636.89126829581,1.1227132081985474,1.2268238067626953,1.624160647392273,1.3362776041030884
18636.893268358137,1.1225512027740479,1.2273094654083252,1.623998761177063,1.335953712463379
18636.895268420463,1.1238465309143066,1.2268238067626953,1.6246464252471924,1.335629940032959
18636.89726848279,1.1248180866241455,1.2271475791931152,1.6254559755325317,1.3349822759628296
18636.899268545116,1.1227132081985474,1.2269856929779053,1.6252940893173218,1.3343346118927002
18636.901268607442,1.122065544128418,1.2266618013381958,1.6248083114624023,1.3346583843231201
18636.903268669765,1.1228750944137573,1.226176142692566,1.6252940893173218,1.335468053817749
18636.90526873209,1.1225512027740479,1.2255284786224365,1.6256178617477417,1.3351441621780396
18636.907268794417,1.122065544128418,1.2258522510528564,1.6252940893173218,1.3366013765335083
18636.909268856743,1.1238465309143066,1.2268238067626953,1.6261036396026611,1.3364394903182983
18636.91126891907,1.1236846446990967,1.2266618013381958,1.6270750761032104,1.3353060483932495
18636.913268981396,1.1235227584838867,1.226176142692566,1.626265525817871,1.335791826248169
18636.915269043722,1.1241704225540161,1.226176142692566,1.626427412033081,1.335468053817749
18636.91726910605,1.1248180866241455,1.2268238067626953,1.6272369623184204,1.335629940032959
18636.919269168375,1.1235227584838867,1.2273094654083252,1.626589298248291,1.3362776041030884
18636.9212692307,1.1236846446990967,1.2271475791931152,1.6256178617477417,1.3361157178878784
18636.923269293027,1.1233607530593872,1.2273094654083252,1.6257797479629517,1.335791826248169
18636.925269355354,1.1225512027740479,1.2273094654083252,1.626265525817871,1.335468053817749
18636.92726941768,1.1214178800582886,1.2268238067626953,1.626427412033081,1.335629940032959
18636.929269480006,1.1230369806289673,1.2264999151229858,1.626589298248291,1.3361157178878784
18636.931269542332,1.1233607530593872,1.2266618013381958,1.6256178617477417,1.3364394903182983
18636.93326960466,1.1227132081985474,1.2273094654083252,1.6259416341781616,1.335629940032959
18636.935269666985,1.1230369806289673,1.2269856929779053,1.626265525817871,1.335791826248169
18636.93726972931,1.1225512027740479,1.226014256477356,1.626265525817871,1.3361157178878784
18636.939269791637,1.121255874633789,1.2258522510528564,1.626265525817871,1.335629940032959
18636.94126985396,1.122227430343628,1.2263380289077759,1.626265525817871,1.3351441621780396
18636.943269916286,1.122389316558838,1.2266618013381958,1.6261036396026611,1.335629940032959
18636.945269978612,1.1215797662734985,1.2266618013381958,1.6251320838928223,1.335468053817749
18636.94727004094,1.1202844381332397,1.226014256477356,1.6251320838928223,1.3349822759628296
18636.949270103265,1.1215797662734985,1.2258522510528564,1.6256178617477417,1.3346583843231201
18636.95127016559,1.1219035387039185,1.2264999151229858,1.6256178617477417,1.3361157178878784
18636.953270227918,1.1219035387039185,1.2263380289077759,1.6252940893173218,1.3364394903182983
18636.955270290244,1.1231988668441772,1.2258522510528564,1.6248083114624023,1.3362776041030884
18636.95727035257,1.1236846446990967,1.2256903648376465,1.6249701976776123,1.335629940032959
18636.959270414896,1.121255874633789,1.2269856929779053,1.624322533607483,1.3353060483932495
18636.961270477223,1.1204463243484497,1.226014256477356,1.6236748695373535,1.335953712463379
18636.96327053955,1.121255874633789,1.2268238067626953,1.624322533607483,1.335953712463379
18636.965270601875,1.122065544128418,1.2276333570480347,1.6233510971069336,1.335953712463379
18636.9672706642,1.1209321022033691,1.2266618013381958,1.6235129833221436,1.3364394903182983
18636.969270726528,1.1217416524887085,1.2266618013381958,1.6238367557525635,1.3366013765335083
18636.971270788854,1.121255874633789,1.2276333570480347,1.624160647392273,1.3361157178878784
18636.97327085118,1.1214178800582886,1.2273094654083252,1.624322533607483,1.335629940032959
18636.975270913506,1.1217416524887085,1.2268238067626953,1.623998761177063,1.335953712463379
18636.977270975833,1.122389316558838,1.2263380289077759,1.623189091682434,1.335953712463379
18636.97927103816,1.1207702159881592,1.2263380289077759,1.6230272054672241,1.335468053817749
18636.981271100485,1.1202844381332397,1.2264999151229858,1.6228653192520142,1.3349822759628296
18636.983271162808,1.1209321022033691,1.2274714708328247,1.6228653192520142,1.3349822759628296
18636.985271225134,1.1209321022033691,1.2271475791931152,1.6235129833221436,1.335791826248169
18636.98727128746,1.1207702159881592,1.2273094654083252,1.623189091682434,1.335791826248169
18636.989271349787,1.1207702159881592,1.2263380289077759,1.6235129833221436,1.335791826248169
18636.991271412113,1.1199606657028198,1.2263380289077759,1.623189091682434,1.335953712463379
18636.99327147444,1.1207702159881592,1.2266618013381958,1.6233510971069336,1.3367632627487183
18636.995271536765,1.1215797662734985,1.2263380289077759,1.6233510971069336,1.3369252681732178
18636.99727159909,1.122389316558838,1.2263380289077759,1.623189091682434,1.335791826248169
18636.999271661418,1.1207702159881592,1.2264999151229858,1.623189091682434,1.335791826248169
18637.001271723744,1.1207702159881592,1.226014256477356,1.623998761177063,1.335629940032959
