time,X_NOSE,Y_NOSE,Z_NOSE,visibility_NOSE,X_LEFT_EYE_INNER,Y_LEFT_EYE_INNER,Z_LEFT_EYE_INNER,visibility_LEFT_EYE_INNER,X_LEFT_EYE,Y_LEFT_EYE,Z_LEFT_EYE,visibility_LEFT_EYE,X_LEFT_EYE_OUTER,Y_LEFT_EYE_OUTER,Z_LEFT_EYE_OUTER,visibility_LEFT_EYE_OUTER,X_RIGHT_EYE_OUTER,Y_RIGHT_EYE_OUTER,Z_RIGHT_EYE_OUTER,visibility_RIGHT_EYE_OUTER,X_RIGHT_EYE,Y_RIGHT_EYE,Z_RIGHT_EYE,visibility_RIGHT_EYE,X_RIGHT_EYE_OUTER,Y_RIGHT_EYE_OUTER,Z_RIGHT_EYE_OUTER,visibility_RIGHT_EYE_OUTER,X_LEFT_EAR,Y_LEFT_EAR,Z_LEFT_EAR,visibility_LEFT_EAR,X_RIGHT_EAR,Y_RIGHT_EAR,Z_RIGHT_EAR,visibility_RIGHT_EAR,X_MOUTH_LEFT,Y_MOUTH_LEFT,Z_MOUTH_LEFT,visibility_MOUTH_LEFT,X_MOUTH_RIGHT,Y_MOUTH_RIGHT,Z_MOUTH_RIGHT,visibility_MOUTH_RIGHT,X_LEFT_SHOULDER,Y_LEFT_SHOULDER,Z_LEFT_SHOULDER,visibility_LEFT_SHOULDER,X_RIGHT_SHOULDER,Y_RIGHT_SHOULDER,Z_RIGHT_SHOULDER,visibility_RIGHT_SHOULDER,X_LEFT_ELBOW,Y_LEFT_ELBOW,Z_LEFT_ELBOW,visibility_LEFT_ELBOW,X_RIGHT_ELBOW,Y_RIGHT_ELBOW,Z_RIGHT_ELBOW,visibility_RIGHT_ELBOW,X_LEFT_WRIST,Y_LEFT_WRIST,Z_LEFT_WRIST,visibility_LEFT_WRIST,X_RIGHT_WRIST,Y_RIGHT_WRIST,Z_RIGHT_WRIST,visibility_RIGHT_WRIST,X_LEFT_PINKY,Y_LEFT_PINKY,Z_LEFT_PINKY,visibility_LEFT_PINKY,X_RIGHT_PINKY,Y_RIGHT_PINKY,Z_RIGHT_PINKY,visibility_RIGHT_PINKY,X_LEFT_INDEX,Y_LEFT_INDEX,Z_LEFT_INDEX,visibility_LEFT_INDEX,X_RIGHT_INDEX,Y_RIGHT_INDEX,Z_RIGHT_INDEX,visibility_RIGHT_INDEX,X_LEFT_THUMB,Y_LEFT_THUMB,Z_LEFT_THUMB,visibility_LEFT_THUMB,X_RIGHT_THUMB,Y_RIGHT_THUMB,Z_RIGHT_THUMB,visibility_RIGHT_THUMB,X_LEFT_HIP,Y_LEFT_HIP,Z_LEFT_HIP,visibility_LEFT_HIP,X_RIGHT_HIP,Y_RIGHT_HIP,Z_RIGHT_HIP,visibility_RIGHT_HIP,X_LEFT_KNEE,Y_LEFT_KNEE,Z_LEFT_KNEE,visibility_LEFT_KNEE,X_RIGHT_KNEE,Y_RIGHT_KNEE,Z_RIGHT_KNEE,visibility_RIGHT_KNEE,X_LEFT_ANKLE,Y_LEFT_ANKLE,Z_LEFT_ANKLE,visibility_LEFT_ANKLE,X_RIGHT_ANKLE,Y_RIGHT_ANKLE,Z_RIGHT_ANKLE,visibility_RIGHT_ANKLE,X_LEFT_HEEL,Y_LEFT_HEEL,Z_LEFT_HEEL,visibility_LEFT_HEEL,X_RIGHT_HEEL,Y_RIGHT_HEEL,Z_RIGHT_HEEL,visibility_RIGHT_HEEL,X_LEFT_FOOT_INDEX,Y_LEFT_FOOT_INDEX,Z_LEFT_FOOT_INDEX,visibility_LEFT_FOOT_INDEX,X_RIGHT_FOOT_INDEX,Y_RIGHT_FOOT_INDEX,Z_RIGHT_FOOT_INDEX,visibility_RIGHT_FOOT_INDEX
15418.808477638388,0.5018085241317749,0.27315932512283325,-0.8131193518638611,0.999951958656311,0.5158442258834839,0.25254908204078674,-0.7782831192016602,0.9998573064804077,0.5250729918479919,0.2523445188999176,-0.7784232497215271,0.9998371601104736,0.5342581272125244,0.2521653175354004,-0.7786138653755188,0.9998365640640259,0.48220527172088623,0.2535243034362793,-0.7975116968154907,0.9998515844345093,0.46646207571029663,0.25387951731681824,-0.7976354956626892,0.9998482465744019,0.4540707767009735,0.2543359100818634,-0.7978394627571106,0.9998457431793213,0.5434076189994812,0.26054704189300537,-0.5192778706550598,0.9997305274009705,0.4292493462562561,0.2629738450050354,-0.6149305105209351,0.9998581409454346,0.5175805687904358,0.2944808900356293,-0.709617555141449,0.999970555305481,0.4767821729183197,0.29468920826911926,-0.7370129227638245,0.9999727010726929,0.6146703362464905,0.37328287959098816,-0.2946370840072632,0.9999557733535767,0.3423919081687927,0.38336628675460815,-0.49530935287475586,0.9999232292175293,0.6454532742500305,0.5286529064178467,-0.1262304186820984,0.9706548452377319,0.3458336293697357,0.5614857077598572,-0.43572288751602173,0.989111602306366,0.6631572842597961,0.6628437638282776,-0.2777542769908905,0.9657874703407288,0.38649123907089233,0.708008348941803,-0.5618691444396973,0.9532915353775024,0.6778343319892883,0.7057017683982849,-0.34329742193222046,0.9332805871963501,0.38867104053497314,0.7547141909599304,-0.6280708909034729,0.9110888242721558,0.6617220640182495,0.7056500911712646,-0.4134211540222168,0.9404932260513306,0.4119669497013092,0.7542470693588257,-0.6999210119247437,0.9166274666786194,0.6505839228630066,0.6968888640403748,-0.3085375130176544,0.9384622573852539,0.41703924536705017,0.7386910319328308,-0.590164840221405,0.9164856672286987,0.5803543925285339,0.6560170650482178,0.04110726714134216,0.9983130693435669,0.4338640570640564,0.6687054634094238,-0.040959883481264114,0.9974755644798279,0.5793178677558899,0.879048764705658,-0.041162800043821335,0.6310465335845947,0.4494955837726593,0.8878840208053589,-0.07652216404676437,0.5305944085121155,0.5642860531806946,1.0524787902832031,0.3304707705974579,0.37075862288475037,0.446958065032959,1.0609081983566284,0.28873831033706665,0.3425261676311493,0.5572450160980225,1.0829988718032837,0.34917277097702026,0.25112661719322205,0.4484013319015503,1.0801403522491455,0.30929476022720337,0.15435577929019928,0.5984272956848145,1.128316879272461,0.08416634798049927,0.3136467933654785,0.4726743996143341,1.1378941535949707,-0.004242264665663242,0.31454917788505554
15435.475144305054,0.5037712454795837,0.2733887732028961,-0.7979723811149597,0.9999523162841797,0.5172091126441956,0.2526457607746124,-0.76310133934021,0.9998595714569092,0.5263354182243347,0.25243687629699707,-0.7632421851158142,0.9998389482498169,0.5352814793586731,0.2522500157356262,-0.7634316086769104,0.9998384714126587,0.484508216381073,0.25355640053749084,-0.7833940386772156,0.9998549222946167,0.4685564339160919,0.2539277672767639,-0.7835153937339783,0.9998514652252197,0.45622557401657104,0.25440269708633423,-0.7837180495262146,0.9998499155044556,0.5431767106056213,0.2606515884399414,-0.5057288408279419,0.9997350573539734,0.4299775958061218,0.26306191086769104,-0.6060124635696411,0.9998655319213867,0.5187328457832336,0.29468023777008057,-0.695102334022522,0.9999709129333496,0.4788326621055603,0.29485005140304565,-0.7238105535507202,0.9999735355377197,0.6146323680877686,0.37327665090560913,-0.28193503618240356,0.9999552965164185,0.34230589866638184,0.3833652138710022,-0.49176865816116333,0.9999247789382935,0.6457574367523193,0.5281352400779724,-0.11674761027097702,0.969978392124176,0.345254123210907,0.561648428440094,-0.4364824891090393,0.9901069402694702,0.6636698246002197,0.6624146699905396,-0.2715775966644287,0.9664462804794312,0.38681986927986145,0.7082265019416809,-0.5625532269477844,0.9570696353912354,0.6782830953598022,0.70527184009552,-0.33783337473869324,0.9342150092124939,0.3889477252960205,0.7550879716873169,-0.6294758319854736,0.9171199202537537,0.6620120406150818,0.7052708864212036,-0.40790435671806335,0.9413224458694458,0.41252925992012024,0.7545695900917053,-0.7004395127296448,0.9222306609153748,0.6508918404579163,0.6965452432632446,-0.3025868535041809,0.9392334818840027,0.4176906943321228,0.7389670014381409,-0.5904670357704163,0.9218640327453613,0.5800378918647766,0.6558994650840759,0.04311840981245041,0.9982630610466003,0.43358057737350464,0.6691802740097046,-0.04294922947883606,0.997480571269989,0.5800443887710571,0.8791201710700989,-0.03741249442100525,0.6391089558601379,0.4501018822193146,0.888727068901062,-0.08051621913909912,0.5414792895317078,0.5654659867286682,1.0527536869049072,0.3289244472980499,0.37166154384613037,0.4472411572933197,1.0611467361450195,0.27807313203811646,0.3448701500892639,0.5567989349365234,1.0828232765197754,0.3470475673675537,0.25132736563682556,0.4485745429992676,1.0804177522659302,0.2978817820549011,0.1542934626340866,0.5994714498519897,1.1283750534057617,0.08334449678659439,0.312404602766037,0.47337260842323303,1.1382501125335693,-0.015298658050596714,0.31466254591941833
15452.14181097172,0.5050839781761169,0.27345582842826843,-0.7789619565010071,0.9999514818191528,0.5181850790977478,0.2525281310081482,-0.743707001209259,0.999862790107727,0.5273080468177795,0.2522759735584259,-0.7438534498214722,0.9998416900634766,0.5362496376037598,0.25206315517425537,-0.7440472841262817,0.9998408555984497,0.48565801978111267,0.2535187900066376,-0.7647735476493835,0.9998589754104614,0.4696609079837799,0.2539145350456238,-0.764889121055603,0.999855637550354,0.45715683698654175,0.25441429018974304,-0.7650957703590393,0.9998540878295898,0.5432628393173218,0.2604398727416992,-0.4887404441833496,0.9997411370277405,0.4301030933856964,0.2631576955318451,-0.5929145216941833,0.9998738765716553,0.5197781920433044,0.2946755886077881,-0.6774094104766846,0.9999710321426392,0.48021718859672546,0.294888436794281,-0.7071893215179443,0.9999744892120361,0.6146864295005798,0.3735065460205078,-0.26815304160118103,0.9999511241912842,0.34265267848968506,0.38396507501602173,-0.4888330101966858,0.9999215602874756,0.6454396843910217,0.5287711024284363,-0.10831058025360107,0.970012366771698,0.3455345034599304,0.5639960169792175,-0.44219255447387695,0.9907178282737732,0.6634659171104431,0.663006603717804,-0.263118177652359,0.9680371284484863,0.38754913210868835,0.7089056372642517,-0.568665087223053,0.9587212800979614,0.6782866716384888,0.7063001990318298,-0.3308772146701813,0.9364669919013977,0.3895137906074524,0.7555328607559204,-0.6367020606994629,0.9198923707008362,0.6616247892379761,0.7061060667037964,-0.3992357552051544,0.9434158205986023,0.41321754455566406,0.754859209060669,-0.7061803936958313,0.9247505068778992,0.6505478620529175,0.6974380612373352,-0.29371222853660583,0.9413034915924072,0.41839471459388733,0.7395002841949463,-0.5960606336593628,0.9244800209999084,0.5804390907287598,0.6571155190467834,0.04739375039935112,0.9980654120445251,0.4332520663738251,0.6704496145248413,-0.04716724157333374,0.9972721934318542,0.5799749493598938,0.8798514604568481,-0.02993752621114254,0.6298022270202637,0.45201173424720764,0.8900396823883057,-0.08407022058963776,0.5493064522743225,0.5641134977340698,1.0522842407226562,0.347093403339386,0.33946073055267334,0.44685089588165283,1.0594900846481323,0.27695080637931824,0.32772475481033325,0.5552160739898682,1.0816740989685059,0.36653345823287964,0.2499203085899353,0.4473417401313782,1.078501582145691,0.2974332273006439,0.150941863656044,0.6024125814437866,1.1264092922210693,0.10970635712146759,0.2770370543003082,0.4747709631919861,1.136188268661499,-0.013253717683255672,0.28716686367988586
15468.808477638386,0.505635678768158,0.27313369512557983,-0.7589218020439148,0.9999493360519409,0.5187435150146484,0.25219881534576416,-0.7247183322906494,0.9998526573181152,0.5279350876808167,0.252005010843277,-0.7248611450195312,0.9998282194137573,0.5368803143501282,0.2519034445285797,-0.725054144859314,0.9998291730880737,0.48613500595092773,0.2528572976589203,-0.7462829351425171,0.9998519420623779,0.47016382217407227,0.25320717692375183,-0.7464016675949097,0.9998481273651123,0.4572249948978424,0.25381794571876526,-0.7466038465499878,0.9998495578765869,0.543354868888855,0.26037201285362244,-0.4758157432079315,0.9997201561927795,0.42982837557792664,0.2631063759326935,-0.5817647576332092,0.9998683929443359,0.5200638175010681,0.29461637139320374,-0.659381628036499,0.9999690055847168,0.4801827669143677,0.2947421669960022,-0.6897165775299072,0.9999728202819824,0.6139545440673828,0.3736056089401245,-0.26008641719818115,0.9999477863311768,0.34274858236312866,0.38382184505462646,-0.4822079837322235,0.9999227523803711,0.6454297304153442,0.5287110209465027,-0.10003198683261871,0.966218113899231,0.34571248292922974,0.5638609528541565,-0.4342995882034302,0.9905391931533813,0.6635856032371521,0.6623968482017517,-0.2440652996301651,0.9630772471427917,0.3873595893383026,0.7089983224868774,-0.551092267036438,0.9588034749031067,0.6781019568443298,0.7057141661643982,-0.3080262839794159,0.9281513690948486,0.38911497592926025,0.7556198239326477,-0.6169156432151794,0.9201958775520325,0.6618236303329468,0.7056188583374023,-0.37587496638298035,0.9358389973640442,0.4125615060329437,0.7549675107002258,-0.6849888563156128,0.9250597953796387,0.6508488059043884,0.6968309879302979,-0.2742242217063904,0.9342187643051147,0.4178176820278168,0.7394168972969055,-0.5778340697288513,0.9247505068778992,0.5808647871017456,0.6565947532653809,0.044887807220220566,0.9980777502059937,0.4336838126182556,0.6702505946159363,-0.04470502957701683,0.9973570704460144,0.5807818174362183,0.8798593282699585,-0.03198461979627609,0.6275270581245422,0.45045673847198486,0.8894603848457336,-0.08456750959157944,0.5382272601127625,0.5658761858940125,1.0522550344467163,0.32922133803367615,0.3420620560646057,0.4484180808067322,1.0615053176879883,0.26358792185783386,0.33068743348121643,0.5573514699935913,1.0830070972442627,0.34718626737594604,0.2394663244485855,0.4496687054634094,1.0806858539581299,0.2827923893928528,0.15004651248455048,0.6021173000335693,1.1284546852111816,0.0931352823972702,0.2835952639579773,0.4746705889701843,1.1384892463684082,-0.02275926060974598,0.29784807562828064
15485.475144305052,0.5057304501533508,0.2732192575931549,-0.7839306592941284,0.999948263168335,0.5188823938369751,0.2521502673625946,-0.7494693398475647,0.9998530149459839,0.5280537605285645,0.25189831852912903,-0.7496098875999451,0.999828577041626,0.5370494723320007,0.25176092982292175,-0.7498043775558472,0.9998290538787842,0.4860844612121582,0.25302761793136597,-0.7709915041923523,0.9998505115509033,0.4699833393096924,0.2534492015838623,-0.7711116075515747,0.9998466968536377,0.45699289441108704,0.25408992171287537,-0.771319568157196,0.9998478889465332,0.5434154868125916,0.26023685932159424,-0.49662870168685913,0.9997206330299377,0.42967283725738525,0.2634330987930298,-0.6026212573051453,0.99986732006073,0.5203434228897095,0.2947348952293396,-0.682908833026886,0.9999686479568481,0.48014557361602783,0.2949184477329254,-0.7132304906845093,0.9999725818634033,0.613926887512207,0.37386205792427063,-0.2738673985004425,0.9999463558197021,0.34241047501564026,0.38357943296432495,-0.4997829794883728,0.9999223947525024,0.644799530506134,0.5293511152267456,-0.11329341679811478,0.9661160707473755,0.34576958417892456,0.5644518136978149,-0.454850971698761,0.9907501339912415,0.6638348698616028,0.662031888961792,-0.2639404535293579,0.9634556770324707,0.3874550759792328,0.7090948224067688,-0.5797834992408752,0.958876371383667,0.6781467199325562,0.7054241299629211,-0.3301880359649658,0.9283208250999451,0.38868993520736694,0.7555251121520996,-0.6476839184761047,0.9200602769851685,0.6614309549331665,0.7051768898963928,-0.399062842130661,0.9360805153846741,0.41271910071372986,0.7548571228981018,-0.7172797322273254,0.9249070286750793,0.6505504846572876,0.696366548538208,-0.2948509156703949,0.9342129230499268,0.418040931224823,0.7393644452095032,-0.6072820425033569,0.9247404336929321,0.5808038115501404,0.6564974188804626,0.046670421957969666,0.9979448914527893,0.43243134021759033,0.6697097420692444,-0.04646291211247444,0.9971952438354492,0.5807202458381653,0.8805564641952515,-0.02861165814101696,0.633981466293335,0.45009392499923706,0.8892633318901062,-0.08658993989229202,0.552015483379364,0.5645012855529785,1.052621841430664,0.3382768929004669,0.3488242030143738,0.44721293449401855,1.0618990659713745,0.26317334175109863,0.3366989493370056,0.5547162294387817,1.083193302154541,0.3564150631427765,0.24583551287651062,0.44829732179641724,1.081074595451355,0.28219324350357056,0.15280680358409882,0.6012170314788818,1.128725528717041,0.09877455979585648,0.2883530557155609,0.47454339265823364,1.1389813423156738,-0.028026601299643517,0.3003285229206085
15502.141810971718,0.5057929754257202,0.2731165885925293,-0.7726253271102905,0.9999513626098633,0.5189477801322937,0.25211623311042786,-0.7387797236442566,0.9998601675033569,0.5281392931938171,0.25187957286834717,-0.7389144897460938,0.9998350143432617,0.5371469855308533,0.2517480254173279,-0.739104151725769,0.9998362064361572,0.4862602651119232,0.25288569927215576,-0.7600266933441162,0.999860405921936,0.47026121616363525,0.25326135754585266,-0.7601509094238281,0.9998565912246704,0.4572705030441284,0.25389334559440613,-0.76035475730896,0.9998596906661987,0.5434736013412476,0.2601684331893921,-0.48945239186286926,0.9997264742851257,0.4298367500305176,0.26321178674697876,-0.5942361354827881,0.9998764991760254,0.5202592611312866,0.2945924401283264,-0.6728976964950562,0.9999699592590332,0.4802199900150299,0.2947806715965271,-0.7028715014457703,0.9999743700027466,0.6139351725578308,0.373636394739151,-0.2701834738254547,0.999945878982544,0.34246939420700073,0.383743554353714,-0.49493932723999023,0.9999276399612427,0.6447520852088928,0.5295272469520569,-0.11026716232299805,0.9653900265693665,0.34576237201690674,0.5650528073310852,-0.4487053453922272,0.9912759065628052,0.6637471318244934,0.6622000932693481,-0.2538496255874634,0.9627866744995117,0.3874678611755371,0.7092511057853699,-0.5655156970024109,0.9608893394470215,0.6780837774276733,0.7055257558822632,-0.31823739409446716,0.9272352457046509,0.3886796236038208,0.7556570172309875,-0.6316848993301392,0.9229615926742554,0.6614450812339783,0.7052822113037109,-0.3857688009738922,0.9349943995475769,0.41266122460365295,0.7549604177474976,-0.6997361183166504,0.9276348948478699,0.6505714058876038,0.6964573860168457,-0.2840001583099365,0.9332873821258545,0.41797637939453125,0.7394461035728455,-0.5922233462333679,0.9275100827217102,0.5809988975524902,0.6569653749465942,0.04692987725138664,0.9980015158653259,0.43234938383102417,0.6702192425727844,-0.04675674065947533,0.9973253011703491,0.5807710886001587,0.8817577362060547,-0.02834438718855381,0.6265335083007812,0.45056551694869995,0.8904354572296143,-0.08738541603088379,0.5495524406433105,0.5648947954177856,1.0566380023956299,0.3323476016521454,0.34457385540008545,0.446821004152298,1.0631386041641235,0.2585277557373047,0.33680644631385803,0.5548851490020752,1.0844050645828247,0.3501860499382019,0.24463748931884766,0.447712779045105,1.0823365449905396,0.2774403691291809,0.151543989777565,0.6027383804321289,1.1298432350158691,0.09607614576816559,0.28776422142982483,0.4748382270336151,1.1403716802597046,-0.02956365793943405,0.30214783549308777
15518.808477638384,0.505487322807312,0.2729274034500122,-0.7504096031188965,0.9999496936798096,0.5186095833778381,0.251982182264328,-0.7153981328010559,0.9998546838760376,0.5277320146560669,0.251773476600647,-0.7155490517616272,0.9998315572738647,0.5366389155387878,0.25166743993759155,-0.7157412767410278,0.999832034111023,0.48626065254211426,0.2528148889541626,-0.7370645999908447,0.9998527765274048,0.47038522362709045,0.25321102142333984,-0.7371814250946045,0.9998493194580078,0.45765939354896545,0.2538141906261444,-0.7373837232589722,0.9998502731323242,0.5430812835693359,0.2602519392967224,-0.4651499092578888,0.9997255206108093,0.43016114830970764,0.2630035877227783,-0.5714978575706482,0.9998687505722046,0.5199352502822876,0.29441264271736145,-0.650673508644104,0.9999693632125854,0.48020029067993164,0.29460614919662476,-0.6811242699623108,0.999972939491272,0.6140881776809692,0.3742855191230774,-0.25249919295310974,0.9999485015869141,0.342647522687912,0.3841279149055481,-0.472633957862854,0.9999210834503174,0.6452816128730774,0.5289040803909302,-0.09559985250234604,0.9654676914215088,0.34574154019355774,0.5638880729675293,-0.42522603273391724,0.9903470873832703,0.6632867455482483,0.6627505421638489,-0.24434839189052582,0.9623370170593262,0.3872183859348297,0.7086603045463562,-0.5447185635566711,0.9585722088813782,0.6778833866119385,0.7056987285614014,-0.3090595304965973,0.9274654984474182,0.3890663981437683,0.7553468346595764,-0.6108688116073608,0.9198910593986511,0.6619946360588074,0.705634593963623,-0.3770351707935333,0.9351925253868103,0.41239359974861145,0.7547802329063416,-0.6786350011825562,0.9247913956642151,0.6508965492248535,0.6969277858734131,-0.2746999263763428,0.9336058497428894,0.4175758361816406,0.7392093539237976,-0.5714431405067444,0.9243918061256409,0.5807619690895081,0.6572357416152954,0.04388110712170601,0.9981036186218262,0.4336388111114502,0.6708415746688843,-0.04369362071156502,0.9973294734954834,0.5807144641876221,0.879564106464386,-0.03660440817475319,0.6244843006134033,0.45016908645629883,0.8889708518981934,-0.08407960087060928,0.5283163189888,0.5652165412902832,1.0524004697799683,0.32861825823783875,0.33857712149620056,0.44831278920173645,1.0611634254455566,0.2674660086631775,0.3237481415271759,0.557654082775116,1.0828512907028198,0.34704700112342834,0.23520193994045258,0.44950205087661743,1.0803011655807495,0.2870696783065796,0.14714258909225464,0.60059654712677,1.1284960508346558,0.09246090054512024,0.2816944122314453,0.4745246171951294,1.1380363702774048,-0.018545962870121002,0.29412639141082764
15535.47514430505,0.5062270164489746,0.27342715859413147,-0.7935879826545715,0.9999496936798096,0.5191930532455444,0.25230368971824646,-0.7582130432128906,0.9998598098754883,0.528335690498352,0.2520144283771515,-0.7583693861961365,0.9998366832733154,0.5373614430427551,0.2517811357975006,-0.7585650682449341,0.9998354911804199,0.486659973859787,0.2533571422100067,-0.7805448174476624,0.9998546838760376,0.47079595923423767,0.2537800371646881,-0.7806771993637085,0.9998507499694824,0.45777782797813416,0.25435328483581543,-0.7808924913406372,0.9998513460159302,0.543565571308136,0.2603050768375397,-0.49758490920066833,0.9997355341911316,0.4299551248550415,0.2635851204395294,-0.607402503490448,0.9998739957809448,0.5209661722183228,0.29467496275901794,-0.6894331574440002,0.9999703168869019,0.4811183214187622,0.29518088698387146,-0.7208471298217773,0.999974250793457,0.6142570376396179,0.3739912211894989,-0.2674170732498169,0.9999493360519409,0.34115034341812134,0.3843614161014557,-0.4999995827674866,0.9999270439147949,0.6446713209152222,0.5309115052223206,-0.10738472640514374,0.9670918583869934,0.3453257977962494,0.5660244226455688,-0.4511302411556244,0.9913996458053589,0.6649060249328613,0.6632068157196045,-0.274495005607605,0.9647905826568604,0.38671183586120605,0.709595263004303,-0.5845247507095337,0.9611203074455261,0.6791701316833496,0.7066017389297485,-0.34449437260627747,0.9304528832435608,0.388205349445343,0.7562004923820496,-0.6545644998550415,0.9238563179969788,0.662562370300293,0.7062859535217285,-0.4149569272994995,0.9381568431854248,0.4128110110759735,0.7553777098655701,-0.7259734272956848,0.9287383556365967,0.6518427133560181,0.6975404024124146,-0.3065112233161926,0.9359745383262634,0.41796544194221497,0.7396757006645203,-0.6127346754074097,0.9280148148536682,0.580548882484436,0.6582595705986023,0.050143420696258545,0.9979815483093262,0.4310868978500366,0.6713553071022034,-0.04990926757454872,0.9972473978996277,0.5806589126586914,0.8822747468948364,-0.027246642857789993,0.6273118853569031,0.4485125243663788,0.8894007205963135,-0.09423290938138962,0.5547407865524292,0.5643342137336731,1.0537874698638916,0.3695119321346283,0.33676835894584656,0.44449716806411743,1.0626680850982666,0.2761591076850891,0.332071453332901,0.5550483465194702,1.0832539796829224,0.3907416760921478,0.25490283966064453,0.4448656439781189,1.081732153892517,0.2972583770751953,0.1515168994665146,0.605055570602417,1.128854751586914,0.13111825287342072,0.28224414587020874,0.47405755519866943,1.1398534774780273,-0.019832681864500046,0.2955934703350067
15552.141810971716,0.500868022441864,0.27293136715888977,-0.8781595230102539,0.999947190284729,0.5157386660575867,0.25290563702583313,-0.8407639265060425,0.9998489618301392,0.5256562232971191,0.2532752454280853,-0.8409207463264465,0.9998283386230469,0.5346184372901917,0.2534152865409851,-0.8411232233047485,0.9998227953910828,0.4828791320323944,0.25235652923583984,-0.8601381778717041,0.9998407363891602,0.4671579897403717,0.252204030752182,-0.8602727055549622,0.9998379945755005,0.4546796679496765,0.25222817063331604,-0.8604971766471863,0.9998341798782349,0.5443630218505859,0.26207801699638367,-0.5647921562194824,0.9997181296348572,0.4291622042655945,0.260145902633667,-0.6620669960975647,0.9998549222946167,0.5154690146446228,0.2948024570941925,-0.7685641646385193,0.9999693632125854,0.4735060930252075,0.2936531901359558,-0.7963847517967224,0.9999728202819824,0.6151487231254578,0.3737107515335083,-0.32379212975502014,0.9999518394470215,0.33882781863212585,0.384688138961792,-0.5221219658851624,0.999924898147583,0.6443328261375427,0.530332088470459,-0.15014468133449554,0.9722316265106201,0.3443344533443451,0.5630216598510742,-0.460175484418869,0.9893250465393066,0.6619676947593689,0.6633675694465637,-0.33553844690322876,0.9655773639678955,0.38640838861465454,0.7081127762794495,-0.6203790903091431,0.9532805681228638,0.6763047575950623,0.7065309286117554,-0.4102286994457245,0.9328422546386719,0.38786032795906067,0.7550952434539795,-0.6943914294242859,0.9117751717567444,0.6602877378463745,0.7061294317245483,-0.4851053059101105,0.9402673244476318,0.41169506311416626,0.7544693946838379,-0.7706767320632935,0.917430579662323,0.6492995619773865,0.6972653865814209,-0.36915427446365356,0.9377626776695251,0.4176376461982727,0.7387627959251404,-0.6508215069770813,0.9168309569358826,0.5803496837615967,0.6567307114601135,0.04160428047180176,0.9981514811515808,0.4313831031322479,0.6695411801338196,-0.04135827720165253,0.9973428845405579,0.5783418416976929,0.8800203204154968,-0.03205803036689758,0.6488283276557922,0.4482429623603821,0.8871042728424072,-0.0804443284869194,0.558871328830719,0.5652478933334351,1.0528528690338135,0.3850485384464264,0.3723401725292206,0.4442536234855652,1.0608371496200562,0.3152521848678589,0.3438844382762909,0.55849689245224,1.0813568830490112,0.4075036644935608,0.2603326737880707,0.4463520348072052,1.0797767639160156,0.33805885910987854,0.15583424270153046,0.6017956733703613,1.125962257385254,0.13076472282409668,0.3080763816833496,0.46902593970298767,1.1379061937332153,0.006687766406685114,0.30300992727279663
15568.808477638382,0.5019049048423767,0.2728242576122284,-0.7674379348754883,0.9999531507492065,0.5157009959220886,0.2526237368583679,-0.7326885461807251,0.9998666048049927,0.5252792239189148,0.25260481238365173,-0.7328624129295349,0.9998452663421631,0.534450352191925,0.25267091393470764,-0.7330828309059143,0.9998507499694824,0.482887864112854,0.2527002990245819,-0.7506418228149414,0.9998586177825928,0.4674447774887085,0.2529888153076172,-0.7507562637329102,0.9998501539230347,0.45493003726005554,0.2535228729248047,-0.7509628534317017,0.9998542070388794,0.5436025261878967,0.26108118891716003,-0.48569345474243164,0.9997618794441223,0.42922237515449524,0.26230382919311523,-0.5746834874153137,0.999862551689148,0.5173884034156799,0.29467689990997314,-0.6693325042724609,0.999971866607666,0.4762302041053772,0.2942085564136505,-0.6949065327644348,0.9999727010726929,0.6150490045547485,0.37490251660346985,-0.2841903269290924,0.9999504089355469,0.34161484241485596,0.3852567970752716,-0.46139246225357056,0.99989914894104,0.6454514861106873,0.5310118794441223,-0.13093464076519012,0.9728758931159973,0.347206711769104,0.565097451210022,-0.40440085530281067,0.9879235625267029,0.6649172902107239,0.6639453172683716,-0.27913424372673035,0.9665770530700684,0.3868817985057831,0.706367015838623,-0.5342758297920227,0.9533791542053223,0.6780481338500977,0.7085257172584534,-0.34482312202453613,0.9343043565750122,0.38612067699432373,0.753850519657135,-0.6009383201599121,0.9125621318817139,0.6623184084892273,0.7083749771118164,-0.4138096570968628,0.9414747953414917,0.4093850553035736,0.7541155219078064,-0.6707178354263306,0.9189052581787109,0.651874840259552,0.6992338299751282,-0.30936095118522644,0.9403514266014099,0.41600501537323,0.7381556630134583,-0.5623258352279663,0.919426679611206,0.5793904662132263,0.6557095646858215,0.026425037533044815,0.9982181191444397,0.43118077516555786,0.6680686473846436,-0.026202183216810226,0.9972381591796875,0.5819599628448486,0.8770759105682373,-0.07311717420816422,0.6793836355209351,0.44765806198120117,0.8874143958091736,-0.077667236328125,0.5418515205383301,0.5680606961250305,1.048652172088623,0.3308871388435364,0.34663423895835876,0.4499881863594055,1.054598331451416,0.2980414032936096,0.3178377151489258,0.5668720006942749,1.0767805576324463,0.3529711365699768,0.21176718175411224,0.45565250515937805,1.0722726583480835,0.32086315751075745,0.1386280506849289,0.5972859859466553,1.1262447834014893,0.09369143098592758,0.26573318243026733,0.4651184380054474,1.132534384727478,0.016260752454400063,0.28105899691581726
15585.475144305048,0.5030322670936584,0.2730291187763214,-0.761806309223175,0.9999589920043945,0.5166599154472351,0.25256749987602234,-0.7274729609489441,0.9998849630355835,0.5262242555618286,0.2524538040161133,-0.7276473045349121,0.9998654127120972,0.5354384183883667,0.2524178624153137,-0.7278673648834229,0.9998699426651001,0.48378631472587585,0.2529437243938446,-0.7450063228607178,0.9998799562454224,0.4680376350879669,0.25325635075569153,-0.7451179623603821,0.9998722076416016,0.45540952682495117,0.25377365946769714,-0.7453197240829468,0.9998767375946045,0.5445948243141174,0.26084795594215393,-0.4831557273864746,0.9997943043708801,0.429214209318161,0.2626984417438507,-0.5703049302101135,0.9998857975006104,0.5186191201210022,0.2945517897605896,-0.6646890044212341,0.9999754428863525,0.47767752408981323,0.29452046751976013,-0.689732015132904,0.999976634979248,0.6159937977790833,0.37506797909736633,-0.28725987672805786,0.9999520778656006,0.3418283462524414,0.38612309098243713,-0.455997496843338,0.9999059438705444,0.6459280252456665,0.5313847064971924,-0.13318413496017456,0.9723044037818909,0.3469371199607849,0.5656535625457764,-0.3976803123950958,0.9881500005722046,0.6653745770454407,0.6635063290596008,-0.27561476826667786,0.9655994176864624,0.387005478143692,0.706269383430481,-0.5241590738296509,0.9548689723014832,0.6785377264022827,0.7077004909515381,-0.3400411903858185,0.9334551692008972,0.3860565721988678,0.7536700963973999,-0.5894713997840881,0.9152774214744568,0.6624847650527954,0.7075554132461548,-0.4079880118370056,0.940562903881073,0.4090878367424011,0.7538387775421143,-0.6583024263381958,0.9214982986450195,0.6520432233810425,0.698488712310791,-0.30520373582839966,0.9398593902587891,0.4157980978488922,0.7380102872848511,-0.551799476146698,0.922181248664856,0.5805312395095825,0.656219482421875,0.02299278788268566,0.998279333114624,0.43166443705558777,0.6687963604927063,-0.02278156206011772,0.9973342418670654,0.5819289684295654,0.8773444294929504,-0.07173816114664078,0.6871885657310486,0.4472246766090393,0.8879611492156982,-0.0715462937951088,0.5507173538208008,0.5681106448173523,1.0487174987792969,0.3324485123157501,0.35284367203712463,0.45040786266326904,1.0547430515289307,0.30079612135887146,0.3241097927093506,0.5678123831748962,1.0773264169692993,0.35489001870155334,0.2149042785167694,0.4567868411540985,1.0723333358764648,0.3237660229206085,0.14248327910900116,0.5978877544403076,1.126840591430664,0.09987863898277283,0.269227534532547,0.46404606103897095,1.1328388452529907,0.023791756480932236,0.2844538390636444
15602.141810971714,0.5027130246162415,0.2732844650745392,-0.7682435512542725,0.9999593496322632,0.5164973139762878,0.2527037560939789,-0.7342987656593323,0.9998871088027954,0.52606600522995,0.2525803744792938,-0.7344726324081421,0.999869704246521,0.53535395860672,0.25250759720802307,-0.7346950173377991,0.9998743534088135,0.48316794633865356,0.2533251643180847,-0.7514797449111938,0.9998781681060791,0.4673832356929779,0.25372686982154846,-0.7515852451324463,0.9998699426651001,0.4547795057296753,0.25425323843955994,-0.7517848610877991,0.9998732805252075,0.5446763634681702,0.26103535294532776,-0.48869866132736206,0.9998026490211487,0.42900440096855164,0.26324236392974854,-0.574097752571106,0.9998825788497925,0.5185242295265198,0.294723242521286,-0.6703154444694519,0.9999756813049316,0.47719210386276245,0.2948707640171051,-0.6948388814926147,0.9999761581420898,0.6158066987991333,0.3754674196243286,-0.28868213295936584,0.9999567270278931,0.3418980836868286,0.38547953963279724,-0.45796075463294983,0.9999046325683594,0.6454417705535889,0.531689465045929,-0.1360854059457779,0.9737975001335144,0.346038818359375,0.5645869970321655,-0.4007199704647064,0.9879761338233948,0.6655237674713135,0.6635192632675171,-0.284919798374176,0.9688560962677002,0.38751891255378723,0.705797553062439,-0.532692551612854,0.9536533951759338,0.6789658069610596,0.7084710597991943,-0.3511958718299866,0.9390602111816406,0.3869076073169708,0.7540612816810608,-0.5994892716407776,0.9130612015724182,0.6629270911216736,0.7083325982093811,-0.42069926857948303,0.9457019567489624,0.4100092947483063,0.7543379664421082,-0.6688934564590454,0.9194667935371399,0.6525079607963562,0.6991224884986877,-0.3153201937675476,0.9446461200714111,0.41643938422203064,0.7381647825241089,-0.5607057213783264,0.9206427931785583,0.579712986946106,0.6550018787384033,0.023806119337677956,0.9982652068138123,0.4305841326713562,0.6675669550895691,-0.023560410365462303,0.9972833395004272,0.5827693939208984,0.87669837474823,-0.07749435305595398,0.6987038254737854,0.44650837779045105,0.8825845718383789,-0.07468715310096741,0.5606393814086914,0.5687766671180725,1.0450900793075562,0.32094523310661316,0.35986560583114624,0.4493043124675751,1.0534371137619019,0.2925933003425598,0.3276832401752472,0.5689034461975098,1.075777530670166,0.3425392806529999,0.2103126496076584,0.45527929067611694,1.0710173845291138,0.3147948086261749,0.14129239320755005,0.5977393984794617,1.1259512901306152,0.0836573913693428,0.2707962989807129,0.46367672085762024,1.1317132711410522,0.012286469340324402,0.28412309288978577
15618.80847763838,0.5033208727836609,0.2733255624771118,-0.7535679936408997,0.9999545812606812,0.517117977142334,0.25259390473365784,-0.7190477252006531,0.9998760223388672,0.5264966487884521,0.2524273693561554,-0.7192230820655823,0.9998568296432495,0.535720944404602,0.25230392813682556,-0.719444215297699,0.9998623132705688,0.48369213938713074,0.2534805238246918,-0.7378990054130554,0.9998654127120972,0.46768468618392944,0.2539293169975281,-0.7380085587501526,0.9998564720153809,0.45501571893692017,0.2544707953929901,-0.7382126450538635,0.9998600482940674,0.544373631477356,0.2607872188091278,-0.473137229681015,0.9997809529304504,0.4287990629673004,0.26353657245635986,-0.5661818385124207,0.9998701810836792,0.5188233852386475,0.29449084401130676,-0.655668318271637,0.9999727010726929,0.47784948348999023,0.2949187159538269,-0.6823610663414001,0.9999734163284302,0.6152701377868652,0.37576982378959656,-0.27300161123275757,0.999954104423523,0.34186315536499023,0.3854900896549225,-0.4568891227245331,0.9998973608016968,0.6448111534118652,0.5315877199172974,-0.12339523434638977,0.9711968898773193,0.34657925367355347,0.5648337006568909,-0.40475061535835266,0.9879770874977112,0.6654151678085327,0.6634443998336792,-0.2759092450141907,0.9679103493690491,0.3877076804637909,0.706579327583313,-0.5347168445587158,0.9535550475120544,0.6789054274559021,0.7079020142555237,-0.3423064947128296,0.937125027179718,0.38696351647377014,0.7544454336166382,-0.6017546057701111,0.9128337502479553,0.662922739982605,0.7078378200531006,-0.4118836224079132,0.9440246820449829,0.41013744473457336,0.755105197429657,-0.6698204278945923,0.9190877079963684,0.6524913907051086,0.6987441182136536,-0.3066456615924835,0.9429236650466919,0.4163758456707001,0.7390164136886597,-0.5621090531349182,0.9201348423957825,0.5788780450820923,0.6549612283706665,0.02755764126777649,0.9981698989868164,0.43042120337486267,0.6676476001739502,-0.02729429118335247,0.9972110390663147,0.5823447704315186,0.876198410987854,-0.07391107827425003,0.6722502708435059,0.4457746148109436,0.8826363682746887,-0.08214753866195679,0.5305542945861816,0.5680996179580688,1.044221043586731,0.32277974486351013,0.3317047953605652,0.44802287220954895,1.0530674457550049,0.2837032973766327,0.30818015336990356,0.5684434175491333,1.0738404989242554,0.34435921907424927,0.1986343115568161,0.45352423191070557,1.0706384181976318,0.30560359358787537,0.13151219487190247,0.598468542098999,1.1245770454406738,0.08774302899837494,0.2544562816619873,0.4632726311683655,1.1314133405685425,0.0027415258809924126,0.27024954557418823
15635.475144305046,0.5026905536651611,0.27331599593162537,-0.8023527264595032,0.9999550580978394,0.5165266394615173,0.2524663507938385,-0.7670778632164001,0.9998795986175537,0.5258457660675049,0.25225332379341125,-0.7672564387321472,0.9998607635498047,0.5350339412689209,0.252092570066452,-0.7674856185913086,0.9998650550842285,0.483381450176239,0.25349539518356323,-0.7858611941337585,0.999868631362915,0.4674455523490906,0.2539496421813965,-0.785986065864563,0.9998602867126465,0.4548957943916321,0.25447767972946167,-0.78619384765625,0.9998631477355957,0.5439902544021606,0.26045918464660645,-0.5131146311759949,0.9997913241386414,0.4289887249469757,0.26342862844467163,-0.6060897707939148,0.9998742341995239,0.5181673765182495,0.29427680373191833,-0.7012598514556885,0.9999737739562988,0.47752881050109863,0.2947816550731659,-0.7279631495475769,0.9999741315841675,0.6159794330596924,0.37568017840385437,-0.30373135209083557,0.9999551773071289,0.34128066897392273,0.3859606385231018,-0.4825482964515686,0.9999004602432251,0.6463136076927185,0.5314825177192688,-0.1486547738313675,0.9726510047912598,0.3466789126396179,0.5652034878730774,-0.4252273440361023,0.9879945516586304,0.6650992035865784,0.6643471121788025,-0.31053054332733154,0.9660454392433167,0.38826942443847656,0.7066493034362793,-0.5651719570159912,0.9519891142845154,0.6781367063522339,0.7083423137664795,-0.37941980361938477,0.9332482218742371,0.38797247409820557,0.7540189027786255,-0.634229302406311,0.909906268119812,0.6624115109443665,0.7082143425941467,-0.45040756464004517,0.9406041502952576,0.4111708700656891,0.7544971704483032,-0.7045159935951233,0.9164081811904907,0.6519321799278259,0.6991751194000244,-0.3419371545314789,0.9395504593849182,0.41740143299102783,0.7387108206748962,-0.593481183052063,0.9170160889625549,0.5811141133308411,0.6544930338859558,0.025049638003110886,0.9981698989868164,0.4320662319660187,0.6671631932258606,-0.024786625057458878,0.9971235394477844,0.5820055603981018,0.8758342862129211,-0.07521544396877289,0.6692761778831482,0.445498526096344,0.8815389275550842,-0.07646270096302032,0.5256910920143127,0.5676441788673401,1.0440729856491089,0.3436584770679474,0.3328317403793335,0.44911181926727295,1.0533961057662964,0.30541980266571045,0.3085530698299408,0.5689246654510498,1.0741534233093262,0.3671674430370331,0.20660296082496643,0.4553157389163971,1.071016550064087,0.328634649515152,0.1356554925441742,0.5987898111343384,1.1239409446716309,0.10558490455150604,0.2593335807323456,0.46368950605392456,1.1316152811050415,0.019931025803089142,0.27196747064590454
15652.141810971712,0.5026373863220215,0.273345947265625,-0.7740125060081482,0.9999517202377319,0.5165567994117737,0.2524888813495636,-0.7393523454666138,0.9998685121536255,0.5259321331977844,0.25226879119873047,-0.7395258545875549,0.9998478889465332,0.5351575016975403,0.2521039545536041,-0.7397525310516357,0.9998540878295898,0.48334363102912903,0.2535300552845001,-0.7582563757896423,0.999858021736145,0.46739816665649414,0.2540053427219391,-0.7583761215209961,0.9998488426208496,0.45485347509384155,0.25455763936042786,-0.7585827112197876,0.9998530149459839,0.5441766381263733,0.2604313790798187,-0.4902328550815582,0.9997672438621521,0.42887580394744873,0.2635246515274048,-0.5835031867027283,0.9998619556427002,0.5181393623352051,0.29432323575019836,-0.6747059226036072,0.9999711513519287,0.47743794322013855,0.2948057949542999,-0.7014895081520081,0.9999717473983765,0.61564040184021,0.3755941092967987,-0.28519079089164734,0.9999524354934692,0.3414722681045532,0.3854316771030426,-0.4692257046699524,0.9998953342437744,0.6460607647895813,0.5313768982887268,-0.1334586888551712,0.9712698459625244,0.3466833829879761,0.5647544264793396,-0.4144518971443176,0.9877336025238037,0.6654134392738342,0.663699746131897,-0.2875286340713501,0.9660295248031616,0.3878806531429291,0.706682562828064,-0.5451723337173462,0.9512112140655518,0.6788809299468994,0.7079755067825317,-0.3543130159378052,0.9333780407905579,0.3874039053916931,0.7541857361793518,-0.6124944686889648,0.9084236025810242,0.6627769470214844,0.7079052329063416,-0.42384830117225647,0.9407322406768799,0.41048210859298706,0.7547091245651245,-0.6810643076896667,0.9149446487426758,0.6522403955459595,0.698836624622345,-0.3182094693183899,0.9394897222518921,0.41666415333747864,0.7388468384742737,-0.5726861357688904,0.9157686829566956,0.5798981189727783,0.6547779440879822,0.02792157605290413,0.9981016516685486,0.4311937093734741,0.6674872636795044,-0.027681168168783188,0.9970799088478088,0.582327663898468,0.8767238855361938,-0.07423887401819229,0.6595625281333923,0.44642940163612366,0.8824625015258789,-0.08243522047996521,0.5169075727462769,0.5688817501068115,1.0456349849700928,0.32497331500053406,0.3283553719520569,0.44800645112991333,1.054977536201477,0.2868613600730896,0.30501317977905273,0.5687271356582642,1.075783133506775,0.346653014421463,0.19754642248153687,0.45332691073417664,1.0727488994598389,0.30880874395370483,0.1300041675567627,0.5989554524421692,1.1258270740509033,0.08698205649852753,0.2557382583618164,0.4641573131084442,1.1331522464752197,0.00252685253508389,0.2703053057193756
15668.808477638378,0.5019060373306274,0.27328965067863464,-0.7996315956115723,0.999955415725708,0.5160804390907288,0.2524189352989197,-0.763903021812439,0.9998816251754761,0.5255619883537292,0.2522030472755432,-0.7640804052352905,0.999863862991333,0.5349003672599792,0.25206589698791504,-0.7643023133277893,0.9998679161071777,0.48254165053367615,0.25343409180641174,-0.782563328742981,0.9998675584793091,0.46666449308395386,0.2539384663105011,-0.7826834917068481,0.9998584985733032,0.4541381895542145,0.2545117139816284,-0.7828940749168396,0.9998599290847778,0.5444478988647461,0.260367751121521,-0.5094979405403137,0.9997982382774353,0.42864611744880676,0.26353520154953003,-0.6016674041748047,0.9998735189437866,0.5178833603858948,0.29442504048347473,-0.6987563371658325,0.9999750852584839,0.47654154896736145,0.2948419749736786,-0.7251618504524231,0.9999752044677734,0.6163011789321899,0.37588706612586975,-0.2988975942134857,0.9999568462371826,0.3411235213279724,0.3855954110622406,-0.4823330044746399,0.9998975992202759,0.6453801393508911,0.5313475728034973,-0.14553406834602356,0.9730411171913147,0.34651583433151245,0.5651026368141174,-0.42862147092819214,0.988461971282959,0.6653844118118286,0.6646364331245422,-0.31141582131385803,0.9698463082313538,0.3877473473548889,0.7072619795799255,-0.5724543333053589,0.9543083310127258,0.6791990995407104,0.709242582321167,-0.3815736174583435,0.9400993585586548,0.3871588706970215,0.754782497882843,-0.6430590748786926,0.9133629202842712,0.6632671356201172,0.709075927734375,-0.4540790021419525,0.9465787410736084,0.410239040851593,0.7554607391357422,-0.7137089967727661,0.9194657802581787,0.652786374092102,0.7000547647476196,-0.3436516523361206,0.945425808429718,0.4162287712097168,0.7394400835037231,-0.6011902093887329,0.9207663536071777,0.5800469517707825,0.6545105576515198,0.028206758201122284,0.9982492923736572,0.4313286542892456,0.6671844124794006,-0.027921289205551147,0.997257649898529,0.5825639963150024,0.8752530217170715,-0.0664655789732933,0.692705512046814,0.4457647204399109,0.8809686899185181,-0.07184088975191116,0.5552247762680054,0.5672805905342102,1.041473388671875,0.3575761914253235,0.3480086326599121,0.44996410608291626,1.0495522022247314,0.3181653916835785,0.3192906975746155,0.5680534839630127,1.0702887773513794,0.38138502836227417,0.21300286054611206,0.4559977352619171,1.0668623447418213,0.3421410024166107,0.14053374528884888,0.599149227142334,1.1216411590576172,0.1177184134721756,0.2668132483959198,0.46584638953208923,1.1282951831817627,0.032102279365062714,0.2800167500972748
15685.475144305045,0.49796563386917114,0.2734718918800354,-0.866040825843811,0.9999604225158691,0.5134391784667969,0.25357723236083984,-0.82846999168396,0.9998927116394043,0.5231233239173889,0.2536856234073639,-0.8286482095718384,0.9998787641525269,0.5322731137275696,0.2537650167942047,-0.8288683295249939,0.9998791217803955,0.47976553440093994,0.2535812556743622,-0.8459876775741577,0.9998778104782104,0.4649779796600342,0.2534496784210205,-0.8461199998855591,0.9998722076416016,0.4530404508113861,0.25348055362701416,-0.8463276624679565,0.9998688697814941,0.5431400537490845,0.2622528672218323,-0.557318925857544,0.999815046787262,0.4295419156551361,0.26142171025276184,-0.6448146104812622,0.9998807907104492,0.5132914781570435,0.29456186294555664,-0.7588886022567749,0.9999791383743286,0.4717687964439392,0.2939482629299164,-0.7838910222053528,0.9999784231185913,0.6156400442123413,0.37514010071754456,-0.32990992069244385,0.9999663829803467,0.34140270948410034,0.38493314385414124,-0.5029599666595459,0.9999088048934937,0.6444309949874878,0.529225766658783,-0.1682538092136383,0.9792397022247314,0.3469153940677643,0.5636160373687744,-0.4429623782634735,0.988243043422699,0.6632042527198792,0.6629499197006226,-0.3598412871360779,0.9736480712890625,0.3872319459915161,0.707632839679718,-0.6157382130622864,0.9511677622795105,0.6762946248054504,0.7068168520927429,-0.43667882680892944,0.9460471868515015,0.3863058388233185,0.7545454502105713,-0.6919797658920288,0.9087458848953247,0.6614086031913757,0.7068700790405273,-0.513464629650116,0.9520475268363953,0.4089636206626892,0.755641758441925,-0.7688309550285339,0.915299654006958,0.6505423784255981,0.698059618473053,-0.3942086398601532,0.9503551125526428,0.4150102436542511,0.7400921583175659,-0.6472647190093994,0.9164454340934753,0.5810820460319519,0.6534957885742188,0.027866180986166,0.9985413551330566,0.4335831105709076,0.6647927761077881,-0.027534909546375275,0.997444748878479,0.5802189111709595,0.8708837628364563,-0.08467043936252594,0.6985270380973816,0.44382017850875854,0.8753650188446045,-0.06991935521364212,0.5423259735107422,0.5748127698898315,1.0463206768035889,0.3567453622817993,0.3531389534473419,0.4444594979286194,1.0443174839019775,0.3563491702079773,0.2983502447605133,0.5652909278869629,1.067994236946106,0.381801575422287,0.21984370052814484,0.4500082731246948,1.0613521337509155,0.3832893371582031,0.13553643226623535,0.5938221216201782,1.1190598011016846,0.10364003479480743,0.2714323401451111,0.45995384454727173,1.1227086782455444,0.062460288405418396,0.26185697317123413
15702.14181097171,0.5052782893180847,0.2723643481731415,-0.7282335758209229,0.999946117401123,0.5185617804527283,0.2516250014305115,-0.692513644695282,0.9998520612716675,0.5280680656433105,0.2513424754142761,-0.6926950216293335,0.9998206496238708,0.5372178554534912,0.2511945068836212,-0.6929026246070862,0.9998277425765991,0.4860764443874359,0.2527257800102234,-0.7132737636566162,0.9998488426208496,0.47005099058151245,0.25317296385765076,-0.7133992314338684,0.99983811378479,0.45703238248825073,0.2537791132926941,-0.7136104106903076,0.9998475313186646,0.5454611778259277,0.2596043348312378,-0.44895440340042114,0.9997153878211975,0.4302656054496765,0.26285749673843384,-0.5502838492393494,0.999864935874939,0.5205546617507935,0.2934491038322449,-0.6320521831512451,0.9999685287475586,0.4809889793395996,0.293975830078125,-0.6610351204872131,0.9999721050262451,0.6156548261642456,0.3759273886680603,-0.24893128871917725,0.9999407529830933,0.3423623740673065,0.3863639533519745,-0.4578574001789093,0.9998965263366699,0.6441256999969482,0.5303539037704468,-0.10213039070367813,0.9667974710464478,0.3446335196495056,0.5650826096534729,-0.41732990741729736,0.9906712770462036,0.6664083003997803,0.6629596948623657,-0.24802859127521515,0.9648261666297913,0.38776206970214844,0.7055613398551941,-0.5420541763305664,0.9611700773239136,0.6798886656761169,0.706672191619873,-0.31230929493904114,0.9308919310569763,0.38729327917099,0.7524408102035522,-0.6099255084991455,0.9219932556152344,0.6627166867256165,0.7073490619659424,-0.37934383749961853,0.9382485151290894,0.411662757396698,0.7529593706130981,-0.6739373803138733,0.9275217652320862,0.6523324847221375,0.6983162760734558,-0.2780311703681946,0.9375708699226379,0.4183986783027649,0.7375654578208923,-0.5677359700202942,0.9286802411079407,0.5787160992622375,0.6551333665847778,0.032808415591716766,0.997955322265625,0.4303893744945526,0.6676210761070251,-0.032568421214818954,0.9970692992210388,0.5810900330543518,0.8755749464035034,-0.06028209626674652,0.6616934537887573,0.44534724950790405,0.8847218751907349,-0.07958310097455978,0.5100584626197815,0.5643711686134338,1.0407971143722534,0.33793556690216064,0.3111424744129181,0.44325506687164307,1.0524072647094727,0.2936205267906189,0.29410263895988464,0.5690688490867615,1.072479486465454,0.35947859287261963,0.18681547045707703,0.44849875569343567,1.0700727701187134,0.316165953874588,0.12984561920166016,0.6017439365386963,1.1226269006729126,0.10584703832864761,0.23534676432609558,0.45647239685058594,1.1300606727600098,0.012256721965968609,0.2631540298461914
15718.808477638377,0.5064655542373657,0.2729986011981964,-0.7861037254333496,0.9999513626098633,0.5194523930549622,0.2525831162929535,-0.7491587400436401,0.999864935874939,0.5287459492683411,0.2524434030056,-0.7493496537208557,0.999842643737793,0.5377213954925537,0.2521096467971802,-0.7495558261871338,0.9998443126678467,0.4879155457019806,0.2531127333641052,-0.7692609429359436,0.9998561143875122,0.4728269875049591,0.2532654404640198,-0.769407331943512,0.9998507499694824,0.45956945419311523,0.2535538673400879,-0.7696079015731812,0.9998552799224854,0.5451728105545044,0.26012903451919556,-0.4937674105167389,0.9997584223747253,0.4314284026622772,0.26205047965049744,-0.5922195911407471,0.9998722076416016,0.5208335518836975,0.2936106026172638,-0.6854086518287659,0.999970555305481,0.482056200504303,0.2940536439418793,-0.713645875453949,0.9999735355377197,0.615206778049469,0.3754582405090332,-0.2847623825073242,0.9999459981918335,0.34275662899017334,0.3866202235221863,-0.47462353110313416,0.9999006986618042,0.6432628631591797,0.5309644341468811,-0.13500797748565674,0.9694125652313232,0.34574317932128906,0.5652626752853394,-0.42333945631980896,0.9894002079963684,0.6655918955802917,0.6633610129356384,-0.29963693022727966,0.9595856070518494,0.3871321678161621,0.7048109769821167,-0.5679014921188354,0.9547130465507507,0.6796559691429138,0.7055854201316833,-0.36757326126098633,0.9211569428443909,0.3854854106903076,0.7512658834457397,-0.6384495496749878,0.9125694036483765,0.6634542346000671,0.7063002586364746,-0.4386003315448761,0.9293534159660339,0.4084745943546295,0.7520971894264221,-0.7082228064537048,0.9189629554748535,0.6531854867935181,0.6974282264709473,-0.3316231966018677,0.9291227459907532,0.4152553975582123,0.7372220158576965,-0.5963099598884583,0.9196794629096985,0.5782583951950073,0.6536707282066345,0.027133874595165253,0.9981790781021118,0.4297027289867401,0.6655444502830505,-0.026901952922344208,0.9972033500671387,0.5813066363334656,0.8680325746536255,-0.05756983906030655,0.7228653430938721,0.4444551169872284,0.8802570104598999,-0.07066243141889572,0.5825463533401489,0.565181314945221,1.0328571796417236,0.37309569120407104,0.3953709602355957,0.44733893871307373,1.0475802421569824,0.3176296353340149,0.3602289855480194,0.5726550817489624,1.0671261548995972,0.39735865592956543,0.2256767749786377,0.4530171751976013,1.0647685527801514,0.3411617875099182,0.15774479508399963,0.6008293032646179,1.1188236474990845,0.13415968418121338,0.3054855763912201,0.46150320768356323,1.1255884170532227,0.029789064079523087,0.3235636055469513
15735.475144305043,0.5066868662834167,0.27296653389930725,-0.7869024276733398,0.999954342842102,0.5195747017860413,0.25260019302368164,-0.7496150732040405,0.999874472618103,0.5288618803024292,0.2524459958076477,-0.7498092651367188,0.9998534917831421,0.5378528833389282,0.2520926296710968,-0.7500156164169312,0.9998550415039062,0.4879903197288513,0.25316187739372253,-0.7698215246200562,0.9998655319213867,0.47287657856941223,0.2533235549926758,-0.7699663639068604,0.9998599290847778,0.4596079885959625,0.25361019372940063,-0.7701655626296997,0.9998636245727539,0.5451822280883789,0.26009368896484375,-0.49312588572502136,0.9997755885124207,0.4314503073692322,0.262080579996109,-0.592133104801178,0.999880313873291,0.5210893750190735,0.2935095727443695,-0.6859158873558044,0.9999727010726929,0.4822421669960022,0.2940237522125244,-0.7142930030822754,0.9999752044677734,0.6153503656387329,0.37547704577445984,-0.28410056233406067,0.999948263168335,0.34291064739227295,0.38662979006767273,-0.474566787481308,0.9999020099639893,0.6433593034744263,0.5309768319129944,-0.13559982180595398,0.9702687859535217,0.3459237813949585,0.5652658343315125,-0.42439401149749756,0.9895721673965454,0.6657322645187378,0.6631677746772766,-0.30407240986824036,0.961186945438385,0.3872010409832001,0.7048193216323853,-0.5720029473304749,0.955415666103363,0.67990642786026,0.7055720090866089,-0.3730984926223755,0.9238303899765015,0.38568708300590515,0.7513132691383362,-0.6432622671127319,0.9138752222061157,0.6636368036270142,0.7063167691230774,-0.44439154863357544,0.9318124651908875,0.40860942006111145,0.7520886063575745,-0.7134472131729126,0.9202173948287964,0.6533222198486328,0.6974161863327026,-0.3362889885902405,0.9315279126167297,0.41536906361579895,0.7371797561645508,-0.6006457805633545,0.920975923538208,0.5784758925437927,0.6535091400146484,0.027243399992585182,0.9982185959815979,0.43012696504592896,0.6653267741203308,-0.026993706822395325,0.9972386360168457,0.5812472701072693,0.867835521697998,-0.05883924290537834,0.7183406949043274,0.4444294273853302,0.8798448443412781,-0.07073687762022018,0.5777429938316345,0.5649088621139526,1.0322544574737549,0.3716101050376892,0.3891126215457916,0.4476756155490875,1.0470616817474365,0.3176780343055725,0.3543775975704193,0.5715479254722595,1.0669240951538086,0.3958669900894165,0.22735528647899628,0.45339149236679077,1.064288854598999,0.3412172794342041,0.15709371864795685,0.6006040573120117,1.1181610822677612,0.13297128677368164,0.30122894048690796,0.4616827964782715,1.124916911125183,0.02982906810939312,0.31774115562438965
15752.141810971709,0.5067777037620544,0.2733142077922821,-0.8188171982765198,0.9999542236328125,0.519595742225647,0.2530183792114258,-0.7815551161766052,0.9998745918273926,0.5288425087928772,0.2528926432132721,-0.781740128993988,0.9998539686203003,0.5378385186195374,0.252480685710907,-0.7819475531578064,0.9998540878295898,0.48822492361068726,0.2534877359867096,-0.801726758480072,0.9998646974563599,0.47345301508903503,0.2536104917526245,-0.8018831014633179,0.9998605251312256,0.4601360857486725,0.25380459427833557,-0.802081286907196,0.9998631477355957,0.5450743436813354,0.26044920086860657,-0.5219311714172363,0.999775230884552,0.43162524700164795,0.2623288929462433,-0.62137770652771,0.9998794794082642,0.5210556983947754,0.2938038408756256,-0.7164512872695923,0.9999732971191406,0.48233234882354736,0.29420873522758484,-0.7449661493301392,0.9999755620956421,0.6153746843338013,0.37551236152648926,-0.30872130393981934,0.9999490976333618,0.34267568588256836,0.38676199316978455,-0.49619060754776,0.9999004602432251,0.6438285112380981,0.5311965942382812,-0.1539061963558197,0.9698678255081177,0.3467276692390442,0.5657562017440796,-0.44144079089164734,0.9895076155662537,0.6659830808639526,0.6642171144485474,-0.3176192343235016,0.9595093131065369,0.3869960308074951,0.7052383422851562,-0.5878782868385315,0.9548046588897705,0.6797183752059937,0.7066963315010071,-0.3857821524143219,0.9208733439445496,0.38570547103881836,0.7512816190719604,-0.6590617895126343,0.9126980900764465,0.663716733455658,0.7075929641723633,-0.4573889374732971,0.929103434085846,0.40797778964042664,0.7519667744636536,-0.729179322719574,0.9191268682479858,0.6538963317871094,0.6985443234443665,-0.3497200608253479,0.9292531609535217,0.41438794136047363,0.7372295260429382,-0.6164493560791016,0.919843852519989,0.5795929431915283,0.652894139289856,0.025610454380512238,0.9983386993408203,0.430473655462265,0.664530336856842,-0.02538730390369892,0.9972416162490845,0.5798431038856506,0.8666104078292847,-0.056737061589956284,0.7093336582183838,0.44420385360717773,0.8782545924186707,-0.061776358634233475,0.5595640540122986,0.5640770792961121,1.0286766290664673,0.3953116834163666,0.3788245618343353,0.44668838381767273,1.043217420578003,0.3522283136844635,0.33627232909202576,0.5688843131065369,1.0638155937194824,0.4220432639122009,0.22648946940898895,0.4525008201599121,1.0596896409988403,0.3787533938884735,0.15149268507957458,0.5959442257881165,1.116210699081421,0.16024218499660492,0.2983497977256775,0.46162542700767517,1.121826171875,0.0695117935538292,0.30782753229141235
15768.808477638375,0.5047982335090637,0.2727397084236145,-0.8271710872650146,0.9999707937240601,0.518273115158081,0.2526629865169525,-0.790433406829834,0.9999213218688965,0.5275030136108398,0.25264132022857666,-0.7906109094619751,0.9999070167541504,0.5364347696304321,0.2523728013038635,-0.7908188700675964,0.9999083280563354,0.48671674728393555,0.25301527976989746,-0.8091912865638733,0.9999144077301025,0.47131043672561646,0.25312620401382446,-0.8093446493148804,0.9999101161956787,0.4584656059741974,0.2533411681652069,-0.8095349669456482,0.9999122619628906,0.5449386239051819,0.26055026054382324,-0.5338716506958008,0.9998576641082764,0.4309818148612976,0.261823832988739,-0.6275863647460938,0.9999217987060547,0.5192329287528992,0.2932667136192322,-0.7262396216392517,0.9999831914901733,0.47954100370407104,0.29366838932037354,-0.7530447840690613,0.9999843835830688,0.6156426668167114,0.37572047114372253,-0.3259706497192383,0.9999607801437378,0.34281814098358154,0.38670679926872253,-0.49983036518096924,0.999920129776001,0.6442431807518005,0.531445324420929,-0.1765010952949524,0.9740020036697388,0.34616535902023315,0.564670741558075,-0.4481714367866516,0.989807665348053,0.6665964126586914,0.6638883948326111,-0.3449305593967438,0.966631293296814,0.38741010427474976,0.7043694853782654,-0.6019388437271118,0.9578884840011597,0.6802496910095215,0.7062724232673645,-0.416221022605896,0.9333117604255676,0.3856324553489685,0.7508281469345093,-0.6743346452713013,0.9188171625137329,0.6632683277130127,0.7072960734367371,-0.4888703525066376,0.9403603076934814,0.4074917137622833,0.7521368265151978,-0.7452748417854309,0.9248006939888,0.6532190442085266,0.6983649730682373,-0.37761253118515015,0.9403026103973389,0.4143475294113159,0.7370762825012207,-0.631147563457489,0.9260949492454529,0.5811370015144348,0.6500774621963501,0.02207438088953495,0.998515784740448,0.43276160955429077,0.661721408367157,-0.021830424666404724,0.9975906610488892,0.5815523862838745,0.8648958802223206,-0.06776294857263565,0.7138890027999878,0.44318687915802,0.8741695880889893,-0.06109736114740372,0.5767527222633362,0.5661208033561707,1.0293350219726562,0.36938098073005676,0.38235971331596375,0.44785818457603455,1.0418034791946411,0.3324391543865204,0.35646650195121765,0.5678662657737732,1.062887191772461,0.39460495114326477,0.23342935740947723,0.4545912742614746,1.0586894750595093,0.3568243384361267,0.1616424173116684,0.5977108478546143,1.114161491394043,0.13552094995975494,0.304111123085022,0.45993614196777344,1.1202858686447144,0.050798770040273666,0.3205602467060089
15785.47514430504,0.5019094347953796,0.2727559804916382,-0.8406598567962646,0.9999579191207886,0.5164710283279419,0.2522880733013153,-0.8021424412727356,0.9998856782913208,0.5258039832115173,0.2521703541278839,-0.8023217916488647,0.9998599290847778,0.5350180864334106,0.25193411111831665,-0.8025316596031189,0.9998657703399658,0.4836408793926239,0.25303909182548523,-0.821496307849884,0.9998778104782104,0.4678666889667511,0.25328585505485535,-0.8216356635093689,0.9998669624328613,0.45532259345054626,0.25358378887176514,-0.8218461871147156,0.999873161315918,0.5449109077453613,0.2602027654647827,-0.5359588265419006,0.9997677206993103,0.42999017238616943,0.26209449768066406,-0.631453812122345,0.9998841285705566,0.5169069170951843,0.2936118245124817,-0.7362825870513916,0.999975323677063,0.4763626456260681,0.2939073443412781,-0.7635518312454224,0.9999774694442749,0.6138225793838501,0.37562376260757446,-0.30805301666259766,0.99994957447052,0.3429839313030243,0.38611122965812683,-0.5087102651596069,0.999909520149231,0.6410069465637207,0.5298793315887451,-0.15982674062252045,0.9726629257202148,0.34520089626312256,0.5644397735595703,-0.4594704806804657,0.9903668165206909,0.6677602529525757,0.6644077897071838,-0.3422645032405853,0.9669269919395447,0.38822975754737854,0.7038425207138062,-0.6170918345451355,0.9581204652786255,0.6816611886024475,0.7060804963111877,-0.4156228005886078,0.9321706891059875,0.3866290748119354,0.7504009008407593,-0.6916896104812622,0.9152057766914368,0.6647812128067017,0.7074677348136902,-0.4892255663871765,0.9397301077842712,0.40961840748786926,0.7512657046318054,-0.7642604112625122,0.9215555787086487,0.6548585891723633,0.6986219882965088,-0.3759763836860657,0.9382230043411255,0.41676297783851624,0.7358234524726868,-0.6465163230895996,0.9227310419082642,0.578098714351654,0.6500252485275269,0.03297402337193489,0.9982033967971802,0.43166178464889526,0.6621516942977905,-0.03271184489130974,0.9973869919776917,0.5789466500282288,0.8695013523101807,-0.0733112245798111,0.6888859272003174,0.44632095098495483,0.8795932531356812,-0.09092746675014496,0.5496222972869873,0.564089834690094,1.0291523933410645,0.3347417712211609,0.344734787940979,0.43609726428985596,1.0461145639419556,0.3176618218421936,0.2919612526893616,0.563006579875946,1.0676758289337158,0.3557770252227783,0.2009262591600418,0.4405820071697235,1.0635281801223755,0.34265193343162537,0.1321134865283966,0.5969976186752319,1.1141908168792725,0.08200737833976746,0.26249921321868896,0.4474826455116272,1.1213821172714233,0.026597341522574425,0.26682329177856445
15802.141810971707,0.5009342432022095,0.27277418971061707,-0.8354741334915161,0.9999600648880005,0.5156720876693726,0.2523816227912903,-0.7975876927375793,0.9998914003372192,0.5250189900398254,0.2522535026073456,-0.7977599501609802,0.999864935874939,0.5342736840248108,0.2520293593406677,-0.7979611158370972,0.9998704195022583,0.48233431577682495,0.25315889716148376,-0.8162733316421509,0.9998866319656372,0.466694176197052,0.25339189171791077,-0.8164100646972656,0.9998756647109985,0.4540919065475464,0.25368228554725647,-0.8166224360466003,0.9998821020126343,0.5447096228599548,0.26029062271118164,-0.5340403318405151,0.9997732043266296,0.4295198321342468,0.2621780037879944,-0.6267552971839905,0.9998931884765625,0.5161685347557068,0.29371559619903564,-0.7321767807006836,0.999976396560669,0.4751346707344055,0.2940047085285187,-0.7585858106613159,0.9999788999557495,0.6135162711143494,0.3757697641849518,-0.30636289715766907,0.9999483823776245,0.34320831298828125,0.3858727216720581,-0.5082780718803406,0.9999179840087891,0.6408739686012268,0.5299973487854004,-0.15731504559516907,0.9720635414123535,0.3455623984336853,0.5645138621330261,-0.46074628829956055,0.9908875226974487,0.6672030091285706,0.6648234724998474,-0.33524754643440247,0.9668489694595337,0.38770708441734314,0.7037590146064758,-0.6156172156333923,0.9595608711242676,0.6812316179275513,0.7065780162811279,-0.407673180103302,0.9320152401924133,0.386455237865448,0.7506279349327087,-0.689432680606842,0.9172793030738831,0.6645779609680176,0.707875669002533,-0.4807688891887665,0.9394935369491577,0.40973079204559326,0.7514132261276245,-0.761415421962738,0.9234378337860107,0.6545937657356262,0.6990619897842407,-0.3686670660972595,0.9383915066719055,0.41682547330856323,0.7360001802444458,-0.6447347402572632,0.9251783490180969,0.578339695930481,0.6496310234069824,0.034496840089559555,0.9981993436813354,0.4323209226131439,0.6620882749557495,-0.034219395369291306,0.9975233674049377,0.5794230103492737,0.8695655465126038,-0.06998857110738754,0.6756749749183655,0.447223037481308,0.8807189464569092,-0.091263048350811,0.5508591532707214,0.563839852809906,1.0292097330093384,0.33426156640052795,0.32510536909103394,0.4358873963356018,1.0450223684310913,0.3147954046726227,0.2847088873386383,0.5631859302520752,1.0661453008651733,0.3551596701145172,0.19815172255039215,0.44032198190689087,1.062439203262329,0.3398039638996124,0.1320706456899643,0.6007501482963562,1.111966609954834,0.08591652661561966,0.24539801478385925,0.4464225471019745,1.1202526092529297,0.02664133533835411,0.25609537959098816
15818.808477638373,0.5065085291862488,0.27263662219047546,-0.7400788068771362,0.9999656677246094,0.5194441676139832,0.2522558569908142,-0.7044461369514465,0.9999035596847534,0.5288156867027283,0.25199127197265625,-0.7046138644218445,0.9998797178268433,0.5379531383514404,0.2518610656261444,-0.7047983407974243,0.9998846054077148,0.4872288107872009,0.2531343698501587,-0.725317656993866,0.9999052286148071,0.47165924310684204,0.25347840785980225,-0.7254557013511658,0.9998977184295654,0.4586407542228699,0.25406312942504883,-0.7256612777709961,0.9999048709869385,0.5449360609054565,0.2600649297237396,-0.4630415737628937,0.9997988343238831,0.4318218529224396,0.2631235420703888,-0.5653169751167297,0.9999154806137085,0.5221683979034424,0.2939126789569855,-0.6453784108161926,0.9999790191650391,0.48223334550857544,0.2941215932369232,-0.674561083316803,0.999982476234436,0.6131922602653503,0.3768114447593689,-0.2615046203136444,0.9999464750289917,0.3424670696258545,0.38885778188705444,-0.48072925209999084,0.9999310970306396,0.6407716274261475,0.5294085144996643,-0.12419171631336212,0.967566967010498,0.34531140327453613,0.5689623951911926,-0.4401807487010956,0.9930960536003113,0.6659126281738281,0.6638736724853516,-0.2773255407810211,0.9634757041931152,0.38830485939979553,0.7071329951286316,-0.5589023232460022,0.9695078134536743,0.681384265422821,0.7063766121864319,-0.3435801565647125,0.9266173839569092,0.3894241452217102,0.7535407543182373,-0.6265981793403625,0.9369097352027893,0.6639288663864136,0.7076292634010315,-0.4093850553035736,0.9345978498458862,0.41271835565567017,0.7534095644950867,-0.6923015713691711,0.9417274594306946,0.6529539227485657,0.6993971467018127,-0.3074665069580078,0.9348279237747192,0.4185269773006439,0.7385417819023132,-0.5850445032119751,0.9425807595252991,0.5773471593856812,0.6528939604759216,0.04054883122444153,0.9982147216796875,0.4317226707935333,0.665359377861023,-0.040295422077178955,0.9976366758346558,0.5788041353225708,0.8687774538993835,-0.06582052260637283,0.6137474775314331,0.44870468974113464,0.8830440044403076,-0.0927036851644516,0.5229442715644836,0.5809097290039062,1.043839454650879,0.312264621257782,0.2767166197299957,0.4403779208660126,1.046964406967163,0.26972389221191406,0.2856500446796417,0.5696931481361389,1.0668413639068604,0.33223575353622437,0.2014973908662796,0.44332221150398254,1.0650379657745361,0.29133719205856323,0.13169720768928528,0.6161112785339355,1.1120260953903198,0.08587058633565903,0.2205720692873001,0.4594435691833496,1.1231415271759033,-0.007350438740104437,0.25129956007003784
15835.475144305039,0.5071011185646057,0.27240023016929626,-0.8061997294425964,0.9999520778656006,0.5199481248855591,0.2518675625324249,-0.768613874912262,0.9998733997344971,0.5293525457382202,0.2515719532966614,-0.7687827944755554,0.9998469352722168,0.5385940074920654,0.25134024024009705,-0.7689971327781677,0.9998514652252197,0.48741450905799866,0.2529744505882263,-0.7905846238136292,0.9998672008514404,0.47177714109420776,0.25337520241737366,-0.790718138217926,0.9998570680618286,0.45869436860084534,0.25388485193252563,-0.7909272313117981,0.9998626708984375,0.5458320379257202,0.2594062387943268,-0.5102856159210205,0.9997568726539612,0.43179458379745483,0.26276832818984985,-0.6170843243598938,0.9998823404312134,0.5223944783210754,0.29323911666870117,-0.7045319080352783,0.9999740123748779,0.48313018679618835,0.29405122995376587,-0.7350518107414246,0.9999762773513794,0.6148501038551331,0.3764389455318451,-0.2891518771648407,0.999947190284729,0.34344911575317383,0.3861570358276367,-0.5113328695297241,0.999907374382019,0.6417999267578125,0.5307278037071228,-0.13906708359718323,0.9692691564559937,0.34455400705337524,0.5659886002540588,-0.46753746271133423,0.991523027420044,0.6657124757766724,0.6647873520851135,-0.305980920791626,0.9643463492393494,0.38612398505210876,0.7064589262008667,-0.6078211665153503,0.9620822668075562,0.6794003248214722,0.7076638340950012,-0.37625545263290405,0.9281156659126282,0.3870197832584381,0.7528803944587708,-0.6808363795280457,0.9232820272445679,0.6624117493629456,0.7084980607032776,-0.44741684198379517,0.9359308481216431,0.41092246770858765,0.7532241940498352,-0.7511751651763916,0.9286924004554749,0.6521226167678833,0.6999849081039429,-0.33847424387931824,0.9349413514137268,0.4170457124710083,0.7381515502929688,-0.6362248659133911,0.9295569062232971,0.5783895254135132,0.6523101329803467,0.039574701339006424,0.9982776641845703,0.4317757785320282,0.6638001799583435,-0.03928370773792267,0.9974740147590637,0.5788590908050537,0.8687649965286255,-0.06599092483520508,0.6903146505355835,0.44703444838523865,0.8821029663085938,-0.09282704442739487,0.5555930733680725,0.5656465291976929,1.0299310684204102,0.340167760848999,0.32983067631721497,0.4368284344673157,1.045528769493103,0.3250359892845154,0.28078994154930115,0.564820408821106,1.0690083503723145,0.3616873323917389,0.20434485375881195,0.4411207437515259,1.0625331401824951,0.3515723645687103,0.12698788940906525,0.6032943725585938,1.117752194404602,0.09659282118082047,0.2475224733352661,0.4511182904243469,1.1223138570785522,0.04416371136903763,0.24851417541503906
15852.141810971705,0.5076823830604553,0.27218812704086304,-0.8164340257644653,0.9999591112136841,0.5202440619468689,0.25165441632270813,-0.7779900431632996,0.9998925924301147,0.5297297835350037,0.2514209449291229,-0.7781597375869751,0.999870777130127,0.5390399694442749,0.2512150704860687,-0.7783652544021606,0.9998738765716553,0.4880712330341339,0.2526644170284271,-0.8007232546806335,0.9998835325241089,0.4727867841720581,0.25308436155319214,-0.8008604049682617,0.9998745918273926,0.45943552255630493,0.25367558002471924,-0.8010685443878174,0.9998778104782104,0.5460159778594971,0.2595396935939789,-0.5143779516220093,0.9997950196266174,0.4319740831851959,0.26291602849960327,-0.6247739195823669,0.9998960494995117,0.5226092338562012,0.29308801889419556,-0.712873101234436,0.9999784231185913,0.4835495948791504,0.2939811944961548,-0.7443927526473999,0.9999797344207764,0.6144640445709229,0.3761139214038849,-0.2870262563228607,0.9999563694000244,0.3439585268497467,0.38564154505729675,-0.517109215259552,0.9999144077301025,0.6416043043136597,0.5309749841690063,-0.13659285008907318,0.9711894392967224,0.34486550092697144,0.5652898550033569,-0.474067360162735,0.9921385645866394,0.6663901805877686,0.663969099521637,-0.3164170980453491,0.9685419797897339,0.3862605690956116,0.7054672837257385,-0.621150553226471,0.964293360710144,0.6800484657287598,0.7068338990211487,-0.3891686797142029,0.9354349374771118,0.3860958516597748,0.7518210411071777,-0.6958566308021545,0.9272164702415466,0.6630769968032837,0.7079242467880249,-0.46246737241744995,0.9425676465034485,0.41004785895347595,0.7523972392082214,-0.7680582404136658,0.9323406219482422,0.6526221036911011,0.6993269324302673,-0.35013699531555176,0.9413207173347473,0.41664668917655945,0.7371547818183899,-0.6503206491470337,0.932951807975769,0.5779421925544739,0.6516426801681519,0.04203595593571663,0.9985272884368896,0.4325210452079773,0.6636991500854492,-0.04172441363334656,0.9977644681930542,0.5783205628395081,0.8682284951210022,-0.06900681555271149,0.6909783482551575,0.4469381868839264,0.8816142678260803,-0.0974629819393158,0.5623061656951904,0.575414776802063,1.044119119644165,0.3460261821746826,0.33596113324165344,0.43409186601638794,1.0436702966690063,0.3318699300289154,0.28495627641677856,0.5641669034957886,1.06623113155365,0.36840638518333435,0.21322838962078094,0.4376488924026489,1.0605454444885254,0.35940057039260864,0.1299855262041092,0.6034678816795349,1.1152247190475464,0.10098814219236374,0.25753265619277954,0.4500464200973511,1.1207098960876465,0.04886554554104805,0.2550335228443146
15868.808477638371,0.5007697343826294,0.27275410294532776,-0.8418225049972534,0.999971866607666,0.5159732103347778,0.2523285150527954,-0.805456817150116,0.9999226331710815,0.5254973769187927,0.2522735893726349,-0.8056183457374573,0.9999083280563354,0.5349555015563965,0.25206899642944336,-0.8058317303657532,0.9999099969863892,0.4825839102268219,0.252838134765625,-0.8228650689125061,0.9999151229858398,0.46700209379196167,0.2529626786708832,-0.8229968547821045,0.9999101161956787,0.45458686351776123,0.2531835436820984,-0.8231880068778992,0.9999125003814697,0.5455438494682312,0.2604280412197113,-0.5463477373123169,0.9998528957366943,0.4296905994415283,0.26183104515075684,-0.6330233812332153,0.9999202489852905,0.5164662003517151,0.29361164569854736,-0.7395821213722229,0.9999842643737793,0.4744087755680084,0.29365023970603943,-0.7643393874168396,0.999984860420227,0.6146003603935242,0.37704259157180786,-0.32660359144210815,0.9999629259109497,0.34333837032318115,0.38561180233955383,-0.5058980584144592,0.9999213218688965,0.6407329440116882,0.5313283801078796,-0.17221146821975708,0.9736163020133972,0.34735459089279175,0.564645528793335,-0.4510173499584198,0.9899492263793945,0.6664275527000427,0.664223313331604,-0.34050822257995605,0.9673100113868713,0.38633444905281067,0.7034133672714233,-0.6031460762023926,0.9580162763595581,0.6785280704498291,0.7062656879425049,-0.4106858968734741,0.9348753094673157,0.3844136893749237,0.7494142055511475,-0.6756746768951416,0.9171674847602844,0.6626678109169006,0.7076341509819031,-0.4839041531085968,0.942064642906189,0.4068783223628998,0.7506061792373657,-0.7469351291656494,0.9234231114387512,0.6528080105781555,0.6985803842544556,-0.3733636140823364,0.9414119124412537,0.41364410519599915,0.7352663278579712,-0.6322591304779053,0.9255474805831909,0.5773822069168091,0.6483984589576721,0.026356954127550125,0.998647153377533,0.43188560009002686,0.6595333814620972,-0.02613143064081669,0.9977625608444214,0.5779911279678345,0.8630290627479553,-0.08724785596132278,0.7157087922096252,0.4419857859611511,0.8731166124343872,-0.07801520079374313,0.5587504506111145,0.579304575920105,1.0430235862731934,0.3264104723930359,0.3796640932559967,0.43710610270500183,1.0423271656036377,0.3354468047618866,0.31608906388282776,0.5716175436973572,1.0643656253814697,0.34878796339035034,0.20588286221027374,0.44200292229652405,1.0589749813079834,0.3617309629917145,0.13722287118434906,0.5972890257835388,1.1153310537338257,0.07875104248523712,0.28738945722579956,0.4500524401664734,1.1200686693191528,0.05333055555820465,0.2827272415161133
15885.475144305037,0.5025734305381775,0.27260443568229675,-0.8469963669776917,0.9999680519104004,0.5172653794288635,0.2521132826805115,-0.8095664978027344,0.9999135732650757,0.5266372561454773,0.2520156800746918,-0.8097395300865173,0.9998968839645386,0.5360244512557983,0.2517627775669098,-0.8099486231803894,0.9998993873596191,0.48443472385406494,0.2527196705341339,-0.8284884691238403,0.9999046325683594,0.46872562170028687,0.2529217600822449,-0.8286351561546326,0.9998983144760132,0.4563544690608978,0.2532064914703369,-0.8288376927375793,0.9999011754989624,0.5455176830291748,0.2601126730442047,-0.546870231628418,0.9998337030410767,0.4305063784122467,0.26196685433387756,-0.6405578255653381,0.9999091625213623,0.5178571939468384,0.29335612058639526,-0.7436358332633972,0.999982476234436,0.476582407951355,0.29365289211273193,-0.7704192399978638,0.9999828338623047,0.6147179007530212,0.37665608525276184,-0.3247772455215454,0.9999629259109497,0.3433453440666199,0.3868871331214905,-0.5143694877624512,0.9999200105667114,0.6409462094306946,0.5315146446228027,-0.1723020374774933,0.9728091359138489,0.347434401512146,0.5651166439056396,-0.4604265093803406,0.9906111359596252,0.6646006107330322,0.6647045016288757,-0.3495955467224121,0.9663011431694031,0.3871701657772064,0.7042105793952942,-0.6140127778053284,0.9594833254814148,0.6776975393295288,0.7060458064079285,-0.42144495248794556,0.9325911402702332,0.3852730095386505,0.7497045993804932,-0.6872010827064514,0.919522225856781,0.6622911691665649,0.7074835300445557,-0.4946081042289734,0.9401689767837524,0.40751129388809204,0.7509579658508301,-0.7595497965812683,0.9257141947746277,0.6522152423858643,0.6985204219818115,-0.382743239402771,0.9393455982208252,0.41411447525024414,0.7357602119445801,-0.6434205174446106,0.9271335601806641,0.5781717300415039,0.6493131518363953,0.02813628688454628,0.998633086681366,0.4322478771209717,0.6611391305923462,-0.027889076620340347,0.9977092742919922,0.5786827802658081,0.869007408618927,-0.09401531517505646,0.6775851845741272,0.443305641412735,0.8759046792984009,-0.08818408846855164,0.5206740498542786,0.5800485014915466,1.044130563735962,0.3275412619113922,0.3375665843486786,0.4367789030075073,1.0438047647476196,0.33438387513160706,0.2802426815032959,0.5720935463905334,1.06569242477417,0.3507910966873169,0.19564689695835114,0.4411487877368927,1.060471773147583,0.3615964353084564,0.12617537379264832,0.6000593900680542,1.1154708862304688,0.08129268884658813,0.26178616285324097,0.45086100697517395,1.1209856271743774,0.05210918188095093,0.25632596015930176
15902.141810971703,0.5035680532455444,0.2727936804294586,-0.8478361964225769,0.9999712705612183,0.5179199576377869,0.252284973859787,-0.8106926083564758,0.9999229907989502,0.5272751450538635,0.25215286016464233,-0.8108635544776917,0.9999088048934937,0.536599338054657,0.25185760855674744,-0.8110727667808533,0.9999102354049683,0.48523327708244324,0.25296589732170105,-0.8296006917953491,0.999914288520813,0.4695003926753998,0.25316837430000305,-0.8297358155250549,0.9999088048934937,0.4570450782775879,0.2534303367137909,-0.8299313187599182,0.9999104738235474,0.5456802248954773,0.2601332664489746,-0.5486966967582703,0.9998548030853271,0.4306999742984772,0.2621755301952362,-0.6421759724617004,0.9999196529388428,0.5187480449676514,0.29339417815208435,-0.7446718215942383,0.9999843835830688,0.4778735339641571,0.293839693069458,-0.7713785171508789,0.9999847412109375,0.6151775121688843,0.37664902210235596,-0.32586127519607544,0.9999655485153198,0.34349173307418823,0.3863387703895569,-0.5177283883094788,0.999923825263977,0.6416860222816467,0.5315730571746826,-0.17141595482826233,0.9738730192184448,0.3473678231239319,0.5650798082351685,-0.4647173285484314,0.9910653233528137,0.6643028259277344,0.664718508720398,-0.34608325362205505,0.9672124981880188,0.3872832953929901,0.7042188048362732,-0.6190149784088135,0.961554229259491,0.6781150102615356,0.706493616104126,-0.41790732741355896,0.9341827630996704,0.38545018434524536,0.7501024603843689,-0.6930616497993469,0.9236212372779846,0.6622170805931091,0.707740843296051,-0.49126511812210083,0.9415796995162964,0.4082208275794983,0.7512604594230652,-0.7653784155845642,0.9295024275779724,0.6520220041275024,0.6986232995986938,-0.3792818784713745,0.9412955045700073,0.41495129466056824,0.736024022102356,-0.6485169529914856,0.9309327602386475,0.5772832036018372,0.6493445634841919,0.028550701215863228,0.9987194538116455,0.43098944425582886,0.6610832214355469,-0.028262939304113388,0.9977917671203613,0.5788396596908569,0.8656083345413208,-0.09117354452610016,0.683100700378418,0.441710889339447,0.8749712705612183,-0.08124380558729172,0.5294938087463379,0.5624707937240601,1.0267390012741089,0.3310721516609192,0.33515751361846924,0.43788400292396545,1.0401638746261597,0.3457643687725067,0.27643558382987976,0.5731858015060425,1.06313955783844,0.35457682609558105,0.19970376789569855,0.4424950182437897,1.0565307140350342,0.3738209903240204,0.1276150941848755,0.6011281609535217,1.1135203838348389,0.08732574433088303,0.2550957202911377,0.4523199796676636,1.1177704334259033,0.06794821470975876,0.24800363183021545
15918.80847763837,0.5071170926094055,0.2728284001350403,-0.7749125361442566,0.9999693632125854,0.519985556602478,0.25211599469184875,-0.7394213080406189,0.9999184608459473,0.5293585658073425,0.2518816888332367,-0.7395803928375244,0.9999030828475952,0.5385211706161499,0.25155457854270935,-0.7397775650024414,0.9999042749404907,0.48793458938598633,0.253028005361557,-0.7593470215797424,0.999914288520813,0.4725404977798462,0.2533724308013916,-0.7594675421714783,0.9999101161956787,0.4596180319786072,0.25375938415527344,-0.759653627872467,0.9999133348464966,0.5459468960762024,0.25981462001800537,-0.4926198422908783,0.9998471736907959,0.4318275451660156,0.26257240772247314,-0.5906148552894592,0.9999268054962158,0.5220629572868347,0.2933906018733978,-0.67756187915802,0.9999828338623047,0.48293352127075195,0.29406383633613586,-0.7055489420890808,0.999984622001648,0.6151915192604065,0.37681251764297485,-0.2874138653278351,0.9999566078186035,0.3443070650100708,0.386383593082428,-0.48587796092033386,0.9999202489852905,0.642795205116272,0.5318517684936523,-0.13518455624580383,0.9713077545166016,0.34594589471817017,0.5649131536483765,-0.4386098086833954,0.9924919009208679,0.6663992404937744,0.6637685894966125,-0.2828621566295624,0.9669073820114136,0.38588711619377136,0.7051635384559631,-0.5672062635421753,0.9669728875160217,0.6798661351203918,0.7066939473152161,-0.3485140800476074,0.933874785900116,0.384853333234787,0.7520657181739807,-0.6363056898117065,0.9324864745140076,0.6635812520980835,0.7072654366493225,-0.41720542311668396,0.9408453106880188,0.4091397523880005,0.7524888515472412,-0.7031794190406799,0.9375112652778625,0.6533412933349609,0.6981581449508667,-0.31364211440086365,0.9407945871353149,0.41631534695625305,0.7370786070823669,-0.5942186117172241,0.9389631152153015,0.5789593458175659,0.6512920260429382,0.03070603497326374,0.998530387878418,0.4323638379573822,0.6635746955871582,-0.030431609600782394,0.9976969361305237,0.5810969471931458,0.8690211772918701,-0.06610219180583954,0.7126771807670593,0.4451121985912323,0.8797825574874878,-0.07124249637126923,0.5727662444114685,0.5829657316207886,1.0433884859085083,0.34447532892227173,0.3539072871208191,0.4395071566104889,1.0411256551742554,0.3296695351600647,0.3062664270401001,0.5740974545478821,1.0646032094955444,0.3674153685569763,0.208250030875206,0.44414007663726807,1.0573394298553467,0.3557635545730591,0.13439488410949707,0.6047683954238892,1.1166255474090576,0.11155219376087189,0.25728046894073486,0.4551694691181183,1.1197502613067627,0.057032112032175064,0.2614297866821289
15935.475144305035,0.5076489448547363,0.27284494042396545,-0.7669951319694519,0.9999687671661377,0.5203101634979248,0.2520856559276581,-0.731412947177887,0.9999171495437622,0.5297071933746338,0.25181493163108826,-0.7315749526023865,0.9999017715454102,0.5389106273651123,0.2514694333076477,-0.7317731976509094,0.9999029636383057,0.4883514940738678,0.25315508246421814,-0.7516613602638245,0.9999125003814697,0.4730994701385498,0.2535669803619385,-0.7517836689949036,0.9999080896377563,0.46005943417549133,0.25398150086402893,-0.7519694566726685,0.9999115467071533,0.5459892153739929,0.2597111165523529,-0.48504745960235596,0.9998464584350586,0.4319522976875305,0.2627982497215271,-0.5844687819480896,0.9999256134033203,0.5225886702537537,0.29340845346450806,-0.6698350310325623,0.999982476234436,0.48376524448394775,0.29411637783050537,-0.6982339024543762,0.9999842643737793,0.6151223182678223,0.37691566348075867,-0.2814711928367615,0.9999562501907349,0.34435659646987915,0.386482834815979,-0.48140454292297363,0.9999185800552368,0.6427348256111145,0.5321118831634521,-0.13107286393642426,0.9707293510437012,0.3459847569465637,0.565088152885437,-0.4348171353340149,0.9924269914627075,0.6663293838500977,0.6635279059410095,-0.27957239747047424,0.9667273163795471,0.38582199811935425,0.7050295472145081,-0.5629271864891052,0.9668499827384949,0.6798509955406189,0.7064414024353027,-0.34520381689071655,0.9336671233177185,0.38477087020874023,0.7518073320388794,-0.6318350434303284,0.9323930740356445,0.6634860634803772,0.706997275352478,-0.41381382942199707,0.9406450986862183,0.4089645445346832,0.7522581815719604,-0.698480486869812,0.9374364614486694,0.6532588005065918,0.697941243648529,-0.310366153717041,0.9406060576438904,0.4161164164543152,0.7368841171264648,-0.5898852944374084,0.9388992786407471,0.5789933204650879,0.6515971422195435,0.03103906288743019,0.9985051155090332,0.4321797788143158,0.6639254093170166,-0.030764926224946976,0.9976657629013062,0.5807507634162903,0.8689872622489929,-0.06563927978277206,0.7121725678443909,0.4451272189617157,0.8796780109405518,-0.07375681400299072,0.5706960558891296,0.5826458930969238,1.0430219173431396,0.3475525677204132,0.34954333305358887,0.4401604235172272,1.0411899089813232,0.3275711238384247,0.30258116126060486,0.5737835168838501,1.0640907287597656,0.37086546421051025,0.20737071335315704,0.4447363018989563,1.0573205947875977,0.35376977920532227,0.13278520107269287,0.604219913482666,1.116487979888916,0.1164604052901268,0.2550989091396332,0.4561874270439148,1.1198086738586426,0.05591262876987457,0.25894299149513245
15952.141810971701,0.5070384740829468,0.27292972803115845,-0.7785001397132874,0.9999704360961914,0.5199134349822998,0.25220638513565063,-0.7428506016731262,0.9999221563339233,0.5292760133743286,0.2519511282444,-0.7430112361907959,0.9999074935913086,0.5384141206741333,0.25159814953804016,-0.7432098984718323,0.9999085664749146,0.4878535866737366,0.25322040915489197,-0.7628912925720215,0.9999175071716309,0.47245410084724426,0.2535897195339203,-0.7630138993263245,0.9999130964279175,0.4595602750778198,0.2539580166339874,-0.7631977796554565,0.9999158382415771,0.545943021774292,0.25986409187316895,-0.49480918049812317,0.9998548030853271,0.43175485730171204,0.26267075538635254,-0.5933778285980225,0.9999295473098755,0.5221843123435974,0.29346609115600586,-0.6806967854499817,0.9999836683273315,0.4830210506916046,0.2941564619541168,-0.7088282108306885,0.9999852180480957,0.6152892112731934,0.37674498558044434,-0.288028359413147,0.9999585151672363,0.34436506032943726,0.3863529562950134,-0.48867374658584595,0.999921441078186,0.642589807510376,0.5317611694335938,-0.1363379955291748,0.9715434312820435,0.3458593189716339,0.5650131106376648,-0.4412170946598053,0.9925801157951355,0.6659928560256958,0.6633701324462891,-0.2860232889652252,0.9670792818069458,0.38596442341804504,0.7050901055335999,-0.5712292790412903,0.9667579531669617,0.6794359683990479,0.7061952352523804,-0.3520762324333191,0.934166431427002,0.38473302125930786,0.7518367767333984,-0.6407843232154846,0.9320885539054871,0.6631026268005371,0.7067849040031433,-0.4212062358856201,0.9410915970802307,0.40881234407424927,0.7523613572120667,-0.7082141041755676,0.9371688961982727,0.6528255939483643,0.6977150440216064,-0.31702491641044617,0.9411381483078003,0.4160315692424774,0.7369527220726013,-0.5985351204872131,0.9388688206672668,0.5787234902381897,0.6512432098388672,0.03160647675395012,0.9986149072647095,0.4321151673793793,0.663365364074707,-0.03132038563489914,0.9977936744689941,0.5802846550941467,0.8684954643249512,-0.06944591552019119,0.7112025022506714,0.4445580840110779,0.8788830041885376,-0.07650438696146011,0.5708743929862976,0.5828436613082886,1.042410135269165,0.3421233594417572,0.34437334537506104,0.43873244524002075,1.0395617485046387,0.33505377173423767,0.28878647089004517,0.5738385915756226,1.0635428428649902,0.36532485485076904,0.20666590332984924,0.443156898021698,1.0554015636444092,0.3624606728553772,0.1287471204996109,0.6050747036933899,1.1157102584838867,0.11076553165912628,0.24953316152095795,0.4544938802719116,1.1181198358535767,0.06700602918863297,0.24637749791145325
15968.808477638368,0.507702648639679,0.27264603972435,-0.7902380228042603,0.9999613761901855,0.5204289555549622,0.2518554627895355,-0.7528730034828186,0.9998921155929565,0.5298665761947632,0.2517092823982239,-0.753046989440918,0.9998747110366821,0.5389722585678101,0.2515107989311218,-0.7532484531402588,0.9998729228973389,0.4885145425796509,0.25241029262542725,-0.7739497423171997,0.999882698059082,0.47345489263534546,0.25258374214172363,-0.7740841507911682,0.9998794794082642,0.4599717855453491,0.25303614139556885,-0.7742793560028076,0.9998810291290283,0.5463773608207703,0.25986772775650024,-0.4939814805984497,0.9998052716255188,0.4318438768386841,0.2621804177761078,-0.5973352789878845,0.9998992681503296,0.5224676728248596,0.2934936583042145,-0.6882010698318481,0.999977707862854,0.48397552967071533,0.2938883900642395,-0.7177730798721313,0.9999799728393555,0.6154263615608215,0.37719568610191345,-0.27550047636032104,0.9999542236328125,0.34301134943962097,0.38590556383132935,-0.4872572124004364,0.9999209642410278,0.6414695382118225,0.5324351787567139,-0.12230803072452545,0.9682291746139526,0.34467989206314087,0.5638347864151001,-0.43890053033828735,0.9914002418518066,0.6646589040756226,0.6645277142524719,-0.2930392026901245,0.9624896049499512,0.38725709915161133,0.7055649757385254,-0.5839805603027344,0.9631094336509705,0.679155170917511,0.7066559791564941,-0.3625791668891907,0.9264616370201111,0.3857986330986023,0.7518283128738403,-0.6567879319190979,0.9266970157623291,0.662821888923645,0.7068279385566711,-0.43471574783325195,0.9342349767684937,0.40975406765937805,0.7524058222770691,-0.7262938022613525,0.9318532347679138,0.6525033712387085,0.6981823444366455,-0.32589191198349,0.933560848236084,0.41670066118240356,0.7368810176849365,-0.612295389175415,0.9321027398109436,0.5760360360145569,0.655106782913208,0.03649195283651352,0.9985206723213196,0.42972925305366516,0.6668688058853149,-0.03623322769999504,0.9977117776870728,0.5802099704742432,0.8690272569656372,-0.05726265534758568,0.7068766355514526,0.4445056617259979,0.8800640106201172,-0.07664705067873001,0.5808464288711548,0.5615068078041077,1.037980318069458,0.37653690576553345,0.3801001310348511,0.4429784417152405,1.04732346534729,0.32884901762008667,0.35251519083976746,0.5671031475067139,1.0673524141311646,0.4012913703918457,0.23624631762504578,0.4468013048171997,1.064512848854065,0.35405397415161133,0.15531831979751587,0.6014663577079773,1.1189674139022827,0.13773708045482635,0.29977214336395264,0.46177780628204346,1.125735878944397,0.04052380844950676,0.31602346897125244
15985.475144305034,0.49788638949394226,0.2728554308414459,-0.8184431195259094,0.9999632835388184,0.5135745406150818,0.25307324528694153,-0.780992865562439,0.9999011754989624,0.5234737396240234,0.2531717121601105,-0.781171441078186,0.9998821020126343,0.5329000353813171,0.2531971335411072,-0.7813822627067566,0.9998859167098999,0.47901225090026855,0.2529870271682739,-0.7977430820465088,0.9998928308486938,0.4642890989780426,0.2528819143772125,-0.7978722453117371,0.9998854398727417,0.45184189081192017,0.2529653310775757,-0.7980816960334778,0.9998892545700073,0.5441877245903015,0.26180049777030945,-0.5214443802833557,0.9998061060905457,0.42912745475769043,0.2613254189491272,-0.6053458452224731,0.9998972415924072,0.5135169625282288,0.29419878125190735,-0.7168777585029602,0.9999792575836182,0.47116973996162415,0.2935042381286621,-0.740779459476471,0.9999805688858032,0.6146128177642822,0.377376914024353,-0.3056795597076416,0.9999552965164185,0.3416111469268799,0.3876434564590454,-0.4844404458999634,0.9999139308929443,0.641531229019165,0.5333184003829956,-0.1566268503665924,0.974833071231842,0.3448093831539154,0.5653926134109497,-0.4348333179950714,0.9900062680244446,0.6656403541564941,0.664465606212616,-0.33464673161506653,0.9702665209770203,0.3859621584415436,0.7059581875801086,-0.5964803099632263,0.9577789306640625,0.6795874834060669,0.7076077461242676,-0.40817612409591675,0.9395723342895508,0.3853585422039032,0.7528775930404663,-0.6706511378288269,0.9169562458992004,0.662847638130188,0.7080190777778625,-0.4816809296607971,0.946212887763977,0.4096803367137909,0.7536466717720032,-0.7428771257400513,0.9230698943138123,0.6522243022918701,0.6992683410644531,-0.3678550720214844,0.9450538754463196,0.4160265326499939,0.7382007241249084,-0.626051127910614,0.9250842928886414,0.5791205763816833,0.6540740132331848,0.030096538364887238,0.9983736276626587,0.43194860219955444,0.6657980680465698,-0.029815346002578735,0.9975033402442932,0.5796764492988586,0.8727912306785583,-0.08302018791437149,0.6881169080734253,0.4468328356742859,0.8835103511810303,-0.0862172320485115,0.5539510846138,0.5758830904960632,1.0488630533218384,0.3360016345977783,0.33186545968055725,0.44041696190834045,1.0469945669174194,0.32406967878341675,0.2840439975261688,0.5659306049346924,1.0709434747695923,0.3587935268878937,0.19975212216377258,0.445131778717041,1.0638582706451416,0.3499913215637207,0.12754470109939575,0.5984300971031189,1.1201446056365967,0.08883366733789444,0.24457204341888428,0.45523208379745483,1.1243783235549927,0.037745822221040726,0.24824930727481842
16002.1418109717,0.4968614876270294,0.2725123167037964,-0.8043969869613647,0.9999629259109497,0.5128167271614075,0.25287535786628723,-0.767046332359314,0.9999021291732788,0.5228127837181091,0.2529776096343994,-0.7672350406646729,0.999884843826294,0.5323207378387451,0.25307270884513855,-0.7674456238746643,0.9998879432678223,0.47779160737991333,0.25275325775146484,-0.7834320664405823,0.999893307685852,0.463320255279541,0.25264906883239746,-0.7835585474967957,0.9998868703842163,0.450830340385437,0.25272712111473083,-0.7837725877761841,0.9998893737792969,0.5439680218696594,0.2618090808391571,-0.5081090927124023,0.9998143315315247,0.42891624569892883,0.26123401522636414,-0.5901889204978943,0.9998989105224609,0.5129379034042358,0.29399481415748596,-0.7031325101852417,0.9999794960021973,0.470100998878479,0.29315081238746643,-0.7264969944953918,0.9999806880950928,0.6147955060005188,0.3774124085903168,-0.29554352164268494,0.9999533891677856,0.34148067235946655,0.38721373677253723,-0.46954452991485596,0.9999097585678101,0.6416621208190918,0.5332948565483093,-0.14808325469493866,0.9750036001205444,0.3451116383075714,0.565269947052002,-0.4209136962890625,0.9893613457679749,0.6652674674987793,0.6650511622428894,-0.3303755819797516,0.9704897999763489,0.3861016631126404,0.7057195901870728,-0.5879178047180176,0.9547860622406006,0.6792424917221069,0.7084306478500366,-0.4046276807785034,0.9404879808425903,0.38502994179725647,0.7527862787246704,-0.6623756289482117,0.9128654599189758,0.6631975769996643,0.7088547945022583,-0.47911888360977173,0.9472301006317139,0.4096236228942871,0.7534600496292114,-0.7352015972137451,0.9195801615715027,0.6527457237243652,0.7000250816345215,-0.3640575706958771,0.9460767507553101,0.4163265526294708,0.7378323674201965,-0.6178529262542725,0.921790599822998,0.5790048837661743,0.654395341873169,0.029875371605157852,0.9982714653015137,0.4317425489425659,0.6667007803916931,-0.029578564688563347,0.9973588585853577,0.5801995396614075,0.8733195662498474,-0.08277440071105957,0.6943284273147583,0.44568976759910583,0.8844202756881714,-0.08893787860870361,0.5776442289352417,0.576934814453125,1.0488805770874023,0.34592756628990173,0.33431562781333923,0.4388349652290344,1.0461699962615967,0.3214770555496216,0.287798136472702,0.5669005513191223,1.0708945989608765,0.3698081970214844,0.20416565239429474,0.44318559765815735,1.0629127025604248,0.34772685170173645,0.1296963393688202,0.5999916791915894,1.1197439432144165,0.1010507345199585,0.2411244511604309,0.454605370759964,1.1232755184173584,0.037118177860975266,0.24720056354999542
16018.808477638366,0.4965498745441437,0.27246174216270447,-0.8303031325340271,0.9999687671661377,0.5126681923866272,0.2527129650115967,-0.7926733493804932,0.9999165534973145,0.5227007269859314,0.2528171241283417,-0.7928565740585327,0.9999010562896729,0.5323001742362976,0.2528991103172302,-0.7930628657341003,0.9999024868011475,0.47759848833084106,0.25249892473220825,-0.8085883855819702,0.9999092817306519,0.4629858732223511,0.25239571928977966,-0.8087125420570374,0.9999037981033325,0.4504099488258362,0.2524878680706024,-0.8089174628257751,0.9999061822891235,0.5442837476730347,0.26157528162002563,-0.532796323299408,0.9998399019241333,0.42863214015960693,0.2611086964607239,-0.6130337715148926,0.999915361404419,0.5126722455024719,0.29395487904548645,-0.7289238572120667,0.9999827146530151,0.4697464108467102,0.29309898614883423,-0.7517518997192383,0.9999837875366211,0.6154584884643555,0.37715673446655273,-0.31879422068595886,0.9999573230743408,0.34168776869773865,0.38837066292762756,-0.48842713236808777,0.9999197721481323,0.641579270362854,0.5335294008255005,-0.16675113141536713,0.9758861660957336,0.3456806242465973,0.5663357973098755,-0.4350486397743225,0.990470290184021,0.6663926243782043,0.6648709177970886,-0.34506455063819885,0.9696140289306641,0.3869311809539795,0.7062512636184692,-0.6002943515777588,0.9600962996482849,0.6800125241279602,0.7075600028038025,-0.41878587007522583,0.9390053153038025,0.3858850598335266,0.7524863481521606,-0.6752158403396606,0.9216026663780212,0.664328932762146,0.7081121802330017,-0.49242663383483887,0.9456688761711121,0.40972355008125305,0.7530606985092163,-0.7481420636177063,0.9276138544082642,0.6540194153785706,0.6994951367378235,-0.37830209732055664,0.9452559947967529,0.4161604046821594,0.7378444075584412,-0.6303386688232422,0.92982017993927,0.5784682035446167,0.6542763113975525,0.026036281138658524,0.998431384563446,0.43055474758148193,0.6663282513618469,-0.025729360058903694,0.9974948167800903,0.5790258646011353,0.8726617097854614,-0.07752801477909088,0.6871777176856995,0.4424475431442261,0.8833969235420227,-0.07107014209032059,0.5609945058822632,0.5587441325187683,1.0369616746902466,0.34929490089416504,0.33379676938056946,0.44063499569892883,1.045082449913025,0.34166038036346436,0.2855617105960846,0.5703473687171936,1.069693922996521,0.37294629216194153,0.2033253312110901,0.44596096873283386,1.0617594718933105,0.3682340979576111,0.13422036170959473,0.6015766859054565,1.1182541847229004,0.10399951785802841,0.24071384966373444,0.4556030333042145,1.1227054595947266,0.056892089545726776,0.24507610499858856
16035.475144305032,0.49695494771003723,0.2722943425178528,-0.8072013854980469,0.9999668598175049,0.5130779147148132,0.2525293231010437,-0.7704718112945557,0.999910831451416,0.5230788588523865,0.2526240050792694,-0.7706515192985535,0.9998936653137207,0.5326523184776306,0.2526877522468567,-0.7708535194396973,0.9998964071273804,0.47796356678009033,0.2524559795856476,-0.7862359881401062,0.9999052286148071,0.46333420276641846,0.2524200677871704,-0.7863683700561523,0.9998996257781982,0.45073482394218445,0.25255265831947327,-0.7865778803825378,0.9999030828475952,0.5445981621742249,0.26144346594810486,-0.5166431069374084,0.9998254179954529,0.4286847710609436,0.26120805740356445,-0.5963159799575806,0.9999107122421265,0.513129711151123,0.29380351305007935,-0.7080537676811218,0.9999810457229614,0.47021621465682983,0.2930781841278076,-0.7307298183441162,0.9999825954437256,0.6155267357826233,0.377335786819458,-0.30938389897346497,0.9999529123306274,0.34197869896888733,0.3881523609161377,-0.47880110144615173,0.9999163150787354,0.6416698694229126,0.5335477590560913,-0.16047607362270355,0.9749048948287964,0.3457309603691101,0.566361129283905,-0.42670518159866333,0.9905421137809753,0.6664023399353027,0.6651557683944702,-0.3281439542770386,0.9692667126655579,0.3866575360298157,0.7061952948570251,-0.5804830193519592,0.9598699808120728,0.6802353858947754,0.7079177498817444,-0.3992019593715668,0.93837571144104,0.385746031999588,0.7524660229682922,-0.6526212692260742,0.9207866787910461,0.6642720103263855,0.7084881663322449,-0.4705747067928314,0.9451661109924316,0.40962904691696167,0.752967119216919,-0.7232094407081604,0.9270500540733337,0.6539306640625,0.6997958421707153,-0.36013901233673096,0.9446921348571777,0.416045218706131,0.7377049326896667,-0.6093751788139343,0.9293249249458313,0.5792185664176941,0.6543692350387573,0.026573363691568375,0.9983055591583252,0.43138566613197327,0.666363537311554,-0.026302756741642952,0.997368574142456,0.5789477229118347,0.8734360337257385,-0.07984165102243423,0.6639728546142578,0.443961501121521,0.884253978729248,-0.07287024706602097,0.5403382182121277,0.5791670680046082,1.0487818717956543,0.34068772196769714,0.31344830989837646,0.4401642978191376,1.0466521978378296,0.3286771774291992,0.27722078561782837,0.570155143737793,1.0709419250488281,0.36418479681015015,0.19471189379692078,0.444993793964386,1.0634217262268066,0.35446110367774963,0.12775608897209167,0.6020928621292114,1.1193835735321045,0.10072529315948486,0.22802282869815826,0.4561862647533417,1.124332070350647,0.046985216438770294,0.23917658627033234
16052.141810971698,0.49807867407798767,0.27291083335876465,-0.8653175234794617,0.9999634027481079,0.5126634836196899,0.25270891189575195,-0.8269169330596924,0.9998953342437744,0.5228944420814514,0.2526850402355194,-0.8270864486694336,0.9998738765716553,0.532308042049408,0.25279077887535095,-0.8272916078567505,0.9998726844787598,0.4771122336387634,0.25338226556777954,-0.8439428806304932,0.9998906850814819,0.4623255133628845,0.25351059436798096,-0.8440806865692139,0.9998862743377686,0.44970229268074036,0.2536211609840393,-0.8442786335945129,0.9998903274536133,0.5438929796218872,0.2616412937641144,-0.5549663305282593,0.9997827410697937,0.4275393486022949,0.263169527053833,-0.6403017640113831,0.9999033212661743,0.514299750328064,0.29441991448402405,-0.75862056016922,0.9999775886535645,0.4711071848869324,0.29421332478523254,-0.7828969955444336,0.9999805688858032,0.6126171946525574,0.37633267045021057,-0.3123761713504791,0.9999455213546753,0.343970388174057,0.38576558232307434,-0.5099733471870422,0.9999330043792725,0.6400451064109802,0.5315411686897278,-0.14602242410182953,0.9662218689918518,0.3455434739589691,0.5652389526367188,-0.450814425945282,0.9914048910140991,0.6667093634605408,0.6628270745277405,-0.3274676501750946,0.9562901854515076,0.3877590298652649,0.7047694325447083,-0.6144014596939087,0.961776614189148,0.6820857524871826,0.7053404450416565,-0.39906442165374756,0.9153686165809631,0.38714978098869324,0.7516000270843506,-0.6898996829986572,0.9210174083709717,0.6663450002670288,0.7065502405166626,-0.474712997674942,0.9244042634963989,0.4116417467594147,0.752094566822052,-0.7612029910087585,0.9265158772468567,0.6557185053825378,0.6978479623794556,-0.36192551255226135,0.9234260320663452,0.41872966289520264,0.7364494204521179,-0.6433073878288269,0.9272180795669556,0.5764939188957214,0.6539139151573181,0.03426598384976387,0.9983475208282471,0.4320247173309326,0.6668761968612671,-0.034046471118927,0.9976818561553955,0.5791948437690735,0.8770699501037598,-0.05626404657959938,0.6791706085205078,0.44672536849975586,0.8892045021057129,-0.0701807290315628,0.5581369400024414,0.5655632615089417,1.0459774732589722,0.36288154125213623,0.3870599567890167,0.44415855407714844,1.0563578605651855,0.33536630868911743,0.3449629843235016,0.5658987164497375,1.0771098136901855,0.38483208417892456,0.2342519760131836,0.4489375948905945,1.0743697881698608,0.35941076278686523,0.15519271790981293,0.6024916768074036,1.123253583908081,0.10268429666757584,0.3024231493473053,0.4611104726791382,1.1340351104736328,0.028649330139160156,0.31531769037246704
16068.808477638364,0.4987482726573944,0.2722180187702179,-0.9177758693695068,0.9999567270278931,0.5142536163330078,0.2525920867919922,-0.8792808651924133,0.999876856803894,0.5244947671890259,0.25286760926246643,-0.8794329166412354,0.9998531341552734,0.5336986780166626,0.2529570162296295,-0.8796466588973999,0.9998502731323242,0.4795871675014496,0.2522348463535309,-0.89759761095047,0.9998704195022583,0.46431341767311096,0.2520512342453003,-0.8977752923965454,0.9998677968978882,0.4517274498939514,0.25212424993515015,-0.8979809880256653,0.9998698234558105,0.545154333114624,0.2616828382015228,-0.6025252938270569,0.9997430443763733,0.4285373389720917,0.2613041400909424,-0.6948688626289368,0.9998828172683716,0.5145805478096008,0.2937445044517517,-0.8090832233428955,0.9999735355377197,0.47170019149780273,0.29289498925209045,-0.8353739976882935,0.9999767541885376,0.6127526164054871,0.37601158022880554,-0.3500540554523468,0.9999359846115112,0.344377338886261,0.38566717505455017,-0.5568310022354126,0.9999262094497681,0.6385921835899353,0.5321719646453857,-0.18232296407222748,0.9633390307426453,0.34755563735961914,0.5664385557174683,-0.4973154366016388,0.9913707971572876,0.6646552681922913,0.662246584892273,-0.36505013704299927,0.9514905214309692,0.38759803771972656,0.7049316763877869,-0.6572609543800354,0.960433840751648,0.6809887290000916,0.7045970559120178,-0.4360158145427704,0.9053869247436523,0.38580405712127686,0.7510700225830078,-0.7325550317764282,0.9189934730529785,0.665608823299408,0.7059826850891113,-0.5130409002304077,0.9152812957763672,0.4089142382144928,0.7518399953842163,-0.8046539425849915,0.9243013858795166,0.6548470854759216,0.6971014738082886,-0.4001728594303131,0.9146026372909546,0.4157581627368927,0.7367464303970337,-0.6865023374557495,0.9245121479034424,0.5781582593917847,0.6501301527023315,0.039261676371097565,0.9983710646629333,0.4336175322532654,0.6621581315994263,-0.0390823595225811,0.9976158142089844,0.5777676701545715,0.8680156469345093,-0.05557042360305786,0.6321776509284973,0.44627413153648376,0.87531977891922,-0.07355520129203796,0.5239654779434204,0.5643525719642639,1.0348833799362183,0.3763958513736725,0.3475273847579956,0.44657981395721436,1.0472279787063599,0.35286325216293335,0.3184448778629303,0.5595341920852661,1.068408489227295,0.4002392590045929,0.24111320078372955,0.4505413770675659,1.0649254322052002,0.3787357211112976,0.14613693952560425,0.6026988625526428,1.114323377609253,0.1220853254199028,0.28964510560035706,0.46816226840019226,1.1246166229248047,0.04895413666963577,0.29539939761161804
16085.47514430503,0.4979976713657379,0.27222174406051636,-0.9210237860679626,0.9999579191207886,0.5136939287185669,0.25267159938812256,-0.882724404335022,0.9998792409896851,0.5239885449409485,0.25291696190834045,-0.8828789591789246,0.9998564720153809,0.5332715511322021,0.25301721692085266,-0.883092999458313,0.9998536109924316,0.47876888513565063,0.2522394061088562,-0.9005088210105896,0.9998722076416016,0.46362242102622986,0.25202617049217224,-0.9006853103637695,0.9998694658279419,0.45104044675827026,0.2520846128463745,-0.9008907079696655,0.999871015548706,0.5450122356414795,0.2617184817790985,-0.6061058044433594,0.999751627445221,0.4283834993839264,0.2611421048641205,-0.6960406303405762,0.9998831748962402,0.5138826370239258,0.29377689957618713,-0.8123367428779602,0.9999743700027466,0.4707495868206024,0.29285967350006104,-0.837937593460083,0.9999773502349854,0.6129826307296753,0.375769704580307,-0.35503989458084106,0.9999390840530396,0.34400835633277893,0.38563793897628784,-0.5554255247116089,0.9999264478683472,0.6388834118843079,0.5318974256515503,-0.18761971592903137,0.9655011296272278,0.3477044105529785,0.5665169954299927,-0.4944291114807129,0.9910812973976135,0.6647608280181885,0.6624162197113037,-0.372653067111969,0.954064130783081,0.38778334856033325,0.7051035761833191,-0.6572619080543518,0.9599112868309021,0.6811251640319824,0.7048724889755249,-0.44452303647994995,0.9099506735801697,0.3858679533004761,0.7513537406921387,-0.7330541610717773,0.9186642169952393,0.6655533909797668,0.7061587572097778,-0.5219167470932007,0.9193618893623352,0.40901196002960205,0.7520431876182556,-0.8056902289390564,0.9240137338638306,0.6548202633857727,0.697284996509552,-0.4078642427921295,0.91866534948349,0.4158247709274292,0.7370069622993469,-0.686815083026886,0.9242680668830872,0.578179121017456,0.6500966548919678,0.03770477697253227,0.9983920454978943,0.4334735572338104,0.6620500683784485,-0.037524670362472534,0.9976300001144409,0.5774869918823242,0.8682076930999756,-0.05453997850418091,0.6404339671134949,0.4459080696105957,0.8753176927566528,-0.071249820291996,0.5349494814872742,0.5641556978225708,1.03461492061615,0.38296258449554443,0.35366612672805786,0.44662195444107056,1.0465545654296875,0.3558900058269501,0.32779625058174133,0.559493362903595,1.0674405097961426,0.40740182995796204,0.24520854651927948,0.45093366503715515,1.0642091035842896,0.38187268376350403,0.14999234676361084,0.6025044322013855,1.1135845184326172,0.12954756617546082,0.2949768900871277,0.46755868196487427,1.124138593673706,0.051872871816158295,0.3026464879512787
16102.141810971696,0.4978518486022949,0.2727600038051605,-0.9046876430511475,0.9999581575393677,0.5134438276290894,0.2529841959476471,-0.8669118881225586,0.9998794794082642,0.5234935283660889,0.2531399130821228,-0.8670740127563477,0.9998607635498047,0.5327317118644714,0.2531946897506714,-0.8672938942909241,0.9998577833175659,0.4794211983680725,0.2527996003627777,-0.8846527338027954,0.9998675584793091,0.4644773602485657,0.25263768434524536,-0.8848086595535278,0.9998648166656494,0.4521406888961792,0.2526997923851013,-0.8850151896476746,0.9998644590377808,0.5439425110816956,0.2618430554866791,-0.5938725471496582,0.9997643828392029,0.42892107367515564,0.26135000586509705,-0.6834047436714172,0.9998782873153687,0.5135417580604553,0.294097363948822,-0.7972092628479004,0.9999748468399048,0.4708954393863678,0.2932339012622833,-0.8227378129959106,0.9999769926071167,0.6121819019317627,0.3757677376270294,-0.3500664234161377,0.999947190284729,0.3431350588798523,0.3855983316898346,-0.5413675904273987,0.9999169111251831,0.6386511921882629,0.5318918824195862,-0.18152548372745514,0.9694594144821167,0.3467499613761902,0.5656196475028992,-0.4797830879688263,0.9900240898132324,0.6657020449638367,0.6623085737228394,-0.36397334933280945,0.9600666165351868,0.38815736770629883,0.7042725086212158,-0.6433837413787842,0.9577851295471191,0.6818950772285461,0.7049941420555115,-0.43605515360832214,0.9209631085395813,0.38662025332450867,0.7508919835090637,-0.7188483476638794,0.9167622327804565,0.6659377813339233,0.7062434554100037,-0.5138545632362366,0.9295888543128967,0.410205215215683,0.7515303492546082,-0.7923212051391602,0.9224529266357422,0.6553645730018616,0.6974811553955078,-0.39917826652526855,0.9290180206298828,0.4172575771808624,0.7362087368965149,-0.6732578873634338,0.9228489995002747,0.5757312774658203,0.649656355381012,0.03376096487045288,0.9984203577041626,0.43157759308815,0.6619383096694946,-0.03354354202747345,0.9974853992462158,0.5772258043289185,0.8667770624160767,-0.05603009834885597,0.6733109951019287,0.44498732686042786,0.8753018379211426,-0.06766125559806824,0.5505080223083496,0.5634069442749023,1.033707618713379,0.3788287341594696,0.37228384613990784,0.4453052580356598,1.0434151887893677,0.3581896424293518,0.3245358467102051,0.5641757845878601,1.0650185346603394,0.40288540720939636,0.23968476057052612,0.45002272725105286,1.0602977275848389,0.38448360562324524,0.14430563151836395,0.5996248722076416,1.112967610359192,0.12344194948673248,0.296184241771698,0.46481242775917053,1.121510624885559,0.057703372091054916,0.2934208810329437
16118.808477638362,0.4979684054851532,0.2728617787361145,-0.8110029697418213,0.9999738931655884,0.5129243731498718,0.2526017427444458,-0.7755416631698608,0.9999233484268188,0.522831916809082,0.2525516152381897,-0.7757014036178589,0.9999059438705444,0.5321162939071655,0.25262555480003357,-0.7758941054344177,0.9999088048934937,0.4774952232837677,0.25329354405403137,-0.7913774847984314,0.9999210834503174,0.4626222252845764,0.25329917669296265,-0.7915121912956238,0.9999146461486816,0.4500792920589447,0.25322970747947693,-0.7917130589485168,0.9999185800552368,0.5438083410263062,0.2615126669406891,-0.5192273855209351,0.9998316764831543,0.4276174008846283,0.2624976933002472,-0.5996506810188293,0.9999210834503174,0.5148326754570007,0.29436400532722473,-0.7097179889678955,0.9999823570251465,0.4717409014701843,0.29407021403312683,-0.7325626611709595,0.9999845027923584,0.6135817766189575,0.3779788911342621,-0.2976911664009094,0.999958872795105,0.34279853105545044,0.3871842324733734,-0.48369741439819336,0.9999417066574097,0.6393163204193115,0.5324345827102661,-0.14411132037639618,0.9699860215187073,0.34816157817840576,0.5665062069892883,-0.4281763434410095,0.9911065697669983,0.665218710899353,0.6640790104866028,-0.30930984020233154,0.9676910638809204,0.38863345980644226,0.7062421441078186,-0.5681358575820923,0.9638206362724304,0.6806098222732544,0.7054781913757324,-0.37810900807380676,0.9361943006515503,0.38864776492118835,0.752518355846405,-0.6370837092399597,0.9264019727706909,0.6646575927734375,0.7070959806442261,-0.449734628200531,0.9432634711265564,0.4113004803657532,0.7535802125930786,-0.7071535587310791,0.9318129420280457,0.6543050408363342,0.6987940669059753,-0.34153369069099426,0.9421574473381042,0.41735294461250305,0.738578200340271,-0.5960900187492371,0.933395266532898,0.5787906050682068,0.652280330657959,0.03380512818694115,0.9985039234161377,0.434501975774765,0.665097177028656,-0.033631306141614914,0.9979518055915833,0.5808345079421997,0.8763030767440796,-0.07678564637899399,0.5907652378082275,0.44826459884643555,0.8868228197097778,-0.08557166159152985,0.4756631553173065,0.5745701193809509,1.051155686378479,0.2969401478767395,0.3026600778102875,0.4444689154624939,1.0560526847839355,0.2779786288738251,0.29251930117607117,0.5641506314277649,1.0746467113494873,0.31598612666130066,0.20219652354717255,0.4479479193687439,1.0750879049301147,0.2986319661140442,0.13269154727458954,0.6054303646087646,1.1192378997802734,0.05386839807033539,0.255990207195282,0.4614740014076233,1.1322760581970215,-0.01378811988979578,0.2724136710166931
16135.475144305028,0.4965413510799408,0.27265116572380066,-0.7784103155136108,0.9999756813049316,0.5112413167953491,0.2528286278247833,-0.745493471622467,0.9999270439147949,0.521754801273346,0.25287702679634094,-0.7456343173980713,0.9999098777770996,0.5314043760299683,0.25310200452804565,-0.7458226680755615,0.9999126195907593,0.47588738799095154,0.2527449429035187,-0.760505735874176,0.9999276399612427,0.46168044209480286,0.25251102447509766,-0.7606343626976013,0.999921441078186,0.449313223361969,0.2523001432418823,-0.7608323097229004,0.999925971031189,0.5441292524337769,0.2621639370918274,-0.5010538697242737,0.9998378753662109,0.42699486017227173,0.2617153227329254,-0.5777918696403503,0.9999275207519531,0.5138426423072815,0.2941935956478119,-0.6809360384941101,0.9999829530715942,0.4702591001987457,0.2929099202156067,-0.702736496925354,0.9999854564666748,0.6145150661468506,0.3779533803462982,-0.29266616702079773,0.9999580383300781,0.34061264991760254,0.38689276576042175,-0.4677717983722687,0.9999433755874634,0.6401960253715515,0.5322588682174683,-0.14183194935321808,0.9697153568267822,0.34668850898742676,0.5656046271324158,-0.41064536571502686,0.9911810159683228,0.664726972579956,0.6634177565574646,-0.28690218925476074,0.9692913889884949,0.3867377042770386,0.7061797380447388,-0.5304761528968811,0.966693103313446,0.6795706748962402,0.7053268551826477,-0.35058537125587463,0.9400498270988464,0.3859046399593353,0.7528265118598938,-0.5936945080757141,0.9320882558822632,0.6642184257507324,0.7068580389022827,-0.41853854060173035,0.9465224146842957,0.4097532629966736,0.7535596489906311,-0.660534143447876,0.9372498989105225,0.6539624929428101,0.6982187032699585,-0.31687620282173157,0.9457021355628967,0.41573652625083923,0.7383956909179688,-0.5567116737365723,0.9391474723815918,0.5785595178604126,0.6525364518165588,0.02914983406662941,0.998375654220581,0.433975487947464,0.6653354167938232,-0.02903398498892784,0.9978971481323242,0.5812751054763794,0.8772520422935486,-0.08580516278743744,0.5773974657058716,0.4496527314186096,0.8882960081100464,-0.08905892074108124,0.4504294991493225,0.5703138709068298,1.0527762174606323,0.2697805166244507,0.2839643359184265,0.44539302587509155,1.0580008029937744,0.2539002597332001,0.2802625596523285,0.5604526996612549,1.0761228799819946,0.2877401113510132,0.18516682088375092,0.4492165744304657,1.077314853668213,0.2731987237930298,0.12774112820625305,0.5984286665916443,1.1219803094863892,0.03772006183862686,0.2389179766178131,0.45861315727233887,1.1340656280517578,-0.02736317366361618,0.26125040650367737
16152.141810971694,0.49902597069740295,0.27280542254447937,-0.7488008141517639,0.9999747276306152,0.513589084148407,0.2530391216278076,-0.7144006490707397,0.9999264478683472,0.5239824652671814,0.2530740201473236,-0.7145389318466187,0.9999065399169922,0.5332862734794617,0.2531448006629944,-0.7147219181060791,0.9999098777770996,0.47907230257987976,0.2529529333114624,-0.73228520154953,0.9999293088912964,0.46429145336151123,0.2526280879974365,-0.7324016094207764,0.9999231100082397,0.45185232162475586,0.2523442804813385,-0.7325897812843323,0.9999293088912964,0.5446677803993225,0.2617194950580597,-0.46777817606925964,0.9998273253440857,0.42740392684936523,0.26136043667793274,-0.5572858452796936,0.9999340772628784,0.5155854225158691,0.2940441370010376,-0.6509703397750854,0.9999825954437256,0.4723474681377411,0.2930777370929718,-0.6764074563980103,0.999985933303833,0.6121302843093872,0.3764042854309082,-0.2524995803833008,0.9999505281448364,0.3418181538581848,0.38736337423324585,-0.4618505835533142,0.9999486207962036,0.6390959024429321,0.5335044860839844,-0.09891805797815323,0.9634015560150146,0.34742599725723267,0.5684124827384949,-0.4124273657798767,0.9927022457122803,0.6682534217834473,0.6638330221176147,-0.24478715658187866,0.9641159772872925,0.38931527733802795,0.707294762134552,-0.5321601629257202,0.9705612063407898,0.6835306882858276,0.7068067193031311,-0.30836910009384155,0.9300657510757446,0.3896675407886505,0.7547638416290283,-0.5979821085929871,0.9379056096076965,0.6671657562255859,0.7079541087150574,-0.3767797350883484,0.9374407529830933,0.4141788184642792,0.7553691864013672,-0.6630357503890991,0.9423505663871765,0.656654417514801,0.6995140314102173,-0.275556355714798,0.9363502264022827,0.42001059651374817,0.739816427230835,-0.5576145648956299,0.9433504343032837,0.580540657043457,0.6554381847381592,0.03960677981376648,0.9984190464019775,0.43614277243614197,0.6684355139732361,-0.03945803642272949,0.9980798959732056,0.5825497508049011,0.8811824321746826,-0.07207240909337997,0.6129859089851379,0.4512600302696228,0.8938535451889038,-0.09260576218366623,0.4887547791004181,0.5687899589538574,1.0546469688415527,0.2780379354953766,0.30572497844696045,0.44665515422821045,1.0653036832809448,0.2563685476779938,0.2955244779586792,0.5673463344573975,1.0835384130477905,0.29497936367988586,0.2004488855600357,0.450514018535614,1.0847392082214355,0.27575522661209106,0.12824399769306183,0.6121190786361694,1.1289434432983398,0.03845267370343208,0.2538153827190399,0.46363991498947144,1.1425158977508545,-0.031492169946432114,0.27252495288848877
