0,1,2,3,4,5,6,7,8,9,10
18135.445829268232,576.6024780273438,441.88580322265625,177.8203887939453,-1515.7144775390625,-22.934158325195312,59.083587646484375,22.841407775878906,75.99750518798828,42.44344711303711,65535.0
18135.446229276786,518.4088745117188,444.2991638183594,174.33242797851562,-1547.5958251953125,-17.17253303527832,63.94906234741211,24.66563606262207,81.85094451904297,58.531280517578125,65535.0
18135.44662928534,506.6868591308594,445.6927490234375,173.91661071777344,-1558.4892578125,-5.120038032531738,74.80033111572266,34.3911018371582,90.99154663085938,70.22362518310547,65535.0
18135.447029293893,491.0174560546875,450.1397399902344,181.3748016357422,-1550.6014404296875,-1.2605884075164795,80.69181823730469,40.17361068725586,97.73789978027344,60.46674728393555,65535.0
18135.447429302443,508.6008605957031,451.9700927734375,183.02239990234375,-1559.06298828125,-6.459786415100098,77.05775451660156,38.066673278808594,93.61277770996094,63.71687316894531,65535.0
18135.447829310997,550.0662231445312,450.3540344238281,171.2362060546875,-1560.165771484375,-14.36705207824707,70.16146850585938,32.69378662109375,87.59951782226562,69.87615966796875,65535.0
18135.44822931955,577.7529296875,453.3663635253906,177.15225219726562,-1553.919921875,-15.018575668334961,64.08096313476562,27.594228744506836,85.1188735961914,50.29359817504883,65535.0
18135.4486293281,620.5662231445312,457.3746032714844,185.6756591796875,-1555.6878662109375,-5.76336145401001,70.8009262084961,36.21392059326172,92.97291564941406,56.954124450683594,65535.0
18135.449029336654,646.289306640625,464.82806396484375,178.2178497314453,-1558.8201904296875,-10.300156593322754,66.50643920898438,33.919281005859375,85.47982788085938,52.661773681640625,65535.0
18135.449429345208,655.0023193359375,465.7740173339844,190.7249298095703,-1557.9478759765625,-9.453319549560547,67.22216033935547,32.27644348144531,88.17743682861328,55.686134338378906,65535.0
18135.44982935376,654.41455078125,471.01324462890625,200.22035217285156,-1561.5482177734375,-3.4494292736053467,73.65019989013672,37.614906311035156,95.30145263671875,46.964195251464844,65535.0
18135.45022936231,627.2311401367188,480.31695556640625,200.7930908203125,-1575.0489501953125,-11.80215835571289,62.52941131591797,29.78183937072754,85.51417541503906,62.732032775878906,65535.0
18135.450629370865,608.6852416992188,472.0966491699219,201.26670837402344,-1586.4256591796875,-16.681875228881836,55.509605407714844,25.49860382080078,83.46480560302734,59.803985595703125,65535.0
18135.45102937942,600.1434326171875,472.30877685546875,202.33062744140625,-1577.8118896484375,-14.409804344177246,60.18537521362305,28.48104476928711,83.694091796875,47.46061325073242,65535.0
18135.45142938797,590.2374877929688,477.4175720214844,209.02078247070312,-1555.427978515625,-16.871654510498047,54.3271369934082,27.02438735961914,81.5676498413086,59.089176177978516,65535.0
18135.451829396523,582.4702758789062,489.6922607421875,206.30809020996094,-1510.692138671875,-11.45459270477295,55.38611602783203,27.84929084777832,86.35601043701172,55.495033264160156,65535.0
18135.452229405077,564.61572265625,487.3340759277344,205.04066467285156,-1484.936279296875,-10.388947486877441,61.23600387573242,32.18180847167969,89.0577163696289,61.76912307739258,65535.0
18135.45262941363,554.5911254882812,480.7386779785156,208.36317443847656,-1478.7191162109375,-18.921215057373047,46.31826400756836,22.641382217407227,78.91015625,62.916866302490234,65535.0
18135.45302942218,541.8081665039062,491.45550537109375,223.82275390625,-1482.25341796875,-17.72711944580078,46.67841339111328,21.750423431396484,80.13006591796875,61.81589126586914,65535.0
18135.453429430734,503.8840637207031,482.82861328125,220.03392028808594,-1496.7740478515625,-16.234294891357422,48.42167282104492,23.785808563232422,80.35721588134766,65.07575225830078,65535.0
18135.453829439288,490.3638610839844,479.249755859375,210.44898986816406,-1502.244140625,-18.77154541015625,44.31341552734375,24.151897430419922,78.63945007324219,58.08591842651367,65535.0
18135.454229447838,486.1371154785156,478.7481384277344,212.37899780273438,-1505.893798828125,-20.584863662719727,43.39061737060547,22.88956069946289,79.3735580444336,59.98038101196289,65535.0
18135.45462945639,502.16607666015625,472.3456726074219,214.3207550048828,-1518.2413330078125,-13.593974113464355,49.919189453125,31.043291091918945,85.08145904541016,52.845970153808594,65535.0
18135.455029464945,529.7181396484375,476.7179260253906,222.2503204345703,-1520.6820068359375,-16.697494506835938,49.794334411621094,25.38287353515625,81.3272705078125,59.22936248779297,65535.0
18135.4554294735,546.6245727539062,468.48028564453125,217.4857635498047,-1517.2535400390625,-20.38776397705078,42.06150817871094,19.46924591064453,77.33525085449219,61.97455978393555,65535.0
18135.45582948205,545.4747924804688,470.34088134765625,221.70059204101562,-1514.552490234375,-16.627254486083984,45.65214920043945,26.148616790771484,81.50935363769531,52.591922760009766,65535.0
18135.456229490603,505.4237976074219,474.9012451171875,215.3616485595703,-1509.109619140625,-22.493377685546875,41.040557861328125,21.620864868164062,75.3965835571289,40.80389404296875,65535.0
18135.456629499156,485.8172912597656,461.9407043457031,207.8523406982422,-1503.7899169921875,-28.622909545898438,32.0182991027832,11.751397132873535,65.95347595214844,66.65966796875,65535.0
18135.457029507706,489.309326171875,452.0137023925781,222.6702423095703,-1512.342041015625,-25.518518447875977,37.977752685546875,16.833269119262695,75.54450225830078,69.35673522949219,65535.0
18135.45742951626,514.400634765625,453.52777099609375,219.61558532714844,-1523.62841796875,-26.905675888061523,37.1038818359375,13.895724296569824,70.38751220703125,54.052467346191406,65535.0
18135.457829524814,550.2978515625,450.22283935546875,212.095458984375,-1535.3572998046875,-18.149457931518555,46.751312255859375,24.931148529052734,77.91666412353516,51.97882843017578,65535.0
18135.458229533368,565.6709594726562,449.01019287109375,215.37319946289062,-1533.0185546875,-14.205121994018555,52.229942321777344,28.987323760986328,84.68655395507812,61.67921829223633,65535.0
18135.458629541918,563.8895874023438,447.6211242675781,210.4521484375,-1520.4783935546875,-13.911108016967773,54.67600631713867,25.22946548461914,81.73896789550781,59.458763122558594,65535.0
18135.45902955047,549.5339965820312,447.80072021484375,202.83743286132812,-1509.333251953125,-29.312070846557617,39.78535079956055,14.591935157775879,70.8111572265625,58.29307174682617,65535.0
18135.459429559025,508.3066101074219,449.6847229003906,201.6608428955078,-1505.7103271484375,-18.48237419128418,47.515174865722656,22.045700073242188,80.14032745361328,53.989192962646484,65535.0
18135.459829567575,485.394775390625,439.062255859375,189.2268829345703,-1505.5706787109375,-16.822290420532227,54.2265739440918,26.668132781982422,81.67438507080078,66.44651794433594,65535.0
18135.46022957613,471.3027038574219,442.1966552734375,185.0464324951172,-1514.406005859375,-20.154064178466797,46.6755256652832,19.577699661254883,75.20104217529297,55.21125030517578,65535.0
18135.460629584682,463.9027099609375,440.5371398925781,181.72955322265625,-1508.77978515625,-15.673381805419922,53.45419692993164,25.83065414428711,82.34407043457031,49.74656677246094,65535.0
18135.461029593236,434.1899719238281,435.245361328125,186.3890838623047,-1507.4996337890625,-13.100715637207031,56.44462966918945,28.76106071472168,85.51065826416016,52.88245391845703,65535.0
18135.461429601786,409.4621887207031,429.8887023925781,187.65672302246094,-1510.1971435546875,-10.754908561706543,64.66108703613281,31.57513427734375,88.1112289428711,59.24814987182617,65535.0
18135.46182961034,399.17645263671875,428.9874267578125,177.13572692871094,-1510.3245849609375,-13.779749870300293,61.55320358276367,27.495161056518555,82.56185150146484,40.958168029785156,65535.0
18135.462229618894,408.9124450683594,431.4882507324219,179.6205596923828,-1517.9862060546875,-9.861917495727539,66.27149963378906,30.860898971557617,85.82634735107422,47.08884048461914,65535.0
18135.462629627444,430.49920654296875,428.8652038574219,177.56979370117188,-1526.025146484375,-11.059488296508789,65.79403686523438,30.75251579284668,86.79389190673828,48.65771484375,65535.0
18135.463029635997,420.0227355957031,422.5571594238281,179.77503967285156,-1527.9971923828125,-16.146270751953125,64.79061889648438,26.316959381103516,82.55838012695312,48.40030288696289,65535.0
18135.46342964455,397.76751708984375,434.7591552734375,176.83648681640625,-1516.354736328125,-7.908997058868408,73.6524658203125,34.023155212402344,91.3841323852539,48.26652526855469,65535.0
18135.463829653105,383.77264404296875,435.96893310546875,177.17526245117188,-1493.158203125,-13.986818313598633,68.17799377441406,27.421110153198242,86.50503540039062,56.695098876953125,65535.0
18135.464229661655,361.8907165527344,442.8760986328125,181.47817993164062,-1455.34521484375,-3.7345333099365234,79.38963317871094,38.985198974609375,96.22545623779297,69.04901885986328,65535.0
18135.46462967021,356.1142578125,444.5204162597656,175.36029052734375,-1435.9124755859375,-1.0043318271636963,84.7804946899414,43.550140380859375,99.58772277832031,70.39933013916016,65535.0
18135.465029678762,368.84136962890625,449.5032043457031,172.65945434570312,-1442.3592529296875,-5.82375431060791,77.90360260009766,35.202186584472656,91.6050796508789,56.27534484863281,65535.0
18135.465429687312,356.4111328125,447.5936279296875,179.8356170654297,-1446.2843017578125,-4.726830959320068,78.02774810791016,36.302085876464844,95.78824615478516,63.75197982788086,65535.0
18135.465829695866,345.0645446777344,448.49365234375,185.26138305664062,-1459.3231201171875,-6.274432182312012,74.88045501708984,36.2086067199707,95.77532958984375,68.11200714111328,65535.0
18135.46622970442,343.98236083984375,452.93634033203125,186.96914672851562,-1496.3529052734375,-16.437152862548828,67.20023345947266,26.672380447387695,85.60445404052734,63.036376953125,65535.0
18135.466629712973,364.421875,460.9955749511719,192.8184814453125,-1529.2977294921875,-23.824338912963867,58.393959045410156,20.802303314208984,78.29046630859375,53.3181266784668,65535.0
18135.467029721523,402.5377197265625,461.4780578613281,188.6095733642578,-1565.5845947265625,-14.46916675567627,63.084327697753906,28.221878051757812,85.46858978271484,57.06068420410156,65535.0
18135.467429730077,418.4160461425781,463.671142578125,185.8372039794922,-1604.7628173828125,-19.4490909576416,60.36294937133789,21.049232482910156,80.49813079833984,76.39226531982422,65535.0
18135.46782973863,426.6054992675781,463.32818603515625,175.10540771484375,-1617.2044677734375,-17.62146759033203,61.75032043457031,26.39896583557129,81.95880889892578,72.5888442993164,65535.0
18135.46822974718,448.79754638671875,462.3348693847656,184.9287872314453,-1601.0211181640625,-17.056049346923828,58.88337707519531,24.585908889770508,82.13370513916016,58.334815979003906,65535.0
18135.468629755735,474.9784240722656,451.8328857421875,196.9236297607422,-1603.4862060546875,-14.995708465576172,61.11305618286133,25.161697387695312,82.3276138305664,52.14139175415039,65535.0
18135.46902976429,488.4229431152344,450.88812255859375,199.3824005126953,-1615.2650146484375,-7.600460529327393,70.55878448486328,34.43244171142578,90.65422821044922,58.01301193237305,65535.0
18135.469429772842,487.9774169921875,454.19903564453125,199.72496032714844,-1607.4908447265625,-19.76673698425293,58.681514739990234,23.11355209350586,80.50235748291016,57.25388717651367,65535.0
18135.469829781392,493.25714111328125,451.1549072265625,197.06980895996094,-1582.9822998046875,-15.256583213806152,58.41386032104492,25.55084991455078,82.57742309570312,54.052452087402344,65535.0
18135.470229789946,506.95025634765625,452.02252197265625,195.4365234375,-1532.647705078125,-25.15045166015625,48.55469512939453,18.491281509399414,74.51375579833984,60.25584411621094,65535.0
18135.4706297985,517.3738403320312,448.1770324707031,193.99058532714844,-1462.0797119140625,-12.389718055725098,58.191650390625,29.37449836730957,85.92877197265625,58.205509185791016,65535.0
18135.47102980705,527.8372192382812,457.2270812988281,198.43275451660156,-1423.3411865234375,-16.872434616088867,55.669677734375,24.741310119628906,80.6627197265625,61.9759635925293,65535.0
18135.471429815603,530.1328125,460.1938781738281,196.36875915527344,-1415.432861328125,-23.170589447021484,47.89368438720703,16.650697708129883,76.40568542480469,56.31098175048828,65535.0
18135.471829824157,527.3462524414062,464.50506591796875,204.49493408203125,-1408.4105224609375,-23.439956665039062,43.857418060302734,14.551881790161133,73.811279296875,56.994178771972656,65535.0
18135.47222983271,520.2930908203125,465.18743896484375,203.62147521972656,-1395.8089599609375,-30.43959617614746,36.171142578125,11.878464698791504,70.02796173095703,57.679588317871094,65535.0
18135.47262984126,501.7011413574219,465.9708557128906,201.13011169433594,-1430.806396484375,-31.657432556152344,32.84376907348633,11.106816291809082,70.24581909179688,53.43326187133789,65535.0
18135.473029849814,493.560791015625,465.1252136230469,206.59300231933594,-1467.734130859375,-28.53155517578125,35.792964935302734,14.768118858337402,71.21540069580078,40.14583206176758,65535.0
18135.473429858368,482.30633544921875,469.44903564453125,189.277099609375,-1499.3673095703125,-33.157264709472656,31.188446044921875,8.973730087280273,66.16632080078125,50.73710250854492,65535.0
18135.473829866918,452.14971923828125,458.3523864746094,184.09910583496094,-1512.3758544921875,-37.049537658691406,26.323123931884766,4.940297603607178,60.2285270690918,56.77182388305664,65535.0
18135.47422987547,440.4812316894531,446.621826171875,186.6219024658203,-1513.01953125,-35.03388977050781,28.68613052368164,7.626236438751221,66.51409912109375,57.08251953125,65535.0
18135.474629884025,419.68017578125,444.680908203125,182.08139038085938,-1521.1204833984375,-38.542503356933594,19.61885643005371,4.141321659088135,58.019081115722656,47.89893341064453,65535.0
18135.47502989258,433.0994873046875,442.94244384765625,182.90414428710938,-1546.5198974609375,-38.97941970825195,20.604711532592773,2.485095739364624,57.41250991821289,38.85658264160156,65535.0
18135.47542990113,438.08770751953125,445.4747009277344,189.43856811523438,-1576.5277099609375,-34.07229232788086,27.4023380279541,7.292263031005859,64.7107162475586,61.63508224487305,65535.0
18135.475829909683,453.81024169921875,444.0990905761719,183.34027099609375,-1560.4420166015625,-34.590606689453125,27.258329391479492,4.329280376434326,64.7748031616211,57.2186279296875,65535.0
18135.476229918237,483.5111389160156,448.7311096191406,174.4488983154297,-1532.4158935546875,-25.763553619384766,33.6588020324707,14.154670715332031,70.80815887451172,60.649131774902344,65535.0
18135.476629926787,477.13226318359375,454.534912109375,181.3508758544922,-1534.1385498046875,-31.200254440307617,29.070755004882812,11.3357572555542,65.82579803466797,64.86245727539062,65535.0
18135.47702993534,459.8389587402344,454.44244384765625,174.81008911132812,-1517.88916015625,-37.95145797729492,25.514554977416992,3.2789151668548584,61.14979934692383,57.64115524291992,65535.0
18135.477429943894,442.4626770019531,449.1728515625,177.0152587890625,-1501.729736328125,-28.732725143432617,32.13237380981445,11.747071266174316,68.89990997314453,50.24617004394531,65535.0
18135.477829952448,431.0937805175781,447.06719970703125,175.54544067382812,-1485.6793212890625,-30.965591430664062,32.838016510009766,12.658414840698242,68.17865753173828,54.973388671875,65535.0
18135.478229960998,435.7275695800781,450.7410583496094,161.1005859375,-1494.0555419921875,-35.39849853515625,28.82486343383789,7.11530065536499,62.639217376708984,63.750244140625,65535.0
18135.47862996955,462.9599609375,437.9031982421875,167.06092834472656,-1499.608642578125,-38.310237884521484,24.44002342224121,1.5788284540176392,57.56153869628906,57.472774505615234,65535.0
18135.479029978105,493.0906982421875,441.0784606933594,160.69346618652344,-1507.6175537109375,-33.058837890625,30.12971305847168,6.681406497955322,67.27549743652344,56.33778762817383,65535.0
18135.479429986655,500.6388854980469,441.4169921875,167.3046417236328,-1519.052734375,-28.898691177368164,38.80809783935547,12.421422958374023,72.1652603149414,54.621238708496094,65535.0
18135.47982999521,484.32855224609375,433.2575988769531,166.2039794921875,-1512.368408203125,-29.750444412231445,39.322261810302734,11.524247169494629,68.5286636352539,73.87738037109375,65535.0
18135.480230003763,483.17620849609375,443.4197692871094,169.74232482910156,-1523.650146484375,-30.87542724609375,38.46194076538086,13.435483932495117,70.05829620361328,54.62437057495117,65535.0
18135.480630012316,477.9533386230469,435.7040100097656,175.46392822265625,-1547.6229248046875,-27.997371673583984,40.94091033935547,14.364995002746582,68.13509368896484,75.72391510009766,65535.0
18135.481030020866,501.32647705078125,426.7832946777344,168.6562042236328,-1556.6834716796875,-21.654035568237305,49.61037063598633,21.203702926635742,76.74871826171875,56.9389762878418,65535.0
18135.48143002942,513.7979736328125,421.5887145996094,171.45382690429688,-1559.0692138671875,-14.501276016235352,59.4421272277832,26.02752113342285,84.62295532226562,57.496971130371094,65535.0
18135.481830037974,525.6234741210938,426.1737060546875,175.44268798828125,-1564.3978271484375,-4.173497676849365,71.87669372558594,34.291751861572266,92.93892669677734,61.05498123168945,65535.0
18135.482230046524,542.3797607421875,423.1463317871094,178.73239135742188,-1529.0338134765625,-12.632539749145508,66.49681854248047,28.464275360107422,86.45234680175781,58.10787582397461,65535.0
18135.482630055078,551.4859008789062,415.3858642578125,179.80369567871094,-1470.40673828125,-6.624344348907471,70.04434204101562,32.39132308959961,93.06192016601562,63.78181838989258,65535.0
18135.48303006363,547.7234497070312,419.50628662109375,169.46299743652344,-1413.4876708984375,-3.9315884113311768,77.99061584472656,37.83366775512695,95.63432312011719,59.33483123779297,65535.0
18135.483430072185,560.5170288085938,415.8298645019531,174.74591064453125,-1408.4532470703125,-15.186100006103516,66.45692443847656,23.882976531982422,83.52597045898438,52.119815826416016,65535.0
18135.483830080735,551.5538940429688,418.47247314453125,171.05093383789062,-1419.22216796875,-5.491405487060547,75.10250091552734,30.882164001464844,91.47649383544922,69.07935333251953,65535.0
18135.48423008929,565.091796875,434.8155822753906,161.7063751220703,-1440.54931640625,-3.7210254669189453,84.83682250976562,37.665443420410156,94.99180603027344,60.805240631103516,65535.0
18135.484630097842,591.1983642578125,436.37286376953125,163.26318359375,-1479.8218994140625,-8.383764266967773,79.05178833007812,34.270877838134766,91.53289031982422,62.12691116333008,65535.0
18135.485030106393,639.1550903320312,447.72320556640625,171.44078063964844,-1484.799560546875,-7.042059898376465,76.35456085205078,33.060733795166016,91.35420227050781,64.01214599609375,65535.0
18135.485430114946,674.3260498046875,445.5080261230469,174.06646728515625,-1485.390380859375,-7.959849834442139,79.45622253417969,35.736202239990234,93.52680969238281,67.74539184570312,65535.0
18135.4858301235,710.1384887695312,436.7946472167969,173.4363555908203,-1471.6444091796875,-7.598586082458496,77.55908966064453,33.772804260253906,91.65697479248047,63.750205993652344,65535.0
18135.486230132054,750.5877685546875,438.6856689453125,182.037353515625,-1465.501953125,-5.7574992179870605,77.39248657226562,35.00199890136719,92.55107879638672,61.226356506347656,65535.0
18135.486630140604,779.2846069335938,431.3515625,177.96217346191406,-1469.882080078125,0.21055614948272705,83.6369857788086,41.66317367553711,95.78958892822266,58.124916076660156,65535.0
18135.487030149157,766.560546875,434.6610412597656,182.11497497558594,-1452.93310546875,-9.171854019165039,78.50048828125,35.80135726928711,92.55690002441406,57.20513153076172,65535.0
18135.48743015771,733.0515747070312,444.22808837890625,182.54867553710938,-1438.848876953125,-11.093768119812012,67.66551971435547,30.8826961517334,86.26104736328125,55.496219635009766,65535.0
18135.48783016626,703.5332641601562,442.53271484375,186.38624572753906,-1413.2271728515625,-12.750953674316406,67.71186065673828,30.349939346313477,85.8638916015625,64.86991882324219,65535.0
18135.488230174815,680.535400390625,441.6723937988281,185.6868438720703,-1388.9326171875,-18.696186065673828,63.924251556396484,25.09182357788086,83.08187103271484,69.72482299804688,65535.0
18135.48863018337,641.54638671875,446.66973876953125,184.8037567138672,-1406.9410400390625,-19.459020614624023,59.52729797363281,20.844106674194336,80.31226348876953,55.06629943847656,65535.0
18135.489030191922,590.9437866210938,449.931884765625,186.31773376464844,-1426.3812255859375,-7.443009376525879,67.39568328857422,31.289703369140625,88.41370391845703,58.06988525390625,65535.0
18135.489430200472,539.6088256835938,460.0419006347656,190.26394653320312,-1426.8953857421875,-6.6878814697265625,68.55703735351562,31.568735122680664,88.06704711914062,53.25872039794922,65535.0
18135.489830209026,477.8279724121094,458.4073486328125,181.2862091064453,-1412.506103515625,-17.180076599121094,57.200828552246094,25.41834831237793,81.09522247314453,57.64056396484375,65535.0
18135.49023021758,422.2014465332031,438.6332702636719,187.3702850341797,-1384.7164306640625,-24.684307098388672,49.484283447265625,20.160900115966797,75.57173919677734,76.50762939453125,65535.0
18135.49063022613,347.6982421875,442.9497375488281,185.01611328125,-1325.054443359375,-25.83566665649414,47.866668701171875,19.43683433532715,73.03959655761719,65.87730407714844,65535.0
18135.491030234683,309.0155334472656,457.6213073730469,184.22689819335938,-1280.5108642578125,-22.277376174926758,47.59373474121094,21.738845825195312,75.49169921875,60.83443069458008,65535.0
18135.491430243237,325.0937805175781,462.0083312988281,192.61984252929688,-1266.14404296875,-25.328786849975586,45.12723922729492,19.960479736328125,74.7466049194336,58.37522506713867,65535.0
18135.49183025179,340.43597412109375,462.2327880859375,197.37518310546875,-1265.41162109375,-28.15621566772461,42.41020584106445,14.295475006103516,68.64825439453125,62.378150939941406,65535.0
18135.49223026034,384.2699890136719,464.8234558105469,192.4230194091797,-1298.5584716796875,-29.223953247070312,38.44132995605469,17.62877082824707,71.77338409423828,60.72990417480469,65535.0
18135.492630268895,475.9184265136719,475.7450866699219,188.9200897216797,-1356.701171875,-21.602134704589844,45.051517486572266,20.861324310302734,76.69949340820312,61.57310104370117,65535.0
18135.49303027745,523.0906372070312,477.5796813964844,193.4403533935547,-1400.4788818359375,-26.86827278137207,37.855289459228516,16.7056827545166,71.91374206542969,75.084228515625,65535.0
18135.493430286,519.3181762695312,471.7622985839844,204.13519287109375,-1413.3746337890625,-34.03086471557617,30.199024200439453,6.563241481781006,62.77883529663086,62.27956008911133,65535.0
18135.493830294552,511.1964416503906,463.3791809082031,208.36459350585938,-1420.898681640625,-32.816402435302734,30.455467224121094,9.232194900512695,66.29148864746094,65.94213104248047,65535.0
18135.494230303106,511.6041564941406,456.8819580078125,200.35800170898438,-1428.09423828125,-26.86275291442871,35.89604187011719,14.731924057006836,72.2877197265625,66.93402099609375,65535.0
18135.49463031166,504.84002685546875,445.3164367675781,192.60043334960938,-1442.5631103515625,-23.102643966674805,37.605804443359375,13.503591537475586,71.26476287841797,63.842288970947266,65535.0
18135.49503032021,492.27294921875,441.9434509277344,190.3719024658203,-1456.745361328125,-28.593984603881836,33.05873107910156,7.838806629180908,66.52257537841797,63.36076736450195,65535.0
18135.495430328763,480.3912048339844,451.4516296386719,194.93955993652344,-1448.849853515625,-33.625587463378906,29.97487449645996,9.502250671386719,63.89708709716797,57.289432525634766,65535.0
18135.495830337317,478.86865234375,451.7764587402344,200.86395263671875,-1420.3096923828125,-34.04439163208008,28.442399978637695,8.68514633178711,63.99065399169922,73.88324737548828,65535.0
18135.496230345867,475.2005310058594,441.9713134765625,200.52609252929688,-1389.34375,-28.287267684936523,33.27070617675781,15.851786613464355,69.26454162597656,58.905391693115234,65535.0
18135.49663035442,486.88720703125,436.69482421875,192.27125549316406,-1381.9915771484375,-24.452070236206055,35.0899543762207,17.662063598632812,71.99624633789062,62.0885124206543,65535.0
18135.497030362974,493.0911865234375,424.70343017578125,194.8184814453125,-1395.91357421875,-29.561052322387695,32.330631256103516,11.2035493850708,69.25112915039062,70.61483764648438,65535.0
18135.497430371528,478.60211181640625,429.5359191894531,186.8376922607422,-1442.644775390625,-39.539615631103516,22.604415893554688,1.2611894607543945,60.61628341674805,64.15838623046875,65535.0
18135.497830380078,483.2545471191406,443.1855163574219,185.14219665527344,-1496.00146484375,-30.02235221862793,31.386499404907227,11.891585350036621,67.56671142578125,65.95873260498047,65535.0
18135.49823038863,496.7967529296875,435.6790771484375,199.1071014404297,-1513.0076904296875,-37.44706344604492,24.670896530151367,3.1942665576934814,61.194725036621094,73.8497314453125,65535.0
18135.498630397185,513.1538696289062,434.0093078613281,188.45852661132812,-1514.758544921875,-34.54442596435547,28.298301696777344,4.91671895980835,62.52699279785156,76.26880645751953,65535.0
18135.499030405736,522.8326416015625,433.6777648925781,180.16696166992188,-1530.662109375,-34.32009506225586,28.868837356567383,9.001110076904297,62.8902702331543,69.53711700439453,65535.0
18135.49943041429,524.359130859375,436.1606750488281,182.9614715576172,-1545.2889404296875,-27.122644424438477,34.95028305053711,13.06873607635498,71.4917984008789,54.69367980957031,65535.0
18135.499830422843,533.130126953125,442.2373046875,190.3934783935547,-1562.0462646484375,-30.835304260253906,34.66331100463867,13.380035400390625,68.28247833251953,54.345069885253906,65535.0
18135.500230431397,532.102783203125,429.630126953125,183.30032348632812,-1546.366943359375,-29.565834045410156,38.373931884765625,13.225515365600586,68.51940155029297,63.23502731323242,65535.0
18135.500630439947,543.4898681640625,431.9031066894531,177.61431884765625,-1501.2496337890625,-21.205121994018555,48.27204132080078,19.525989532470703,77.46975708007812,68.92277526855469,65535.0
18135.5010304485,539.8168334960938,430.1767883300781,178.62733459472656,-1445.99365234375,-21.59510040283203,50.7056884765625,21.282377243041992,78.0809097290039,60.501869201660156,65535.0
18135.501430457054,525.8015747070312,420.1893615722656,172.388427734375,-1413.453369140625,-24.898365020751953,47.13804244995117,19.059301376342773,75.36111450195312,67.06702423095703,65535.0
18135.501830465604,511.4150695800781,420.0796203613281,174.11097717285156,-1398.3477783203125,-21.017717361450195,45.94934844970703,19.32530975341797,74.83863067626953,70.53748321533203,65535.0
18135.502230474158,497.1426086425781,414.9529113769531,171.3214111328125,-1398.038818359375,-15.797861099243164,57.0719108581543,25.480321884155273,80.08775329589844,64.01905059814453,65535.0
18135.50263048271,493.87774658203125,401.0579833984375,174.13270568847656,-1420.7423095703125,-19.533456802368164,55.59482192993164,22.85883140563965,80.44418334960938,60.41328811645508,65535.0
18135.503030491265,497.4208068847656,403.2820129394531,163.6948699951172,-1457.262939453125,-24.27381134033203,50.292144775390625,17.142955780029297,74.87873840332031,68.08018493652344,65535.0
18135.503430499815,491.85992431640625,404.6503601074219,158.9802703857422,-1488.8807373046875,-25.1030330657959,48.90970993041992,16.708938598632812,70.87509155273438,78.2853775024414,65535.0
18135.50383050837,465.5183410644531,414.0769958496094,179.12405395507812,-1510.59912109375,-9.479293823242188,66.601318359375,32.32044219970703,86.12887573242188,76.34005737304688,65535.0
18135.504230516923,431.39849853515625,419.17071533203125,175.1516876220703,-1506.412353515625,-14.567718505859375,66.01673126220703,25.110109329223633,83.84872436523438,81.6862564086914,65535.0
18135.504630525473,415.3694763183594,434.86590576171875,176.79562377929688,-1471.71630859375,-26.252588272094727,53.474609375,17.458202362060547,71.96369934082031,69.87049865722656,65535.0
18135.505030534026,411.7152099609375,430.0644226074219,187.79074096679688,-1428.0596923828125,-14.496779441833496,63.025569915771484,24.10749626159668,81.06743621826172,63.26712417602539,65535.0
18135.50543054258,436.9504089355469,421.8387451171875,196.04052734375,-1414.911376953125,-12.088537216186523,66.33426666259766,30.31183433532715,86.52999877929688,71.68941497802734,65535.0
18135.505830551134,476.0802917480469,430.5921936035156,196.7845001220703,-1403.307861328125,-13.760592460632324,66.90264129638672,30.34572982788086,85.90727996826172,66.810546875,65535.0
18135.506230559684,520.2489013671875,433.90081787109375,210.2293701171875,-1394.05712890625,-12.08602523803711,67.24762725830078,29.706039428710938,85.79358673095703,70.75132751464844,65535.0
18135.506630568238,544.2456665039062,435.5947265625,213.21231079101562,-1387.8665771484375,-19.353839874267578,59.288089752197266,22.214200973510742,76.29059600830078,76.56417846679688,65535.0
18135.50703057679,575.0667114257812,446.17803955078125,214.84085083007812,-1369.798095703125,-17.94996452331543,62.72377014160156,24.264801025390625,80.02075958251953,76.771728515625,65535.0
18135.50743058534,626.4932250976562,445.9530334472656,216.10528564453125,-1373.626953125,-20.092649459838867,55.794708251953125,21.329959869384766,77.9476318359375,78.43353271484375,65535.0
18135.507830593895,659.193603515625,451.2529296875,210.02658081054688,-1381.99072265625,-21.592178344726562,53.29212951660156,18.68343734741211,73.89608764648438,74.63067626953125,65535.0
18135.50823060245,682.1553344726562,455.3759460449219,216.13096618652344,-1393.0054931640625,-19.026371002197266,55.388458251953125,22.20606803894043,79.36029052734375,64.35916137695312,65535.0
18135.508630611,695.6163330078125,451.427490234375,218.88941955566406,-1413.1282958984375,-22.74692726135254,48.9522590637207,17.920318603515625,75.11199951171875,55.76539993286133,65535.0
18135.509030619553,703.515869140625,442.735107421875,217.3270263671875,-1420.451416015625,-22.80821990966797,50.27778244018555,19.62830924987793,76.14850616455078,66.31423950195312,65535.0
18135.509430628106,686.1484985351562,439.9878234863281,203.783935546875,-1418.94677734375,-13.3724946975708,63.1133918762207,29.629188537597656,86.58602905273438,70.9571762084961,65535.0
18135.50983063666,657.065673828125,453.1266784667969,211.05540466308594,-1390.5909423828125,-11.934961318969727,62.23759078979492,30.622251510620117,87.49116516113281,58.131385803222656,65535.0
18135.51023064521,631.8206787109375,457.8155822753906,219.50738525390625,-1390.7469482421875,-15.30877685546875,56.115970611572266,28.702592849731445,83.05392456054688,48.78725051879883,65535.0
18135.510630653764,614.376220703125,455.95721435546875,217.05673217773438,-1406.557373046875,-18.57343864440918,54.54133605957031,25.147977828979492,80.65106201171875,58.78913497924805,65535.0
18135.511030662317,597.970458984375,459.4311828613281,209.15997314453125,-1425.63427734375,-18.55967140197754,48.3779296875,20.278812408447266,80.18243408203125,66.42130279541016,65535.0
18135.511430670867,588.2656860351562,463.687744140625,205.9025115966797,-1418.9915771484375,-17.30743408203125,53.53181457519531,27.7030086517334,82.65155792236328,73.94803619384766,65535.0
18135.51183067942,568.9255981445312,461.6728210449219,206.461181640625,-1408.29150390625,-18.204753875732422,47.21499252319336,23.522851943969727,79.86438751220703,81.17205047607422,65535.0
18135.512230687975,560.7809448242188,463.55877685546875,207.92538452148438,-1426.7662353515625,-17.143083572387695,48.5836067199707,24.302085876464844,80.4687728881836,68.13451385498047,65535.0
18135.51263069653,568.0451049804688,462.0954895019531,202.71852111816406,-1440.088623046875,-37.37308120727539,29.31878089904785,5.910564422607422,62.59602355957031,55.575138092041016,65535.0
18135.51303070508,562.391357421875,461.753662109375,213.5211181640625,-1451.0733642578125,-24.686429977416992,36.010337829589844,17.559471130371094,73.30072784423828,65.0567626953125,65535.0
18135.513430713632,553.6559448242188,465.56878662109375,204.10108947753906,-1419.005126953125,-22.392290115356445,40.6628532409668,19.042694091796875,75.35938262939453,75.77572631835938,65535.0
18135.513830722186,548.4864501953125,460.0390625,201.85633850097656,-1394.79052734375,-39.523014068603516,22.666065216064453,2.8099582195281982,57.98509979248047,71.72147369384766,65535.0
18135.514230730736,554.7621459960938,450.3175354003906,207.7047882080078,-1405.9564208984375,-41.10136413574219,19.837379455566406,-0.03728017583489418,58.16386032104492,77.68916320800781,65535.0
18135.51463073929,558.1987915039062,438.85052490234375,212.31849670410156,-1397.248046875,-27.609235763549805,36.50862121582031,14.177916526794434,68.96234893798828,75.9228515625,65535.0
18135.515030747843,542.2258911132812,440.59039306640625,214.31175231933594,-1395.189697265625,-28.358680725097656,32.7627067565918,11.046029090881348,68.42617797851562,72.73243713378906,65535.0
18135.515430756397,547.1403198242188,446.2112121582031,223.17835998535156,-1420.44921875,-28.559110641479492,32.011505126953125,12.58918285369873,70.88695526123047,69.72467041015625,65535.0
18135.515830764947,565.4298706054688,447.84149169921875,199.7244415283203,-1441.6292724609375,-28.72296142578125,33.99528121948242,12.046277046203613,67.46049499511719,58.932167053222656,65535.0
18135.5162307735,587.1514892578125,452.79620361328125,188.15231323242188,-1472.78955078125,-29.686344146728516,32.078582763671875,10.511630058288574,68.17144775390625,77.99813842773438,65535.0
18135.516630782055,593.1390380859375,439.5750732421875,180.60910034179688,-1487.91259765625,-37.99857711791992,25.94993782043457,4.864511489868164,62.70402908325195,71.29813385009766,65535.0
18135.517030790605,592.57666015625,436.5292053222656,175.73904418945312,-1475.7186279296875,-31.12983512878418,27.28756332397461,8.92201042175293,68.23799133300781,72.88420104980469,65535.0
18135.51743079916,619.2642211914062,444.0226745605469,178.18431091308594,-1479.200927734375,-24.70844078063965,37.97673797607422,15.5299072265625,75.41578674316406,79.08247375488281,65535.0
18135.517830807712,656.4031982421875,438.97113037109375,159.60357666015625,-1455.305908203125,-21.130212783813477,43.56978225708008,21.03896141052246,79.03626251220703,66.58201599121094,65535.0
18135.518230816266,668.8045043945312,436.6885986328125,150.92315673828125,-1429.4283447265625,-24.914934158325195,37.649173736572266,15.829808235168457,73.66978454589844,66.38563537597656,65535.0
18135.518630824816,657.4057006835938,447.4721374511719,158.6724853515625,-1457.164794921875,-27.77045249938965,38.44647979736328,14.524179458618164,72.64143371582031,74.74951171875,65535.0
18135.51903083337,621.0345458984375,438.8232727050781,157.69163513183594,-1488.3551025390625,-24.556283950805664,41.05759048461914,15.66784381866455,72.31607818603516,63.35512924194336,65535.0
18135.519430841923,583.2590942382812,430.086669921875,149.29376220703125,-1483.483154296875,-24.15433120727539,45.47928237915039,19.205415725708008,75.53421020507812,70.90676879882812,65535.0
18135.519830850473,579.4410400390625,431.5972900390625,153.32757568359375,-1467.1119384765625,-22.038427352905273,46.010345458984375,22.855140686035156,78.58343505859375,66.73603057861328,65535.0
18135.520230859027,567.4443359375,423.2247314453125,156.65487670898438,-1457.8946533203125,-20.268718719482422,50.89830780029297,23.33303451538086,78.93023681640625,60.027130126953125,65535.0
18135.52063086758,558.4531860351562,424.17315673828125,161.25428771972656,-1451.8836669921875,-11.699556350708008,57.50293731689453,27.884624481201172,83.9101333618164,66.7603759765625,65535.0
18135.521030876134,560.9110717773438,414.7894592285156,169.9037628173828,-1461.393310546875,-17.760692596435547,58.81265640258789,25.16037940979004,84.77754974365234,72.03262329101562,65535.0
18135.521430884684,562.5428466796875,416.85302734375,165.19802856445312,-1475.71923828125,-22.341087341308594,55.29871368408203,21.982877731323242,78.1201400756836,76.39251708984375,65535.0
18135.521830893238,542.8049926757812,414.1222229003906,156.8833770751953,-1490.4515380859375,-25.682252883911133,51.8649787902832,19.32309341430664,76.25749969482422,64.62334442138672,65535.0
18135.52223090179,495.92877197265625,413.3106994628906,156.46109008789062,-1510.2452392578125,-34.584228515625,43.70171356201172,10.270808219909668,68.28217315673828,68.48404693603516,65535.0
18135.522630910342,454.5539855957031,412.5046691894531,157.8547821044922,-1512.434814453125,-12.303689002990723,63.04304122924805,28.162086486816406,82.95927429199219,75.88163757324219,65535.0
18135.523030918896,404.1087951660156,412.716064453125,153.3190155029297,-1518.8748779296875,-20.926532745361328,56.70643615722656,22.89334487915039,73.93893432617188,69.31808471679688,65535.0
18135.52343092745,387.6772155761719,417.04730224609375,145.06248474121094,-1514.611572265625,-17.83963966369629,60.835548400878906,23.925621032714844,82.62593078613281,71.41126251220703,65535.0
18135.523830936003,409.64947509765625,424.1886901855469,155.77462768554688,-1498.061767578125,-12.762441635131836,70.02774047851562,29.95433807373047,86.69229888916016,79.74942779541016,65535.0
18135.524230944553,429.17303466796875,427.324951171875,162.4439239501953,-1479.0361328125,-18.613534927368164,63.59174346923828,23.778507232666016,81.29076385498047,77.44950103759766,65535.0
18135.524630953107,445.5692443847656,430.2772216796875,158.96920776367188,-1469.4051513671875,-15.560525894165039,64.7091293334961,20.718191146850586,77.45732116699219,75.57272338867188,65535.0
18135.52503096166,458.7109680175781,431.1136169433594,174.7443084716797,-1485.48876953125,-14.530367851257324,68.69828033447266,29.60638999938965,85.58470153808594,68.44708251953125,65535.0
18135.52543097021,487.8502197265625,426.4220275878906,186.6808624267578,-1502.212646484375,-23.078765869140625,59.754112243652344,21.37871551513672,78.25862884521484,78.06285858154297,65535.0
18135.525830978764,533.069091796875,430.3524475097656,190.16232299804688,-1506.2738037109375,-4.066987037658691,73.50762939453125,33.116912841796875,93.53167724609375,58.54878234863281,65535.0
18135.526230987318,545.765625,424.1996765136719,189.4447479248047,-1487.13330078125,-15.618463516235352,67.65558624267578,26.9995174407959,86.58502197265625,50.68248748779297,65535.0
18135.52663099587,554.6410522460938,434.48516845703125,182.5865020751953,-1494.4312744140625,-18.094215393066406,64.57322692871094,27.307655334472656,80.8933334350586,81.3868408203125,65535.0
18135.52703100442,547.6649780273438,451.0086669921875,180.26312255859375,-1517.7393798828125,-13.484792709350586,65.10987091064453,28.431598663330078,83.90748596191406,83.38890838623047,65535.0
18135.527431012975,547.8438110351562,445.8691101074219,177.42236328125,-1549.916015625,-15.033061981201172,66.63184356689453,26.38368797302246,85.38409423828125,70.42972564697266,65535.0
18135.52783102153,544.6634521484375,449.8034973144531,182.31761169433594,-1562.0567626953125,-13.581747055053711,66.23406219482422,28.034460067749023,82.42362213134766,81.54058074951172,65535.0
18135.52823103008,539.9465942382812,451.7577819824219,186.77723693847656,-1556.2777099609375,-18.472803115844727,59.217552185058594,24.137399673461914,79.00143432617188,72.18408966064453,65535.0
18135.528631038633,542.9429931640625,463.30743408203125,185.5967559814453,-1521.378662109375,-20.796058654785156,58.555572509765625,22.131288528442383,76.85798645019531,61.7578010559082,65535.0
18135.529031047186,548.92822265625,459.9042663574219,172.83901977539062,-1506.14892578125,-23.94335174560547,53.26384735107422,18.13023567199707,74.68891906738281,71.42161560058594,65535.0
18135.52943105574,557.2020263671875,463.2171936035156,183.82713317871094,-1521.56396484375,-30.16608428955078,45.995201110839844,15.499764442443848,69.6049575805664,57.45301818847656,65535.0
18135.52983106429,573.7280883789062,462.1512145996094,181.1131591796875,-1553.893798828125,-22.238676071166992,54.41773986816406,19.863983154296875,77.48226928710938,71.32740783691406,65535.0
18135.530231072844,597.5158081054688,461.59930419921875,191.56607055664062,-1542.4044189453125,-25.389535903930664,46.994937896728516,14.990833282470703,75.575927734375,66.16014862060547,65535.0
18135.530631081398,628.0152587890625,454.77984619140625,190.46188354492188,-1495.7586669921875,-23.567838668823242,50.06421661376953,16.909730911254883,75.94058227539062,59.77942657470703,65535.0
18135.531031089948,638.404541015625,452.043701171875,184.58961486816406,-1460.891357421875,-22.47081756591797,49.05363845825195,17.764863967895508,74.49846649169922,61.85382843017578,65535.0
18135.5314310985,613.2847900390625,449.96539306640625,187.97764587402344,-1433.5921630859375,-25.457738876342773,46.67210388183594,16.441801071166992,72.42779541015625,59.58807373046875,65535.0
18135.531831107055,586.5355224609375,458.64422607421875,180.10000610351562,-1437.7310791015625,-28.52838897705078,42.27667236328125,12.478666305541992,72.36336517333984,71.36186218261719,65535.0
18135.53223111561,569.9243774414062,447.2822265625,180.54818725585938,-1439.8687744140625,-24.39939308166504,44.42749786376953,16.23567771911621,74.76184844970703,68.42015838623047,65535.0
18135.53263112416,578.490478515625,455.70880126953125,184.4478302001953,-1426.598876953125,-21.922819137573242,45.13179016113281,20.816848754882812,77.96243286132812,68.847900390625,65535.0
18135.533031132712,600.4619140625,462.2173156738281,185.13070678710938,-1427.8118896484375,-15.492731094360352,50.45649337768555,24.765056610107422,82.04295349121094,69.94198608398438,65535.0
18135.533431141266,610.2628784179688,460.3934326171875,193.92359924316406,-1393.8250732421875,-21.38578224182129,48.70396041870117,22.82785415649414,76.97866821289062,72.93412780761719,65535.0
18135.533831149816,608.4885864257812,465.0906677246094,193.74195861816406,-1377.38232421875,-23.474443435668945,42.681034088134766,18.514816284179688,76.53143310546875,79.13096618652344,65535.0
18135.53423115837,584.872802734375,465.443115234375,196.17628479003906,-1385.8240966796875,-30.824506759643555,34.13167953491211,10.938663482666016,69.5588607788086,71.20197296142578,65535.0
18135.534631166924,548.093505859375,467.2239074707031,176.65884399414062,-1385.502685546875,-29.721933364868164,35.76847839355469,13.63359546661377,70.8471450805664,55.48628234863281,65535.0
18135.535031175477,535.1878662109375,466.2604675292969,174.3977508544922,-1364.1636962890625,-23.67353630065918,41.27021408081055,19.104846954345703,75.1082992553711,54.27699279785156,65535.0
18135.535431184027,533.711181640625,457.69439697265625,188.1055908203125,-1355.8675537109375,-29.57599449157715,36.366676330566406,14.795171737670898,70.86528015136719,62.45916748046875,65535.0
18135.53583119258,522.130859375,454.4168701171875,187.91209411621094,-1334.260498046875,-25.121906280517578,41.98409652709961,16.841646194458008,73.13024139404297,73.1597671508789,65535.0
18135.536231201135,511.2766418457031,459.4025573730469,181.12098693847656,-1338.088623046875,-33.36529541015625,35.62763214111328,10.454102516174316,66.05723571777344,71.18657684326172,65535.0
18135.536631209685,497.73480224609375,460.19329833984375,194.63121032714844,-1351.3013916015625,-30.640596389770508,33.36637496948242,8.705607414245605,69.2541275024414,68.57686614990234,65535.0
18135.53703121824,518.0918579101562,448.4929504394531,192.0650177001953,-1343.140625,-26.224395751953125,39.527183532714844,14.919183731079102,72.99088287353516,75.83453369140625,65535.0
18135.537431226792,542.5868530273438,446.9563903808594,186.161376953125,-1292.27392578125,-38.14754104614258,29.42529296875,5.774970054626465,63.81834411621094,76.94083404541016,65535.0
18135.537831235346,534.4326171875,443.0596923828125,188.9183807373047,-1197.727294921875,-31.80828285217285,29.990083694458008,8.085577011108398,65.1107177734375,68.23194122314453,65535.0
18135.538231243896,539.2081909179688,442.88787841796875,203.91871643066406,-1154.9990234375,-15.661294937133789,52.073238372802734,25.80970573425293,80.6635971069336,53.6824951171875,65535.0
18135.53863125245,506.0282897949219,449.0478515625,197.0341796875,-1199.592041015625,-15.450216293334961,56.698638916015625,26.260705947875977,82.66725158691406,64.84087371826172,65535.0
18135.539031261003,476.7669372558594,448.7428894042969,186.3271942138672,-1274.5015869140625,-18.414386749267578,51.896087646484375,21.538516998291016,80.62088775634766,69.06788635253906,65535.0
18135.539431269553,470.49810791015625,452.6800231933594,200.64048767089844,-1354.2327880859375,-15.67161750793457,55.279361724853516,23.98773193359375,81.93446350097656,62.559364318847656,65535.0
18135.539831278107,480.13330078125,446.2845153808594,203.99880981445312,-1408.7305908203125,-13.676261901855469,61.459346771240234,30.670888900756836,85.86009216308594,57.748191833496094,65535.0
18135.54023128666,496.4284973144531,439.0882568359375,197.79739379882812,-1439.0291748046875,-20.03082275390625,52.50360107421875,21.29722023010254,78.08776092529297,61.75421905517578,65535.0
18135.540631295215,506.84454345703125,434.16326904296875,196.1439666748047,-1450.5322265625,-26.065792083740234,47.5812873840332,16.475936889648438,68.71472930908203,66.19648742675781,65535.0
18135.541031303765,483.5766296386719,426.07586669921875,197.49893188476562,-1427.263671875,-19.349836349487305,57.62924575805664,22.453723907470703,79.5777587890625,65.51878356933594,65535.0
18135.54143131232,465.6782531738281,426.43292236328125,209.75148010253906,-1366.34326171875,-11.553101539611816,64.92581176757812,27.976049423217773,85.59456634521484,74.90139770507812,65535.0
18135.541831320872,445.1348876953125,430.4237976074219,206.21633911132812,-1346.555908203125,-14.547542572021484,66.56898498535156,29.966257095336914,83.52030944824219,70.89173126220703,65535.0
18135.542231329422,408.0071716308594,427.0677490234375,196.3526153564453,-1349.2755126953125,-14.873795509338379,66.32463836669922,28.269746780395508,83.90595245361328,56.5594596862793,65535.0
18135.542631337976,391.043701171875,419.8377685546875,209.17172241210938,-1396.074951171875,-8.59135627746582,72.96247863769531,33.371299743652344,89.53407287597656,61.99444580078125,65535.0
18135.54303134653,387.946044921875,420.275146484375,196.09962463378906,-1411.21826171875,-6.531634330749512,75.640869140625,34.81949234008789,88.67227172851562,62.91312789916992,65535.0
18135.543431355083,418.6938781738281,412.4732971191406,195.19012451171875,-1437.151611328125,2.3997676372528076,88.53021240234375,44.858238220214844,99.18759155273438,64.00852966308594,65535.0
18135.543831363633,445.2039794921875,419.3716125488281,204.5369110107422,-1456.1055908203125,-3.0936779975891113,86.37593841552734,38.29991149902344,96.62826538085938,59.0294075012207,65535.0
18135.544231372187,481.2998352050781,433.0148620605469,198.63580322265625,-1457.510498046875,-11.94887924194336,75.07135009765625,32.2960205078125,87.56110382080078,57.03662872314453,65535.0
18135.54463138074,477.5089111328125,430.1412658691406,198.31838989257812,-1449.6375732421875,-6.666924476623535,77.49170684814453,36.096534729003906,92.29109954833984,68.61090087890625,65535.0
18135.54503138929,464.7796325683594,423.120361328125,189.58895874023438,-1452.3743896484375,-2.93711519241333,82.81938934326172,37.3509521484375,94.10822296142578,65.67963409423828,65535.0
18135.545431397844,451.79046630859375,428.1791076660156,198.61569213867188,-1458.8424072265625,-12.738057136535645,74.68592834472656,29.516633987426758,88.6534423828125,61.03815841674805,65535.0
18135.545831406398,440.70904541015625,424.26666259765625,199.12367248535156,-1482.461669921875,-12.642494201660156,73.64690399169922,29.055431365966797,88.84215545654297,67.29821014404297,65535.0
18135.54623141495,463.7442932128906,431.5972595214844,201.99728393554688,-1492.712646484375,-11.66749095916748,75.58670043945312,31.937023162841797,87.57989501953125,55.78074645996094,65535.0
18135.546631423502,508.6098327636719,444.2627868652344,199.69747924804688,-1489.688720703125,-11.133550643920898,74.96936798095703,32.810997009277344,89.77483367919922,60.22564697265625,65535.0
18135.547031432056,536.1929321289062,451.37750244140625,205.22177124023438,-1479.7220458984375,-13.317392349243164,69.55127716064453,29.587642669677734,84.08415985107422,66.78707885742188,65535.0
18135.54743144061,549.21923828125,448.88494873046875,205.95965576171875,-1439.4783935546875,-15.799489974975586,67.80815124511719,26.690523147583008,85.44894409179688,69.14191436767578,65535.0
18135.54783144916,561.04150390625,448.3847351074219,201.8136749267578,-1386.7099609375,-10.400444030761719,69.34940338134766,30.95604705810547,88.4510269165039,57.99797058105469,65535.0
18135.548231457713,565.78173828125,448.58551025390625,208.06585693359375,-1335.602294921875,-9.726667404174805,67.55068969726562,32.215431213378906,83.02539825439453,66.51007080078125,65535.0
18135.548631466267,568.6982421875,446.13629150390625,192.35797119140625,-1305.079345703125,-4.888339996337891,74.97795104980469,34.01490020751953,91.2911148071289,70.57279968261719,65535.0
18135.54903147482,566.8074340820312,447.4963684082031,189.11666870117188,-1317.8966064453125,1.2938164472579956,83.27572631835938,44.137821197509766,100.1626205444336,67.02914428710938,65535.0
18135.54943148337,566.4020385742188,451.65093994140625,198.63882446289062,-1329.81591796875,-7.288515090942383,74.25552368164062,38.29404830932617,91.32975769042969,76.14833068847656,65535.0
18135.549831491924,585.4823608398438,456.2013244628906,195.38333129882812,-1333.45361328125,-4.682974815368652,74.3362045288086,36.457786560058594,92.10291290283203,69.8411636352539,65535.0
18135.550231500478,596.7599487304688,469.1522216796875,190.9639892578125,-1329.7713623046875,-5.2606024742126465,72.2325439453125,36.24360656738281,93.47858428955078,58.865779876708984,65535.0
18135.550631509028,624.5447998046875,466.1329040527344,196.1707305908203,-1328.5244140625,-22.65829086303711,52.26411437988281,22.62333869934082,76.28429412841797,73.74433898925781,65535.0
18135.55103151758,605.7391357421875,470.331787109375,208.56460571289062,-1321.015625,-14.453052520751953,56.25374221801758,28.249387741088867,84.86253356933594,63.850059509277344,65535.0
18135.551431526135,573.9915161132812,470.1798400878906,214.03529357910156,-1316.4990234375,-8.826631546020508,62.67671203613281,33.43109130859375,90.09405517578125,52.718971252441406,65535.0
18135.55183153469,581.6900024414062,475.19317626953125,208.0612030029297,-1315.889404296875,-13.218815803527832,58.818809509277344,31.233753204345703,87.15430450439453,70.24378204345703,65535.0
18135.55223154324,604.1585083007812,478.82720947265625,198.85159301757812,-1301.087890625,-24.3102970123291,46.10100173950195,16.543140411376953,75.07816314697266,58.85161590576172,65535.0
18135.552631551793,597.1494750976562,474.3830261230469,201.42227172851562,-1279.4573974609375,-21.68292999267578,44.30039978027344,17.046615600585938,74.19261169433594,50.67338562011719,65535.0
18135.553031560346,578.2486572265625,473.2105407714844,202.8212890625,-1249.82666015625,-10.911972045898438,53.9992790222168,29.24777603149414,86.89651489257812,58.18719482421875,65535.0
18135.553431568896,583.4849853515625,471.15142822265625,204.5627899169922,-1247.4752197265625,-21.811304092407227,43.90119934082031,20.74008560180664,77.19198608398438,67.0849380493164,65535.0
18135.55383157745,593.446533203125,477.7738342285156,208.7616729736328,-1266.821044921875,-22.60146141052246,39.00932693481445,15.890280723571777,71.72003936767578,64.27399444580078,65535.0
18135.554231586004,598.1349487304688,466.4410705566406,207.38870239257812,-1292.2650146484375,-31.513559341430664,30.07697868347168,9.605608940124512,66.8316650390625,55.015785217285156,65535.0
18135.554631594558,596.1102905273438,459.0367431640625,197.0417938232422,-1343.0306396484375,-20.724876403808594,39.31198501586914,18.390167236328125,75.98841857910156,60.2366828918457,65535.0
18135.555031603108,604.5078735351562,457.0926208496094,192.5986785888672,-1390.953125,-14.017905235290527,48.1343994140625,27.613441467285156,81.50682830810547,54.88418960571289,65535.0
18135.55543161166,611.7899169921875,454.68499755859375,195.1697540283203,-1417.3387451171875,-26.48615074157715,39.17300796508789,19.106904983520508,74.01850891113281,70.2186508178711,65535.0
18135.555831620215,597.6417846679688,450.64697265625,192.2751007080078,-1443.838134765625,-27.151243209838867,33.35054016113281,13.197230339050293,67.83377838134766,61.56955337524414,65535.0
18135.556231628765,583.3207397460938,454.0473327636719,181.653564453125,-1457.828857421875,-31.008371353149414,34.041236877441406,12.650114059448242,68.80073547363281,56.588470458984375,65535.0
18135.55663163732,586.2030639648438,452.7271423339844,186.45147705078125,-1453.7281494140625,-22.33180809020996,40.076541900634766,21.257827758789062,77.8379898071289,68.39704132080078,65535.0
18135.557031645872,601.7164306640625,460.23046875,185.1704864501953,-1421.8328857421875,-22.25933074951172,44.177852630615234,19.867429733276367,77.0489730834961,74.33732604980469,65535.0
18135.557431654426,625.7072143554688,456.3027038574219,177.792236328125,-1393.6817626953125,-34.967140197753906,31.82898712158203,6.764513969421387,64.90315246582031,55.96398162841797,65535.0
18135.557831662976,650.0631103515625,441.5072326660156,174.96563720703125,-1386.8099365234375,-32.396419525146484,30.918411254882812,5.308979034423828,65.02872467041016,55.30792236328125,65535.0
18135.55823167153,647.4142456054688,443.4085998535156,179.2488250732422,-1386.765869140625,-33.000389099121094,30.72483253479004,6.656935691833496,64.33203125,51.83565902709961,65535.0
18135.558631680084,619.6065063476562,442.5027160644531,175.5511474609375,-1387.9735107421875,-35.475826263427734,30.82182502746582,5.7607316970825195,65.3819351196289,57.55470657348633,65535.0
18135.559031688634,612.0082397460938,444.4900817871094,173.31028747558594,-1377.8125,-25.126049041748047,40.19667434692383,15.679448127746582,74.18473815917969,56.82090759277344,65535.0
18135.559431697187,639.8231201171875,440.2076416015625,171.2244415283203,-1374.2113037109375,-25.132780075073242,42.86471176147461,16.516647338867188,75.54412841796875,65.90968322753906,65535.0
18135.55983170574,665.596435546875,448.80743408203125,165.64239501953125,-1379.25244140625,-28.61360740661621,45.04910659790039,17.969526290893555,73.5328140258789,75.11256408691406,65535.0
18135.560231714295,699.3318481445312,445.4167175292969,166.41555786132812,-1379.7655029296875,-31.01944923400879,38.15402603149414,11.623281478881836,67.16480255126953,56.65994644165039,65535.0
18135.560631722845,701.261474609375,437.95751953125,171.1802978515625,-1390.912353515625,-33.523963928222656,36.35435104370117,7.672505855560303,62.90130615234375,62.43853759765625,65535.0
18135.5610317314,694.84130859375,447.40948486328125,164.68260192871094,-1410.2017822265625,-26.06869888305664,46.7226448059082,16.082618713378906,73.79029846191406,55.95286178588867,65535.0
18135.561431739952,691.5945434570312,433.0005187988281,157.12612915039062,-1418.237548828125,-20.27959442138672,56.73640823364258,22.844131469726562,79.96031188964844,48.108482360839844,65535.0
18135.561831748502,685.286865234375,431.1182556152344,173.84996032714844,-1423.4410400390625,-24.671812057495117,54.366947174072266,18.065637588500977,76.30240631103516,61.9131965637207,65535.0
18135.562231757056,681.972900390625,425.63958740234375,165.62637329101562,-1422.793212890625,-20.529300689697266,55.27307891845703,21.10816192626953,77.83033752441406,81.95650482177734,65535.0
18135.56263176561,680.0011596679688,422.82403564453125,164.0858154296875,-1407.108154296875,-16.758285522460938,64.44105529785156,29.40312385559082,83.99198150634766,80.57943725585938,65535.0
18135.563031774163,676.65087890625,424.3775329589844,160.47470092773438,-1415.12060546875,-11.99089241027832,72.8769760131836,30.510507583618164,88.50933074951172,70.83800506591797,65535.0
18135.563431782713,665.3031005859375,428.2138366699219,164.93218994140625,-1417.5931396484375,-11.842769622802734,71.52333068847656,28.36569595336914,85.5111312866211,56.82518005371094,65535.0
18135.563831791267,635.9457397460938,430.12005615234375,172.83978271484375,-1416.7225341796875,-12.797978401184082,74.588134765625,32.09064483642578,89.11155700683594,48.92499542236328,65535.0
18135.56423179982,597.7755126953125,415.23699951171875,180.00808715820312,-1436.6220703125,-17.53305435180664,67.5966567993164,25.568328857421875,83.64591979980469,57.57362365722656,65535.0
18135.56463180837,554.3577270507812,421.27783203125,176.23887634277344,-1461.9727783203125,-10.647259712219238,70.78073120117188,32.67081832885742,87.3542709350586,70.67623138427734,65535.0
18135.565031816925,530.119384765625,431.4806213378906,177.90774536132812,-1488.61474609375,-17.199487686157227,64.62738037109375,25.091350555419922,81.8823013305664,80.18447875976562,65535.0
18135.56543182548,534.4688110351562,431.6242980957031,190.934326171875,-1481.18603515625,-19.98224449157715,64.41685485839844,22.74208641052246,78.25248718261719,63.296085357666016,65535.0
18135.565831834032,521.7213745117188,439.83209228515625,187.7883758544922,-1455.3983154296875,-8.53753662109375,75.05659484863281,33.88158416748047,89.11488342285156,64.15918731689453,65535.0
18135.566231842582,486.97723388671875,445.47296142578125,193.53504943847656,-1436.35107421875,-11.144932746887207,71.74161529541016,30.39687156677246,88.17118835449219,61.675743103027344,65535.0
18135.566631851136,447.7147521972656,445.16192626953125,205.68963623046875,-1427.550048828125,-11.951427459716797,73.95217895507812,30.976003646850586,86.67741394042969,67.61376190185547,65535.0
18135.56703185969,427.96331787109375,452.20587158203125,194.48983764648438,-1407.8057861328125,-11.661580085754395,72.27513885498047,33.449825286865234,87.92566680908203,66.7468490600586,65535.0
18135.56743186824,399.1546325683594,449.1501770019531,190.3106231689453,-1394.8665771484375,-9.932374954223633,73.48683166503906,31.644975662231445,88.17027282714844,70.05320739746094,65535.0
18135.567831876793,384.9833984375,451.883544921875,191.66453552246094,-1385.607421875,-11.099172592163086,69.5185775756836,30.017072677612305,86.51329803466797,62.94963073730469,65535.0
18135.568231885347,391.8773193359375,458.1344909667969,184.95782470703125,-1360.4974365234375,-15.4385404586792,66.5406494140625,26.578474044799805,84.5892105102539,38.875911712646484,65535.0
18135.5686318939,400.40374755859375,460.8609924316406,187.5789337158203,-1352.3143310546875,-17.811859130859375,65.25440979003906,26.197465896606445,82.19581604003906,53.660335540771484,65535.0
18135.56903190245,409.7578430175781,465.95001220703125,187.40243530273438,-1358.6866455078125,-23.68515396118164,56.62860870361328,23.01675796508789,77.46635437011719,60.00498580932617,65535.0
18135.569431911004,408.7481994628906,465.50335693359375,189.492919921875,-1356.8223876953125,-18.289867401123047,62.50752639770508,26.462459564208984,82.90254974365234,61.20148849487305,65535.0
18135.569831919558,408.591064453125,470.8620910644531,192.53448486328125,-1355.104736328125,-14.246712684631348,64.57982635498047,29.29592514038086,81.75366973876953,61.032073974609375,65535.0
18135.570231928108,434.3984680175781,468.5186767578125,203.44456481933594,-1348.1673583984375,-10.370332717895508,69.83956146240234,33.31829071044922,88.60572052001953,58.249088287353516,65535.0
18135.57063193666,441.8284606933594,457.399658203125,196.1093292236328,-1341.504638671875,-4.5283122062683105,75.25035858154297,37.5011100769043,92.98660278320312,66.9642105102539,65535.0
18135.571031945216,423.9197692871094,462.0020446777344,191.49266052246094,-1337.53369140625,-12.935704231262207,63.40861892700195,30.31768798828125,84.56761932373047,58.625465393066406,65535.0
18135.57143195377,423.033203125,472.3069152832031,195.9425506591797,-1328.4144287109375,-16.701595306396484,56.733097076416016,24.502330780029297,80.33594512939453,63.18162155151367,65535.0
18135.57183196232,437.1414794921875,477.4161376953125,195.87562561035156,-1346.88525390625,-19.180099487304688,50.62409973144531,18.90350341796875,76.76693725585938,64.856201171875,65535.0
18135.572231970873,444.718017578125,473.7019958496094,207.69393920898438,-1361.7332763671875,-19.881139755249023,51.83198928833008,23.611249923706055,81.58940887451172,68.41535186767578,65535.0
18135.572631979427,442.56689453125,466.24700927734375,209.98690795898438,-1380.475830078125,-29.092317581176758,40.640106201171875,13.013077735900879,71.0860595703125,64.4526138305664,65535.0
18135.573031987977,440.7854919433594,472.1064147949219,206.6302032470703,-1393.6380615234375,-26.769065856933594,41.35654067993164,17.458444595336914,71.29847717285156,63.178951263427734,65535.0
18135.57343199653,445.89459228515625,472.41094970703125,208.19895935058594,-1389.3114013671875,-26.9974422454834,42.98751449584961,17.549718856811523,71.05122375488281,61.53854751586914,65535.0
18135.573832005084,445.70831298828125,478.81707763671875,213.34817504882812,-1398.3177490234375,-34.40829086303711,30.276548385620117,11.271437644958496,64.32539367675781,61.74992370605469,65535.0
18135.574232013638,432.6480712890625,469.7682800292969,201.71148681640625,-1386.5948486328125,-41.163570404052734,23.304630279541016,1.7735652923583984,61.04597091674805,74.66773986816406,65535.0
18135.574632022188,447.83758544921875,456.103515625,198.362060546875,-1368.9146728515625,-40.494384765625,24.49798011779785,3.191601514816284,59.50837326049805,67.86893463134766,65535.0
18135.57503203074,467.9100646972656,461.50946044921875,203.5303497314453,-1390.20361328125,-40.262386322021484,22.722593307495117,3.094172477722168,59.644432067871094,62.639495849609375,65535.0
18135.575432039295,461.4132385253906,466.55352783203125,198.08676147460938,-1407.01806640625,-36.05086898803711,29.455020904541016,5.337518692016602,62.407936096191406,65.72930908203125,65535.0
18135.575832047845,466.8741149902344,461.62811279296875,200.97984313964844,-1407.3973388671875,-38.17909240722656,25.403003692626953,4.147017002105713,58.2070198059082,51.50777816772461,65535.0
18135.5762320564,468.97564697265625,461.0534362792969,196.32608032226562,-1400.4779052734375,-33.1488037109375,27.797136306762695,9.051244735717773,63.79338073730469,57.78911590576172,65535.0
18135.576632064953,462.7950439453125,459.2008972167969,191.04258728027344,-1387.28662109375,-27.58698272705078,36.80707550048828,13.923593521118164,68.74529266357422,58.535308837890625,65535.0
18135.577032073506,455.8273010253906,446.1221923828125,203.19866943359375,-1392.1075439453125,-27.772058486938477,38.46470260620117,13.291796684265137,69.58857727050781,56.62665557861328,65535.0
18135.577432082056,461.3019714355469,446.22589111328125,205.18557739257812,-1404.0775146484375,-22.526626586914062,47.36300277709961,20.446941375732422,75.40261840820312,57.82085418701172,65535.0
18135.57783209061,460.8861999511719,452.4081115722656,204.28482055664062,-1392.5135498046875,-28.385116577148438,42.14501190185547,16.05347442626953,72.92802429199219,63.944454193115234,65535.0
18135.578232099164,480.646240234375,450.13397216796875,200.28311157226562,-1384.5030517578125,-40.39592742919922,25.526607513427734,3.683069944381714,59.584659576416016,50.752750396728516,65535.0
18135.578632107714,491.8730163574219,459.6639404296875,189.40789794921875,-1377.9307861328125,-20.982723236083984,45.71072006225586,19.4793701171875,75.85987854003906,46.23410415649414,65535.0
18135.579032116268,481.57171630859375,463.2750549316406,190.12725830078125,-1364.6568603515625,-13.904714584350586,57.159523010253906,28.480714797973633,85.05030822753906,49.21723937988281,65535.0
18135.57943212482,465.7204284667969,457.083251953125,190.56346130371094,-1356.41259765625,-19.82333755493164,49.325836181640625,21.377546310424805,76.24334716796875,51.059810638427734,65535.0
18135.579832133375,460.52947998046875,454.99041748046875,186.94271850585938,-1361.11279296875,-26.293935775756836,44.66345977783203,14.875774383544922,70.30999755859375,64.24947357177734,65535.0
18135.580232141925,480.4751892089844,452.2952575683594,199.9024200439453,-1360.3597412109375,-25.125751495361328,46.755653381347656,17.54779624938965,72.83866882324219,69.60042572021484,65535.0
18135.58063215048,502.1250305175781,452.7377014160156,193.5912628173828,-1382.257568359375,-18.513816833496094,55.08812713623047,20.839887619018555,78.25038146972656,63.76905059814453,65535.0
18135.581032159032,506.3016357421875,436.758544921875,185.32057189941406,-1375.3592529296875,-16.688692092895508,57.05910110473633,24.504350662231445,82.47964477539062,59.97983932495117,65535.0
18135.581432167583,486.0435791015625,440.9141540527344,189.73611450195312,-1363.509521484375,-18.327768325805664,58.73801040649414,23.435482025146484,80.64299774169922,51.88973617553711,65535.0
18135.581832176136,477.1268615722656,440.7130126953125,181.09811401367188,-1337.9786376953125,-19.600276947021484,59.061607360839844,21.80254554748535,80.90396881103516,58.74211120605469,65535.0
18135.58223218469,475.361328125,442.87860107421875,185.27317810058594,-1340.6925048828125,-20.12371253967285,57.04570007324219,22.18064308166504,79.45897674560547,64.01625061035156,65535.0
18135.582632193244,452.5789489746094,431.34759521484375,194.30125427246094,-1352.8594970703125,-15.873340606689453,61.092098236083984,26.348602294921875,82.23578643798828,70.34151458740234,65535.0
18135.583032201794,435.3917541503906,423.287841796875,186.10667419433594,-1400.7677001953125,-17.431888580322266,65.42353057861328,26.388235092163086,80.94719696044922,49.94495391845703,65535.0
18135.583432210347,451.2600402832031,408.2530517578125,189.31005859375,-1466.7857666015625,-20.892446517944336,62.14004135131836,23.094730377197266,78.58003997802734,59.133384704589844,65535.0
18135.5838322189,452.5315246582031,413.7596435546875,187.38165283203125,-1483.35400390625,-16.87776756286621,68.21466064453125,26.715084075927734,79.77049255371094,58.850791931152344,65535.0
18135.58423222745,456.8799743652344,433.8516540527344,190.6205291748047,-1465.9974365234375,-11.669696807861328,71.56752014160156,30.97416877746582,85.32633209228516,55.93416976928711,65535.0
18135.584632236005,470.5960693359375,426.5378112792969,182.16004943847656,-1430.4019775390625,-11.799129486083984,73.29684448242188,30.34478187561035,87.96768951416016,54.73395919799805,65535.0
18135.58503224456,507.6485290527344,430.3660583496094,185.32444763183594,-1402.9532470703125,-10.875211715698242,75.02387237548828,29.69112205505371,88.37909698486328,50.462379455566406,65535.0
18135.585432253112,557.7252197265625,436.590087890625,181.84799194335938,-1371.3153076171875,-10.460430145263672,79.5099105834961,32.527488708496094,88.0354995727539,54.74625015258789,65535.0
18135.585832261662,611.9715576171875,437.2414855957031,178.0892791748047,-1375.521240234375,-4.901325702667236,82.69508361816406,39.069129943847656,94.65921020507812,52.96025466918945,65535.0
18135.586232270216,637.6128540039062,435.2699890136719,177.44358825683594,-1368.3902587890625,-10.965782165527344,75.98552703857422,33.99282455444336,91.39772033691406,61.15396499633789,65535.0
18135.58663227877,646.8843383789062,448.2699279785156,186.65298461914062,-1376.6181640625,-19.22525978088379,64.90133666992188,23.57557487487793,78.79061889648438,59.093223571777344,65535.0
18135.58703228732,649.8900756835938,460.67620849609375,192.80332946777344,-1400.3275146484375,-20.66581916809082,58.37145233154297,22.622726440429688,76.02135467529297,67.48088073730469,65535.0
18135.587432295873,646.0859985351562,459.48687744140625,197.13278198242188,-1414.403076171875,-16.106311798095703,64.45523834228516,26.30516242980957,83.70513916015625,70.46331024169922,65535.0
18135.587832304427,633.3663940429688,465.4935607910156,194.56539916992188,-1408.5931396484375,-8.488283157348633,74.58795928955078,33.32373046875,89.28733825683594,52.589847564697266,65535.0
18135.58823231298,609.774658203125,465.31536865234375,194.1654052734375,-1405.7952880859375,-15.297797203063965,66.92375946044922,25.72104263305664,84.43804931640625,59.22892761230469,65535.0
18135.58863232153,603.1370849609375,468.6873474121094,192.96527099609375,-1415.788818359375,-25.209609985351562,50.28626251220703,15.19501781463623,72.05492401123047,52.795040130615234,65535.0
18135.589032330085,578.3255615234375,467.1776123046875,192.66456604003906,-1415.070068359375,-21.923011779785156,53.028160095214844,19.126760482788086,76.9358901977539,47.149723052978516,65535.0
18135.58943233864,560.6552124023438,473.18096923828125,192.08590698242188,-1399.7396240234375,-17.375743865966797,60.567501068115234,25.7459774017334,82.89940643310547,60.66626739501953,65535.0
18135.58983234719,560.5392456054688,473.9853515625,200.78018188476562,-1368.85205078125,-24.906156539916992,53.12386703491211,17.49632453918457,73.35482788085938,59.78506088256836,65535.0
18135.590232355742,525.6670532226562,470.34210205078125,204.41375732421875,-1316.5361328125,-20.55834197998047,51.11017990112305,21.620586395263672,76.60945892333984,44.669464111328125,65535.0
18135.590632364296,504.07208251953125,468.01239013671875,208.02769470214844,-1284.675048828125,-20.142234802246094,49.17821502685547,23.01558494567871,80.01799011230469,61.696868896484375,65535.0
18135.59103237285,495.9378967285156,474.7080078125,211.67373657226562,-1286.7000732421875,-12.64576530456543,59.31809616088867,29.508798599243164,86.06855010986328,54.82080078125,65535.0
18135.5914323814,490.27972412109375,472.9029541015625,220.93345642089844,-1324.4228515625,-14.592719078063965,58.07945251464844,26.728031158447266,84.6619644165039,54.30728530883789,65535.0
18135.591832389953,500.6723327636719,474.65234375,217.575439453125,-1382.22802734375,-24.044950485229492,46.765872955322266,19.943063735961914,75.44856262207031,72.41278076171875,65535.0
18135.592232398507,499.4017028808594,482.2965087890625,217.23512268066406,-1422.0826416015625,-21.97157859802246,41.72504806518555,16.601451873779297,74.18932342529297,61.31494903564453,65535.0
18135.592632407057,479.28857421875,472.44732666015625,223.1255645751953,-1463.0086669921875,-30.786569595336914,36.31403350830078,11.076698303222656,67.28280639648438,59.627479553222656,65535.0
18135.59303241561,469.7049865722656,475.0433044433594,220.0328826904297,-1471.2977294921875,-28.8656063079834,37.076759338378906,13.442694664001465,69.07624816894531,45.80406951904297,65535.0
18135.593432424164,476.3968811035156,487.6234436035156,222.93295288085938,-1431.816650390625,-21.049596786499023,41.40555191040039,20.514142990112305,76.12232208251953,46.32818603515625,65535.0
18135.593832432718,487.9046325683594,481.8044738769531,221.94647216796875,-1385.787353515625,-28.310304641723633,38.20227813720703,12.413076400756836,72.89704132080078,59.05154037475586,65535.0
18135.594232441268,494.42779541015625,489.9591369628906,222.57574462890625,-1335.486572265625,-33.35244369506836,28.029369354248047,6.9561543464660645,62.91252517700195,56.78125,65535.0
18135.59463244982,494.2175598144531,493.5201416015625,207.81210327148438,-1296.70068359375,-31.506935119628906,30.30239486694336,11.272637367248535,66.99024963378906,47.19413375854492,65535.0
18135.595032458375,484.6669006347656,490.9680480957031,197.5655517578125,-1274.5711669921875,-24.84968376159668,38.513092041015625,15.794352531433105,74.25617218017578,66.55119323730469,65535.0
18135.595432466926,482.6902160644531,480.5046081542969,221.49440002441406,-1293.7679443359375,-26.581506729125977,34.184303283691406,16.309707641601562,72.25113677978516,55.48811340332031,65535.0
18135.59583247548,475.79827880859375,469.2018737792969,208.0797882080078,-1309.875732421875,-30.41914176940918,31.92074966430664,11.562169075012207,69.8880386352539,44.34021759033203,65535.0
18135.596232484033,457.4930419921875,466.8795471191406,220.1505584716797,-1301.7269287109375,-36.86612319946289,27.039037704467773,8.096975326538086,65.0872573852539,57.08054733276367,65535.0
18135.596632492587,441.054931640625,475.67657470703125,215.1754913330078,-1299.2213134765625,-29.701059341430664,34.68253707885742,11.437338829040527,68.73273468017578,55.7355842590332,65535.0
18135.597032501137,413.2894592285156,463.8703918457031,203.3258514404297,-1326.7681884765625,-20.99761390686035,45.86198806762695,20.781267166137695,79.89996337890625,58.95600509643555,65535.0
18135.59743250969,410.60919189453125,460.8005676269531,208.720703125,-1364.3802490234375,-21.215675354003906,42.687076568603516,21.297956466674805,78.33026885986328,65.84779357910156,65535.0
18135.597832518244,453.6259460449219,471.26434326171875,206.24789428710938,-1365.679931640625,-19.065715789794922,48.68632888793945,24.115070343017578,78.40259552001953,47.02885055541992,65535.0
18135.598232526794,504.787109375,475.0032043457031,207.67987060546875,-1366.9176025390625,-17.742673873901367,49.148590087890625,24.123476028442383,79.73529815673828,47.36827087402344,65535.0
18135.598632535348,544.0308837890625,471.56463623046875,208.83224487304688,-1382.51025390625,-22.483766555786133,46.80877685546875,19.08904266357422,76.37459564208984,52.61378479003906,65535.0
18135.5990325439,594.4276733398438,472.0993347167969,205.97567749023438,-1407.4305419921875,-19.50802230834961,48.62473678588867,23.687963485717773,80.29488372802734,57.489234924316406,65535.0
18135.59943255245,617.1907348632812,465.1132507324219,197.7375030517578,-1416.6973876953125,-19.89275550842285,48.44394302368164,20.22537612915039,78.95624542236328,59.55733871459961,65535.0
18135.599832561005,613.8427734375,475.51617431640625,197.47216796875,-1407.2486572265625,-20.3782958984375,51.6875114440918,19.294424057006836,75.06254577636719,54.802574157714844,65535.0
18135.60023256956,587.683349609375,471.2303466796875,192.3778076171875,-1404.7325439453125,-25.095073699951172,40.6148796081543,16.73910140991211,71.28472900390625,60.76955795288086,65535.0
18135.600632578113,568.997314453125,464.45703125,187.0167694091797,-1432.4337158203125,-21.638900756835938,45.41382598876953,17.428817749023438,73.86012268066406,57.677940368652344,65535.0
18135.601032586663,551.6485595703125,459.35931396484375,177.76058959960938,-1459.5909423828125,-22.828969955444336,50.56953048706055,15.55408763885498,74.80826568603516,63.21071243286133,65535.0
18135.601432595216,534.8789672851562,458.54278564453125,176.0251007080078,-1495.8153076171875,-22.729400634765625,50.39071273803711,18.9303035736084,76.22513580322266,63.659873962402344,65535.0
18135.60183260377,533.9979248046875,457.8298034667969,171.9588165283203,-1522.260986328125,-24.439977645874023,49.03444290161133,18.66335678100586,73.54243469238281,61.472511291503906,65535.0
18135.60223261232,534.0108642578125,454.8695983886719,184.21971130371094,-1495.3634033203125,-29.968379974365234,44.50452423095703,13.504371643066406,68.94673156738281,54.87668228149414,65535.0
18135.602632620874,526.7515258789062,454.5198059082031,176.9510955810547,-1459.888427734375,-24.075700759887695,52.149139404296875,17.49907875061035,73.41377258300781,68.68299102783203,65535.0
18135.603032629428,508.65411376953125,435.7575378417969,170.7882080078125,-1454.3355712890625,-20.99325942993164,54.36639404296875,20.65684700012207,76.13448333740234,53.61189651489258,65535.0
18135.60343263798,492.7413024902344,434.6163635253906,185.2313690185547,-1446.1673583984375,-18.383602142333984,60.20977020263672,21.78990936279297,76.03812408447266,49.546485900878906,65535.0
18135.60383264653,494.450927734375,450.255859375,192.17086791992188,-1436.626953125,-8.77148723602295,74.96543884277344,31.290081024169922,89.03742218017578,57.0080680847168,65535.0
18135.604232655085,505.2537841796875,461.21221923828125,194.09207153320312,-1418.160888671875,-0.975615382194519,82.74058532714844,42.97530746459961,97.4143295288086,58.46458435058594,65535.0
18135.60463266364,510.51824951171875,451.21551513671875,182.71865844726562,-1390.5269775390625,1.1678767204284668,88.02182006835938,44.045467376708984,98.7540283203125,56.85822677612305,65535.0
18135.60503267219,497.51171875,460.11456298828125,188.300048828125,-1376.9439697265625,-9.045675277709961,75.86073303222656,31.402477264404297,88.37274932861328,62.622039794921875,65535.0
18135.605432680743,489.74688720703125,466.34881591796875,176.6910858154297,-1346.519287109375,-13.982638359069824,67.43318939208984,25.48086166381836,83.00078582763672,65.01316833496094,65535.0
18135.605832689296,482.5624694824219,466.87371826171875,182.58352661132812,-1345.077392578125,-15.206989288330078,67.99307250976562,27.173603057861328,84.69470977783203,60.497703552246094,65535.0
18135.60623269785,494.63250732421875,473.9431457519531,175.57676696777344,-1365.9874267578125,-13.97960376739502,66.76342010498047,26.971712112426758,84.78778076171875,52.1635627746582,65535.0
18135.6066327064,521.1788940429688,474.4847412109375,161.48509216308594,-1386.6993408203125,-5.867102146148682,76.15696716308594,34.640846252441406,92.70812225341797,57.79812240600586,65535.0
18135.607032714954,551.4435424804688,474.10577392578125,163.34896850585938,-1407.505859375,-6.986319065093994,79.8363037109375,36.971336364746094,92.30003356933594,53.77511215209961,65535.0
18135.607432723507,575.981689453125,473.29986572265625,157.5885009765625,-1430.49951171875,-10.746468544006348,72.23426055908203,32.46894836425781,87.226318359375,65.69970703125,65535.0
18135.607832732057,593.326904296875,477.8843688964844,154.07269287109375,-1454.4906005859375,-22.62630844116211,57.02281951904297,20.714263916015625,75.53491973876953,66.30208587646484,65535.0
18135.60823274061,587.4869384765625,467.9006652832031,157.2845001220703,-1468.8466796875,-11.81725025177002,67.58728790283203,30.21783447265625,85.63095092773438,58.95090103149414,65535.0
18135.608632749165,582.0629272460938,477.5797119140625,155.67330932617188,-1482.27783203125,-14.026649475097656,67.40726470947266,28.90827751159668,85.4354476928711,47.81758499145508,65535.0
18135.60903275772,595.574462890625,473.1155090332031,164.3519287109375,-1503.6063232421875,-18.74983024597168,60.426231384277344,22.115663528442383,78.52317810058594,56.28974151611328,65535.0
18135.60943276627,579.7012329101562,480.0316162109375,180.15255737304688,-1504.72216796875,-9.960906982421875,65.59107971191406,29.095502853393555,86.73258972167969,57.74022674560547,65535.0
18135.609832774822,567.876953125,495.4556579589844,176.4468536376953,-1479.22412109375,-15.707880973815918,55.618919372558594,23.471179962158203,81.32855224609375,56.62946319580078,65535.0
18135.610232783376,544.281982421875,494.0845031738281,188.58079528808594,-1455.6348876953125,-17.758197784423828,55.066158294677734,22.852596282958984,78.19219207763672,55.31875228881836,65535.0
18135.610632791926,553.1734619140625,496.4329833984375,190.10218811035156,-1448.3443603515625,-19.803924560546875,53.147178649902344,21.424150466918945,77.98384094238281,61.075035095214844,65535.0
18135.61103280048,561.2811279296875,496.6011962890625,192.9890899658203,-1467.4971923828125,-12.584003448486328,61.925350189208984,27.092330932617188,86.8580322265625,57.93110656738281,65535.0
18135.611432809033,583.693603515625,502.0158996582031,194.3070068359375,-1481.626953125,-4.831145763397217,67.15794372558594,37.29230499267578,91.47392272949219,60.506656646728516,65535.0
18135.611832817587,577.258056640625,509.2720947265625,192.68096923828125,-1473.9161376953125,-14.139863967895508,58.85877990722656,30.148401260375977,83.4983901977539,66.54608154296875,65535.0
18135.612232826137,570.0789184570312,517.2202758789062,207.2962646484375,-1480.27490234375,-21.893957138061523,49.57950210571289,20.3853816986084,78.80856323242188,68.05451965332031,65535.0
18135.61263283469,550.3062744140625,504.6783752441406,203.28953552246094,-1470.294677734375,-18.025327682495117,49.93486785888672,22.868270874023438,79.46271514892578,59.71187973022461,65535.0
18135.613032843245,539.7302856445312,509.29522705078125,199.08778381347656,-1468.4632568359375,-24.766490936279297,43.66835021972656,17.790592193603516,69.75482177734375,56.682926177978516,65535.0
18135.613432851795,548.7532958984375,505.6628112792969,205.95797729492188,-1455.9521484375,-30.09587287902832,36.12444305419922,10.401801109313965,67.42766571044922,59.60397720336914,65535.0
18135.61383286035,565.2538452148438,490.9023132324219,209.43118286132812,-1431.4656982421875,-34.277069091796875,32.086936950683594,9.229723930358887,64.57553100585938,53.17555618286133,65535.0
18135.614232868902,597.7291870117188,491.0557556152344,207.56300354003906,-1417.6719970703125,-20.266077041625977,45.51827621459961,21.55805015563965,75.75565338134766,40.71051025390625,65535.0
18135.614632877456,610.85400390625,486.4871826171875,206.701171875,-1388.3572998046875,-26.83957290649414,36.17478561401367,14.655024528503418,71.2530517578125,53.81892776489258,65535.0
18135.615032886006,609.11474609375,486.7192687988281,207.23939514160156,-1385.0635986328125,-28.742591857910156,31.919742584228516,11.772529602050781,68.33634185791016,52.32305908203125,65535.0
18135.61543289456,603.0101928710938,480.2182312011719,210.96067810058594,-1412.0479736328125,-23.863542556762695,35.922210693359375,16.337966918945312,71.50196838378906,49.09614944458008,65535.0
18135.615832903113,593.5801391601562,481.5411682128906,209.29006958007812,-1414.0897216796875,-25.67618751525879,39.38474655151367,18.658231735229492,74.93616485595703,42.78776931762695,65535.0
18135.616232911663,590.3999633789062,496.66168212890625,210.35775756835938,-1436.4749755859375,-32.30069351196289,31.306413650512695,11.916516304016113,67.37384796142578,51.03520965576172,65535.0
18135.616632920217,590.125732421875,494.6120910644531,206.9552459716797,-1435.361083984375,-36.94273376464844,26.114425659179688,4.273675918579102,63.772743225097656,56.729244232177734,65535.0
18135.61703292877,588.0996704101562,482.1180114746094,188.07135009765625,-1429.86376953125,-36.0408821105957,27.925769805908203,7.241818904876709,62.7156867980957,61.11614990234375,65535.0
18135.617432937324,586.9559936523438,481.2006530761719,200.97311401367188,-1445.261474609375,-30.43677520751953,33.081321716308594,11.293584823608398,66.10726165771484,61.69668960571289,65535.0
18135.617832945874,578.4314575195312,470.6778869628906,209.13877868652344,-1408.3780517578125,-32.36494827270508,33.683712005615234,11.51398754119873,69.21956634521484,58.81626510620117,65535.0
18135.618232954428,568.550048828125,471.9490661621094,198.77235412597656,-1371.0404052734375,-31.02264976501465,34.47916793823242,10.831172943115234,67.381103515625,59.86848449707031,65535.0
18135.61863296298,567.3200073242188,472.50372314453125,192.4200439453125,-1346.33837890625,-33.39461898803711,34.799827575683594,10.747247695922852,67.41279602050781,58.28449630737305,65535.0
18135.619032971532,572.2684936523438,485.1338806152344,198.5710906982422,-1357.718505859375,-32.909706115722656,31.882009506225586,9.693733215332031,62.311485290527344,56.89567184448242,65535.0
18135.619432980086,576.9302368164062,491.74542236328125,195.6467742919922,-1411.1075439453125,-17.492279052734375,48.61323165893555,23.492773056030273,78.4283676147461,63.03611755371094,65535.0
18135.61983298864,571.60107421875,479.8305358886719,194.08126831054688,-1430.861083984375,-29.045793533325195,41.0949592590332,12.869728088378906,67.78970336914062,56.12187194824219,65535.0
18135.620232997193,555.0707397460938,475.5442810058594,191.44900512695312,-1419.453857421875,-27.328351974487305,39.24587631225586,12.326089859008789,70.06538391113281,42.60081100463867,65535.0
18135.620633005743,542.2488403320312,474.7001037597656,192.53114318847656,-1432.3333740234375,-19.60235595703125,49.3141975402832,17.127721786499023,75.3556137084961,51.918800354003906,65535.0
18135.621033014297,524.0697631835938,467.6876525878906,179.97842407226562,-1466.951904296875,-19.425426483154297,53.39689636230469,20.634014129638672,77.4500732421875,52.62416076660156,65535.0
18135.62143302285,505.9656677246094,463.0457458496094,170.9788360595703,-1469.0924072265625,-20.060808181762695,56.930259704589844,23.299964904785156,78.53373718261719,43.952938079833984,65535.0
18135.6218330314,493.9044189453125,466.2357482910156,170.441162109375,-1496.673583984375,-32.00505065917969,46.676902770996094,10.827077865600586,68.18826293945312,45.12541580200195,65535.0
18135.622233039954,499.7107849121094,465.98431396484375,173.977294921875,-1516.3187255859375,-26.346506118774414,52.8326416015625,17.24649429321289,72.43563842773438,66.93310546875,65535.0
18135.622633048508,545.275390625,461.92291259765625,169.37542724609375,-1508.351318359375,-22.051912307739258,55.009925842285156,20.134557723999023,75.05584716796875,64.22749328613281,65535.0
18135.62303305706,571.294677734375,461.4022521972656,169.48121643066406,-1489.826904296875,-23.57000160217285,55.37977981567383,16.330692291259766,75.87603759765625,48.51453399658203,65535.0
18135.62343306561,571.8805541992188,458.894775390625,164.67030334472656,-1470.621337890625,-12.134739875793457,70.25823211669922,29.842308044433594,86.09922790527344,62.555423736572266,65535.0
18135.623833074165,586.2879638671875,455.39532470703125,157.59071350097656,-1469.3392333984375,-15.553297996520996,67.63098907470703,25.043643951416016,83.70564270019531,52.79545211791992,65535.0
18135.62423308272,622.0421142578125,456.42169189453125,166.89073181152344,-1476.699951171875,-7.191863059997559,75.33097076416016,32.75836181640625,91.09076690673828,58.84109878540039,65535.0
18135.62463309127,665.8881225585938,455.8273620605469,187.62518310546875,-1479.5145263671875,-2.468590497970581,84.18685913085938,40.012630462646484,94.04814910888672,64.46907043457031,65535.0
18135.625033099823,710.542724609375,470.0301208496094,185.43760681152344,-1466.3404541015625,-3.6294138431549072,82.98596954345703,39.4671516418457,96.39247131347656,38.71480941772461,65535.0
18135.625433108376,752.638427734375,464.7152099609375,175.37484741210938,-1436.0985107421875,-2.5250895023345947,84.51358032226562,36.93881607055664,95.18746948242188,49.62063980102539,65535.0
18135.62583311693,782.4666748046875,454.7835998535156,176.6415557861328,-1413.1365966796875,-3.5118467807769775,83.04882049560547,38.6981086730957,93.06939697265625,63.59014129638672,65535.0
18135.62623312548,797.2953491210938,454.5445251464844,167.4931640625,-1400.7066650390625,-2.346362352371216,83.6526107788086,41.52857208251953,95.73833465576172,48.12749481201172,65535.0
18135.626633134034,817.3123779296875,452.85711669921875,178.67166137695312,-1377.9290771484375,-6.35584020614624,78.63642120361328,33.5593376159668,90.99613952636719,41.394474029541016,65535.0
18135.627033142588,841.8842163085938,469.9134216308594,189.6377410888672,-1365.88134765625,-3.9314231872558594,76.69310760498047,36.38187789916992,93.97217559814453,60.47138214111328,65535.0
18135.627433151138,865.611083984375,466.3573913574219,185.54714965820312,-1371.27001953125,-3.0322916507720947,77.32088470458984,40.3109130859375,94.09809875488281,63.82241439819336,65535.0
18135.62783315969,870.4517211914062,463.82049560546875,193.18228149414062,-1380.285888671875,-2.3298511505126953,83.56352233886719,40.969722747802734,97.23332214355469,62.200077056884766,65535.0
18135.628233168245,857.7101440429688,478.8777770996094,197.08804321289062,-1400.1734619140625,-2.741637706756592,75.73661804199219,35.08682632446289,93.99908447265625,69.71134948730469,65535.0
18135.6286331768,817.7469482421875,474.8613586425781,188.1072235107422,-1388.6353759765625,-10.927563667297363,67.01828002929688,29.398771286010742,88.24381256103516,51.82209777832031,65535.0
18135.62903318535,788.7372436523438,480.90509033203125,187.92813110351562,-1366.2095947265625,-5.5911054611206055,68.54534912109375,32.57740783691406,90.83169555664062,55.019813537597656,65535.0
18135.629433193903,749.550537109375,489.3688659667969,190.39178466796875,-1361.250732421875,-14.143233299255371,60.887882232666016,27.295326232910156,85.59945678710938,62.94029998779297,65535.0
18135.629833202456,714.2333984375,486.6772155761719,202.5799560546875,-1373.713623046875,-23.125017166137695,53.35478210449219,18.954572677612305,77.54737091064453,68.0148696899414,65535.0
18135.630233211006,680.8994750976562,493.7632751464844,212.94068908691406,-1386.019287109375,-13.602747917175293,60.563568115234375,26.154420852661133,82.21026611328125,55.092281341552734,65535.0
18135.63063321956,632.4518432617188,481.90228271484375,210.34072875976562,-1407.406494140625,-17.411724090576172,58.43433380126953,23.55661964416504,80.14929962158203,46.82743835449219,65535.0
18135.631033228114,595.48291015625,487.29962158203125,206.71417236328125,-1430.997314453125,-22.3284912109375,50.02716827392578,20.567607879638672,74.69896697998047,48.258460998535156,65535.0
18135.631433236667,531.201416015625,497.0581359863281,199.54734802246094,-1427.5537109375,-28.204267501831055,44.566497802734375,15.878352165222168,72.35762786865234,48.42443084716797,65535.0
18135.631833245217,508.8780822753906,489.004150390625,211.7116241455078,-1435.97314453125,-20.57419776916504,52.333492279052734,21.133249282836914,79.06922912597656,63.58859634399414,65535.0
18135.63223325377,507.7072448730469,483.8839111328125,215.15716552734375,-1441.494140625,-25.836036682128906,39.135986328125,11.773820877075195,69.72088623046875,64.92359161376953,65535.0
18135.632633262325,504.7489929199219,491.1000671386719,212.51812744140625,-1447.3858642578125,-17.67970085144043,47.61225509643555,25.269630432128906,80.6965103149414,46.293846130371094,65535.0
18135.633033270875,517.1369018554688,488.85552978515625,215.20765686035156,-1442.7442626953125,-21.981767654418945,47.350364685058594,23.96283721923828,77.62850189208984,43.84074783325195,65535.0
18135.63343327943,503.4598388671875,478.486083984375,211.34457397460938,-1428.752197265625,-28.458715438842773,37.01820373535156,13.428276062011719,69.23527526855469,58.64447021484375,65535.0
18135.633833287982,479.5416564941406,480.7593688964844,202.52499389648438,-1415.24755859375,-27.476226806640625,35.78907775878906,14.890772819519043,71.20216369628906,67.61537170410156,65535.0
18135.634233296536,483.34814453125,485.7701416015625,210.94007873535156,-1367.407958984375,-32.06187057495117,30.350696563720703,8.260187149047852,67.8515396118164,56.01270294189453,65535.0
18135.634633305086,512.5863647460938,484.1358337402344,207.9526824951172,-1322.6778564453125,-43.88652801513672,18.4821720123291,-3.6052675247192383,53.989933013916016,63.81682205200195,65535.0
18135.63503331364,528.736083984375,478.5890197753906,211.10629272460938,-1296.89794921875,-42.54160690307617,17.960121154785156,1.693739652633667,58.661399841308594,73.35021209716797,65535.0
18135.635433322193,538.2290649414062,480.77667236328125,203.2743682861328,-1287.6546630859375,-35.40738296508789,23.955841064453125,4.365690231323242,63.33826446533203,56.255271911621094,65535.0
18135.635833330743,539.9953002929688,479.6037292480469,198.74899291992188,-1280.048095703125,-28.786651611328125,29.94810676574707,11.585105895996094,68.57588195800781,43.1953239440918,65535.0
18135.636233339297,533.2874145507812,471.6171875,211.6582489013672,-1267.870361328125,-21.988231658935547,40.99989318847656,20.8765811920166,81.48309326171875,48.01633071899414,65535.0
18135.63663334785,524.208251953125,463.0912170410156,209.133544921875,-1292.5091552734375,-23.290756225585938,41.027645111083984,19.32187271118164,73.4776611328125,43.1159553527832,65535.0
18135.637033356405,513.2572631835938,461.67718505859375,198.7748565673828,-1340.484619140625,-27.941246032714844,34.62614440917969,13.886139869689941,67.85425567626953,42.935855865478516,65535.0
18135.637433364955,500.232177734375,458.5382995605469,190.3545684814453,-1371.479248046875,-21.150009155273438,45.387760162353516,19.674753189086914,79.0866470336914,48.09139633178711,65535.0
18135.63783337351,511.73828125,459.9666442871094,191.46231079101562,-1394.3406982421875,-25.2508544921875,42.352294921875,13.21133041381836,72.17998504638672,55.09803009033203,65535.0
18135.638233382062,518.8318481445312,467.23876953125,191.0172119140625,-1388.868896484375,-27.08001708984375,36.432918548583984,12.930697441101074,70.90941619873047,58.34699249267578,65535.0
18135.638633390612,535.3335571289062,458.4576416015625,185.28631591796875,-1380.908447265625,-20.934343338012695,45.77397918701172,20.076074600219727,77.14527130126953,47.917152404785156,65535.0
18135.639033399166,561.9765625,461.0889892578125,178.64353942871094,-1362.2755126953125,-30.458372116088867,41.441654205322266,11.01150894165039,67.61236572265625,51.91653823852539,65535.0
18135.63943340772,594.245361328125,457.7978515625,179.99229431152344,-1369.7008056640625,-25.732419967651367,42.820613861083984,15.12623119354248,73.7008056640625,43.21007537841797,65535.0
18135.639833416273,587.7254638671875,460.6563720703125,185.9691162109375,-1383.44482421875,-16.56792449951172,53.43173599243164,26.393964767456055,84.57526397705078,39.24403762817383,65535.0
18135.640233424823,611.2959594726562,460.3297424316406,183.06378173828125,-1402.54345703125,-18.633399963378906,52.14884567260742,21.056976318359375,79.03807830810547,48.71685791015625,65535.0
18135.640633433377,606.4486083984375,464.0848388671875,185.79559326171875,-1421.059814453125,-19.06731605529785,51.042171478271484,21.427732467651367,79.1099853515625,46.0278434753418,65535.0
18135.64103344193,601.673095703125,462.0924072265625,186.98855590820312,-1460.5345458984375,-23.87091636657715,49.36258316040039,18.241744995117188,72.6527099609375,53.138153076171875,65535.0
18135.64143345048,595.031982421875,447.7803039550781,189.1458282470703,-1485.102783203125,-18.85718536376953,51.54923629760742,21.618457794189453,78.1126480102539,66.24031066894531,65535.0
18135.641833459034,606.4005126953125,453.4450988769531,172.75245666503906,-1489.1942138671875,-11.41262149810791,65.59639739990234,30.519529342651367,84.5603256225586,72.75658416748047,65535.0
18135.642233467588,632.853271484375,453.9197692871094,161.01034545898438,-1480.0399169921875,-23.459924697875977,53.912899017333984,17.110923767089844,76.579345703125,60.38471984863281,65535.0
18135.64263347614,645.2383422851562,441.2503356933594,164.90567016601562,-1469.5413818359375,-19.638084411621094,60.19883346557617,21.835290908813477,79.3926010131836,55.33770751953125,65535.0
18135.643033484692,651.5552978515625,435.3424072265625,159.34518432617188,-1463.7017822265625,-21.438901901245117,58.879756927490234,21.653963088989258,76.96168518066406,54.03374099731445,65535.0
18135.643433493246,661.3035888671875,438.1000671386719,157.25782775878906,-1464.76611328125,-24.055612564086914,56.45738983154297,18.022308349609375,73.44451141357422,62.15065002441406,65535.0
18135.6438335018,641.909423828125,443.2247314453125,168.79150390625,-1466.65625,-24.954486846923828,57.46936798095703,19.09825897216797,75.99053955078125,62.59746170043945,65535.0
18135.64423351035,604.3236694335938,449.62542724609375,175.6340789794922,-1475.9986572265625,-21.377857208251953,65.20745086669922,21.368581771850586,81.27188110351562,53.13066482543945,65535.0
18135.644633518903,561.2822265625,466.00897216796875,174.86415100097656,-1494.954833984375,-14.007265090942383,70.11225891113281,27.072311401367188,83.4698257446289,48.68391799926758,65535.0
18135.645033527457,534.939208984375,463.67987060546875,168.29794311523438,-1518.2781982421875,-9.019001960754395,76.28761291503906,33.033172607421875,88.13587188720703,57.26183319091797,65535.0
18135.64543353601,530.40478515625,463.79034423828125,170.87701416015625,-1550.0870361328125,-12.834640502929688,73.66284942626953,27.825847625732422,83.46916961669922,61.989070892333984,65535.0
18135.64583354456,524.6463623046875,470.0550537109375,166.22671508789062,-1550.660888671875,-20.991756439208984,64.51058197021484,19.54912567138672,76.35232543945312,52.09716033935547,65535.0
18135.646233553114,508.1132507324219,470.4268493652344,179.2422637939453,-1550.6993408203125,-16.008073806762695,69.87116241455078,24.514671325683594,82.82881164550781,61.43656921386719,65535.0
18135.646633561668,490.8163757324219,485.6805725097656,180.54185485839844,-1556.366455078125,-22.27715301513672,63.62537384033203,21.301040649414062,78.67464447021484,49.964698791503906,65535.0
18135.647033570218,449.863525390625,479.494384765625,176.85968017578125,-1546.6864013671875,-21.724050521850586,59.08652114868164,18.62681770324707,75.88384246826172,38.721858978271484,65535.0
18135.64743357877,393.8393859863281,477.68255615234375,179.9688720703125,-1523.922119140625,-19.824216842651367,62.52204895019531,23.492237091064453,77.8279037475586,59.68178939819336,65535.0
18135.647833587325,360.9934387207031,485.2787780761719,176.29832458496094,-1498.3446044921875,-22.385330200195312,58.32072830200195,21.273561477661133,76.95618438720703,61.12971115112305,65535.0
18135.64823359588,356.8028869628906,474.8077087402344,179.25669860839844,-1482.1231689453125,-23.189098358154297,52.87724685668945,16.903085708618164,73.66511535644531,63.549861907958984,65535.0
18135.64863360443,381.2441101074219,474.4245300292969,182.0614013671875,-1472.861328125,-18.094303131103516,58.33644104003906,19.4398250579834,77.26893615722656,60.7871208190918,65535.0
18135.649033612983,422.42169189453125,474.6747741699219,180.32962036132812,-1454.34521484375,-14.011590957641602,63.050662994384766,25.41817855834961,80.56120300292969,47.991451263427734,65535.0
18135.649433621536,466.9994812011719,469.9521484375,184.58392333984375,-1447.001953125,-20.73915672302246,57.22651290893555,22.22137451171875,76.74532318115234,58.62043380737305,65535.0
18135.649833630087,467.0536804199219,475.4749755859375,190.74122619628906,-1454.65771484375,-28.00071144104004,48.13974380493164,14.12527084350586,70.19960021972656,59.33098220825195,65535.0
18135.65023363864,434.1856994628906,469.9544372558594,190.5185089111328,-1460.4091796875,-23.424724578857422,50.3210563659668,18.590965270996094,73.6707534790039,54.369258880615234,65535.0
18135.650633647194,389.03106689453125,472.2487487792969,186.01791381835938,-1462.5609130859375,-19.413982391357422,52.668155670166016,20.51815414428711,76.59088134765625,48.23734664916992,65535.0
18135.651033655748,369.60009765625,479.2669982910156,187.624755859375,-1477.7557373046875,-37.272613525390625,36.027591705322266,5.574082851409912,59.64857864379883,46.64906311035156,65535.0
18135.651433664298,374.53125,483.2956237792969,189.19662475585938,-1483.2484130859375,-39.78156661987305,28.555410385131836,2.09335994720459,59.229034423828125,56.784088134765625,65535.0
18135.65183367285,393.4580078125,489.0187072753906,176.15240478515625,-1477.6536865234375,-38.26810073852539,30.290494918823242,2.7155380249023438,58.91228485107422,58.126522064208984,65535.0
18135.652233681405,413.7203063964844,487.64703369140625,168.42027282714844,-1461.8665771484375,-35.6756477355957,34.014060974121094,6.6869096755981445,61.84934616088867,55.77449035644531,65535.0
18135.652633689955,429.2499694824219,488.91461181640625,160.9821014404297,-1447.7093505859375,-46.261085510253906,21.54753875732422,-0.8008429408073425,55.64673614501953,60.571956634521484,65535.0
18135.65303369851,447.0889892578125,499.1341857910156,178.38699340820312,-1444.6680908203125,-40.04218673706055,22.549579620361328,0.6107902526855469,53.734195709228516,40.9542236328125,65535.0
18135.653433707063,449.1376953125,496.573974609375,179.35232543945312,-1452.790283203125,-33.22446823120117,33.154579162597656,9.612383842468262,63.77460479736328,41.83876419067383,65535.0
18135.653833715616,449.3163146972656,492.57061767578125,174.8980255126953,-1455.99169921875,-35.03829574584961,28.976205825805664,5.461455821990967,63.561492919921875,59.952877044677734,65535.0
18135.654233724166,464.7384033203125,490.5614013671875,184.57894897460938,-1437.1612548828125,-28.131349563598633,35.24897766113281,12.750328063964844,70.2738265991211,57.985939025878906,65535.0
18135.65463373272,475.1112060546875,484.11224365234375,179.57749938964844,-1427.8624267578125,-28.154495239257812,32.788902282714844,13.454684257507324,69.878662109375,42.081546783447266,65535.0
18135.655033741274,493.2357482910156,478.7853088378906,178.93898010253906,-1432.267822265625,-40.03316879272461,20.835548400878906,1.1039066314697266,55.53511428833008,47.3324089050293,65535.0
18135.655433749824,506.26629638671875,483.2671203613281,175.87619018554688,-1429.6641845703125,-36.87244415283203,23.937637329101562,2.625821113586426,61.5020866394043,55.02479553222656,65535.0
18135.655833758377,505.6918029785156,484.3090515136719,179.72048950195312,-1420.6888427734375,-37.137413024902344,24.705589294433594,6.345676422119141,61.33302307128906,51.26820755004883,65535.0
18135.65623376693,514.1824951171875,476.9212341308594,174.7405242919922,-1427.9393310546875,-29.06247329711914,34.887939453125,11.05720043182373,67.2544937133789,54.6265983581543,65535.0
18135.656633775485,512.7445678710938,476.3298645019531,168.24078369140625,-1439.615478515625,-33.251075744628906,27.18801498413086,4.315847396850586,62.2644157409668,62.06082534790039,65535.0
18135.657033784035,508.861572265625,467.1963806152344,176.263671875,-1442.2877197265625,-39.43457794189453,23.39269256591797,-0.1322644054889679,57.9918327331543,62.337059020996094,65535.0
18135.65743379259,508.8151550292969,457.218505859375,185.36001586914062,-1436.4161376953125,-29.892099380493164,35.12898635864258,11.222315788269043,69.24602508544922,65.42925262451172,65535.0
18135.657833801142,503.6138000488281,456.3320007324219,182.97128295898438,-1422.76318359375,-26.645626068115234,41.287071228027344,12.293668746948242,70.3136215209961,60.457550048828125,65535.0
18135.658233809692,485.230712890625,468.6514587402344,171.23373413085938,-1424.0792236328125,-35.75706100463867,33.18941116333008,10.704144477844238,66.18963623046875,53.86973190307617,65535.0
18135.658633818246,520.8251953125,462.6522521972656,169.82057189941406,-1420.6873779296875,-31.606340408325195,35.73956298828125,8.668232917785645,64.45269012451172,63.99295425415039,65535.0
18135.6590338268,538.447998046875,463.9196472167969,167.0655517578125,-1424.1395263671875,-21.310386657714844,49.059139251708984,20.124187469482422,73.95801544189453,63.2041015625,65535.0
18135.659433835353,540.31787109375,472.0655212402344,177.16920471191406,-1427.5054931640625,-24.802814483642578,42.772369384765625,19.87013816833496,74.95213317871094,51.73504638671875,65535.0
18135.659833843903,535.3596801757812,459.42584228515625,163.9613037109375,-1421.52197265625,-24.098731994628906,46.91841506958008,18.706819534301758,74.70994567871094,55.86284637451172,65535.0
18135.660233852457,527.6961059570312,454.9296875,160.39218139648438,-1415.5394287109375,-32.27738952636719,40.73384475708008,12.293639183044434,66.7093734741211,43.03480529785156,65535.0
18135.66063386101,531.607421875,462.08624267578125,160.4790802001953,-1414.07958984375,-32.27283477783203,40.067508697509766,12.433481216430664,69.13888549804688,47.92013931274414,65535.0
18135.66103386956,562.3043212890625,461.1731262207031,164.2953338623047,-1420.3372802734375,-27.870315551757812,43.25016403198242,13.795913696289062,69.13613891601562,56.20418167114258,65535.0
18135.661433878115,583.5783081054688,466.47235107421875,159.66810607910156,-1431.1580810546875,-16.0660343170166,59.38764190673828,24.93535804748535,80.17829132080078,52.95499801635742,65535.0
18135.66183388667,608.3864135742188,460.67938232421875,157.69508361816406,-1439.8861083984375,-29.676013946533203,47.85060119628906,13.922077178955078,70.78084564208984,51.06705093383789,65535.0
18135.662233895222,613.6604614257812,460.662841796875,165.7986297607422,-1438.451904296875,-19.42159080505371,55.93795394897461,21.318105697631836,78.5309829711914,49.61513137817383,65535.0
18135.662633903772,614.139404296875,454.5849914550781,166.29339599609375,-1444.601318359375,-12.723392486572266,67.26079559326172,26.34311294555664,85.1746597290039,40.31547927856445,65535.0
18135.663033912326,618.1356201171875,458.8569641113281,177.8314971923828,-1448.9420166015625,-13.394875526428223,68.41796875,25.268033981323242,83.08466339111328,50.48511505126953,65535.0
18135.66343392088,608.8233642578125,454.6882019042969,179.3474578857422,-1458.20751953125,-10.727222442626953,74.10490417480469,29.721397399902344,87.52130126953125,37.41433334350586,65535.0
18135.66383392943,611.3914184570312,450.80926513671875,179.4192657470703,-1453.6795654296875,-9.738990783691406,73.13159942626953,30.408100128173828,86.90229797363281,47.49665069580078,65535.0
18135.664233937983,607.4627075195312,462.8836669921875,185.5688934326172,-1454.7769775390625,-2.543656826019287,83.0190658569336,35.32821273803711,90.69468688964844,66.49173736572266,65535.0
18135.664633946537,593.6541137695312,461.61566162109375,176.74830627441406,-1475.2763671875,-13.758671760559082,74.421875,29.024499893188477,84.36040496826172,41.281822204589844,65535.0
18135.66503395509,585.8237915039062,464.7196350097656,184.72109985351562,-1478.703857421875,-11.071647644042969,73.8978271484375,32.36211395263672,83.84992980957031,40.782718658447266,65535.0
18135.66543396364,571.0700073242188,476.9682312011719,193.7568359375,-1486.091552734375,-6.013883590698242,82.50732421875,35.974945068359375,90.77457427978516,45.522247314453125,65535.0
18135.665833972194,565.4194946289062,477.5931091308594,194.99221801757812,-1482.6978759765625,-7.480403900146484,80.37996673583984,34.37655258178711,91.22631072998047,37.201080322265625,65535.0
18135.666233980748,581.1231689453125,478.3280334472656,205.7237091064453,-1486.3916015625,-16.837135314941406,67.06444549560547,25.948251724243164,79.23861694335938,46.569236755371094,65535.0
18135.666633989298,589.2326049804688,481.1318054199219,193.87454223632812,-1498.217041015625,-16.444866180419922,65.01696014404297,25.525224685668945,82.16079711914062,48.39223098754883,65535.0
18135.667033997852,615.0653686523438,482.3172607421875,193.38626098632812,-1490.515625,-15.425297737121582,65.94563293457031,27.195749282836914,83.70723724365234,43.44916534423828,65535.0
18135.667434006406,652.7035522460938,478.2307434082031,193.92796325683594,-1480.657470703125,-14.846453666687012,66.97970581054688,26.35740089416504,80.19987487792969,48.9014778137207,65535.0
18135.66783401496,668.5958862304688,475.63067626953125,195.83950805664062,-1494.93115234375,-13.622915267944336,68.203125,28.97584342956543,84.70095825195312,43.63188934326172,65535.0
18135.66823402351,675.0646362304688,485.6892395019531,191.71279907226562,-1490.8004150390625,-17.791183471679688,64.32599639892578,25.681682586669922,82.01891326904297,63.08877944946289,65535.0
18135.668634032063,685.2127685546875,480.6752014160156,196.4491424560547,-1491.6405029296875,-20.999258041381836,59.93937301635742,22.70075225830078,80.70842742919922,55.61907958984375,65535.0
18135.669034040617,665.332275390625,478.4880065917969,188.86785888671875,-1488.8465576171875,-15.675335884094238,63.32592010498047,25.89640998840332,84.70738983154297,59.563873291015625,65535.0
18135.669434049167,646.5935668945312,477.2774353027344,192.85427856445312,-1479.715087890625,-25.213369369506836,51.13324737548828,14.873493194580078,71.11366271972656,56.382266998291016,65535.0
18135.66983405772,620.88671875,467.1009216308594,203.8058624267578,-1469.0740966796875,-27.307321548461914,46.24662780761719,12.12778091430664,69.54290008544922,49.445350646972656,65535.0
18135.670234066274,616.7556762695312,471.116455078125,189.61561584472656,-1468.8011474609375,-26.44468879699707,47.60268020629883,16.352529525756836,73.5718002319336,39.416648864746094,65535.0
18135.670634074828,591.753173828125,475.4915466308594,187.67698669433594,-1455.1220703125,-21.935871124267578,44.72285842895508,16.607240676879883,69.8859634399414,53.867008209228516,65535.0
18135.671034083378,581.6807861328125,481.60394287109375,190.90628051757812,-1455.9844970703125,-19.276208877563477,49.15977478027344,17.476966857910156,75.60307312011719,40.939640045166016,65535.0
18135.67143409193,598.2927856445312,490.58929443359375,190.56808471679688,-1464.585205078125,-31.086048126220703,36.50455093383789,9.93808364868164,65.28717803955078,44.485015869140625,65535.0
18135.671834100485,597.115478515625,483.68328857421875,189.9550018310547,-1470.886962890625,-43.582969665527344,20.77034568786621,-2.4006130695343018,52.254756927490234,43.8735466003418,65535.0
18135.672234109035,590.0401611328125,484.9437561035156,193.42430114746094,-1479.882080078125,-37.280784606933594,27.905811309814453,4.944280624389648,60.63325119018555,50.823219299316406,65535.0
18135.67263411759,577.9479370117188,490.3905334472656,198.88819885253906,-1477.6220703125,-28.25234603881836,38.11752700805664,12.014541625976562,68.19052124023438,34.37099075317383,65535.0
18135.673034126143,553.9644165039062,490.7324523925781,191.1113739013672,-1470.3394775390625,-34.842529296875,32.269203186035156,9.564663887023926,63.61636734008789,55.03203201293945,65535.0
18135.673434134696,537.7049560546875,487.2945251464844,195.00747680664062,-1442.7178955078125,-34.558990478515625,30.888551712036133,10.470561027526855,67.4830551147461,74.05928039550781,65535.0
18135.673834143246,542.8665771484375,497.5856628417969,193.72174072265625,-1427.5452880859375,-37.820064544677734,23.6285343170166,2.050612211227417,59.82511901855469,62.94527816772461,65535.0
18135.6742341518,540.7638549804688,497.60772705078125,199.25732421875,-1428.6180419921875,-39.61940002441406,18.995691299438477,0.8074122667312622,57.895145416259766,58.627685546875,65535.0
18135.674634160354,538.8569946289062,491.9931640625,205.22500610351562,-1431.504638671875,-39.050865173339844,20.44585418701172,-0.14807148277759552,57.981727600097656,51.24199676513672,65535.0
18135.675034168904,556.5667724609375,482.739990234375,200.12115478515625,-1450.1021728515625,-41.10597610473633,22.067626953125,-0.8125852942466736,56.35972213745117,59.12643051147461,65535.0
18135.675434177458,567.9498291015625,479.0155029296875,198.64256286621094,-1460.31689453125,-40.75214385986328,21.38007926940918,1.4924745559692383,57.69987487792969,49.4389533996582,65535.0
18135.67583418601,527.4564208984375,483.5403747558594,202.43406677246094,-1452.2816162109375,-38.420188903808594,22.057483673095703,0.5936086177825928,58.411720275878906,38.459903717041016,65535.0
18135.676234194565,507.88226318359375,487.9758605957031,206.28941345214844,-1442.1260986328125,-43.95258712768555,19.422771453857422,-3.6387457847595215,56.967185974121094,61.861083984375,65535.0
18135.676634203115,505.17388916015625,483.9419250488281,198.5539093017578,-1442.1041259765625,-36.366634368896484,24.570043563842773,4.07180118560791,61.654930114746094,54.84878158569336,65535.0
18135.67703421167,482.8004150390625,475.9428405761719,194.17442321777344,-1464.234130859375,-42.2089958190918,18.03241539001465,-0.6706334352493286,55.10586929321289,51.30341339111328,65535.0
18135.677434220222,470.1612548828125,482.6260986328125,187.4582061767578,-1474.8443603515625,-34.45964050292969,26.284385681152344,6.085515975952148,64.04676055908203,56.5543098449707,65535.0
18135.677834228773,469.2596740722656,480.73687744140625,192.7364044189453,-1487.429443359375,-28.717477798461914,35.44187545776367,9.672916412353516,67.63544464111328,57.61458206176758,65535.0
18135.678234237326,460.19720458984375,480.1887512207031,196.9261932373047,-1500.669677734375,-28.4088134765625,38.35138702392578,13.24075984954834,72.7408676147461,59.253334045410156,65535.0
18135.67863424588,454.746826171875,476.5973815917969,198.76829528808594,-1497.9149169921875,-34.04472351074219,30.64659309387207,8.20291805267334,65.33099365234375,65.96746826171875,65535.0
18135.679034254434,485.52398681640625,475.08447265625,197.89613342285156,-1484.5552978515625,-35.82889938354492,29.838306427001953,7.2888946533203125,61.94158172607422,47.69074249267578,65535.0
18135.679434262984,509.3187255859375,475.0473937988281,201.5805206298828,-1474.5234375,-37.7693977355957,31.859113693237305,7.395022869110107,62.554691314697266,44.30536651611328,65535.0
18135.679834271537,510.4813537597656,474.7902526855469,196.4985809326172,-1462.682861328125,-30.694385528564453,39.82611083984375,12.144186019897461,68.64017486572266,49.31338882446289,65535.0
18135.68023428009,499.84539794921875,453.05023193359375,185.3533477783203,-1452.923095703125,-26.334001541137695,47.33077621459961,12.986452102661133,71.00851440429688,58.22623062133789,65535.0
18135.68063428864,506.46624755859375,466.0589599609375,188.6206817626953,-1451.6505126953125,-29.70207405090332,44.089813232421875,13.072031021118164,70.0041732788086,51.70513916015625,65535.0
18135.681034297195,518.7835693359375,461.521484375,189.35903930664062,-1486.40380859375,-30.343233108520508,43.925148010253906,13.81307315826416,69.91706085205078,56.460445404052734,65535.0
18135.68143430575,506.1410217285156,457.34619140625,182.5271759033203,-1491.208251953125,-21.372051239013672,54.82522964477539,21.440099716186523,76.28113555908203,77.80118560791016,65535.0
18135.681834314302,513.4127197265625,451.8905944824219,179.87806701660156,-1477.2972412109375,-13.444390296936035,63.236671447753906,28.962228775024414,83.53297424316406,70.59794616699219,65535.0
18135.682234322852,502.6820373535156,446.44189453125,172.17379760742188,-1472.0950927734375,-22.559419631958008,56.975250244140625,22.908723831176758,77.38459014892578,52.23808288574219,65535.0
18135.682634331406,497.2427062988281,448.4482727050781,171.445556640625,-1472.7711181640625,-17.087905883789062,61.50342559814453,24.75743865966797,82.7627944946289,53.64897537231445,65535.0
18135.68303433996,506.29217529296875,445.4726867675781,167.472412109375,-1468.513427734375,-19.26053237915039,58.756473541259766,20.983354568481445,80.60054016113281,50.08980941772461,65535.0
18135.68343434851,509.44635009765625,440.12628173828125,175.82679748535156,-1456.7484130859375,-14.255804061889648,65.57070922851562,25.032155990600586,85.3765640258789,58.870452880859375,65535.0
18135.683834357063,515.8359375,436.9598693847656,164.3926544189453,-1463.0406494140625,-10.268661499023438,72.64409637451172,29.67840576171875,89.66983032226562,57.13511276245117,65535.0
18135.684234365617,516.8974609375,445.48016357421875,176.2230224609375,-1457.7366943359375,-19.02455711364746,63.89362335205078,21.770265579223633,78.77377319335938,53.33419418334961,65535.0
18135.68463437417,528.4005737304688,450.6274108886719,196.8516845703125,-1460.0972900390625,-20.051061630249023,60.639747619628906,23.774641036987305,75.71668243408203,62.94447326660156,65535.0
18135.68503438272,528.4866943359375,449.0671691894531,195.7507781982422,-1468.5279541015625,-5.938111305236816,75.26531982421875,32.94626998901367,90.25926971435547,44.42890548706055,65535.0
18135.685434391275,546.837646484375,461.38055419921875,186.20437622070312,-1481.054443359375,-9.080904960632324,74.63204956054688,32.74418258666992,87.02413940429688,59.39946746826172,65535.0
18135.68583439983,566.1138305664062,464.0851135253906,188.1319122314453,-1525.3770751953125,-8.414976119995117,75.81812286376953,33.535011291503906,86.70480346679688,58.02376937866211,65535.0
18135.68623440838,569.6512451171875,460.1579284667969,200.9330596923828,-1562.311279296875,-10.27724838256836,73.56194305419922,29.245420455932617,85.85311889648438,59.729644775390625,65535.0
18135.686634416932,556.996337890625,469.5959167480469,195.50650024414062,-1563.2723388671875,-18.464618682861328,65.42214965820312,25.051349639892578,81.99103546142578,63.78458023071289,65535.0
18135.687034425486,540.9674682617188,480.80633544921875,202.4001007080078,-1555.321533203125,-13.58469295501709,66.73346710205078,29.936681747436523,81.92825317382812,46.79350662231445,65535.0
18135.68743443404,538.9384765625,472.98541259765625,198.3004913330078,-1547.575927734375,-19.31597137451172,64.5016860961914,24.208059310913086,81.66065216064453,52.817996978759766,65535.0
18135.68783444259,537.0289916992188,483.5588073730469,190.1977081298828,-1549.4598388671875,-9.883241653442383,69.25016784667969,29.037328720092773,87.37716674804688,78.24372100830078,65535.0
18135.688234451143,530.5836181640625,474.8937683105469,189.67446899414062,-1549.9114990234375,-9.634549140930176,66.34534454345703,32.21432876586914,85.89950561523438,64.07359313964844,65535.0
18135.688634459697,533.3106079101562,465.4412536621094,193.9598388671875,-1544.103271484375,-22.89978790283203,56.170448303222656,19.683752059936523,76.40955352783203,59.797264099121094,65535.0
18135.689034468247,540.0995483398438,472.0381164550781,194.34571838378906,-1533.9051513671875,-28.146764755249023,49.92733383178711,11.816655158996582,69.20013427734375,57.24844741821289,65535.0
18135.6894344768,536.63134765625,473.3924255371094,199.51971435546875,-1525.4547119140625,-21.444862365722656,52.39760208129883,18.36902618408203,75.67440795898438,56.636192321777344,65535.0
18135.689834485354,542.631591796875,473.5641174316406,194.7003936767578,-1524.0863037109375,-23.988901138305664,49.27248764038086,16.861854553222656,71.72776794433594,65.15673828125,65535.0
18135.690234493908,554.8070678710938,465.6578063964844,204.274169921875,-1519.1688232421875,-19.470335006713867,54.090641021728516,19.129486083984375,75.1200180053711,54.385223388671875,65535.0
18135.690634502458,556.0768432617188,466.67333984375,201.393798828125,-1509.5517578125,-17.650569915771484,53.30168914794922,21.561744689941406,79.89983367919922,69.56517791748047,65535.0
18135.691034511012,548.793212890625,469.7978210449219,193.6297607421875,-1495.9219970703125,-23.523101806640625,49.36149215698242,17.19106101989746,75.45841217041016,70.91248321533203,65535.0
18135.691434519566,547.0421752929688,478.6386413574219,206.49232482910156,-1475.8465576171875,-26.04758644104004,46.4926643371582,15.08417797088623,72.62940216064453,49.3036994934082,65535.0
18135.691834528116,557.6619873046875,484.7641906738281,209.5305633544922,-1462.3818359375,-26.359594345092773,43.11509323120117,17.812095642089844,71.1968002319336,55.740196228027344,65535.0
18135.69223453667,564.8790283203125,479.61871337890625,207.5995330810547,-1455.63818359375,-19.152956008911133,50.25565719604492,21.5322322845459,77.76133728027344,54.49400329589844,65535.0
18135.692634545223,548.9462890625,475.75701904296875,204.02792358398438,-1454.2393798828125,-23.772537231445312,46.36330032348633,18.942062377929688,74.22431945800781,61.14657974243164,65535.0
18135.693034553777,556.5022583007812,476.13665771484375,208.619140625,-1449.3443603515625,-25.50000762939453,40.31081008911133,15.464532852172852,70.2542495727539,70.5827407836914,65535.0
18135.693434562327,555.4363403320312,466.5395812988281,211.02243041992188,-1459.16748046875,-22.88201141357422,44.58732604980469,17.53609275817871,75.68746185302734,62.305458068847656,65535.0
18135.69383457088,548.824951171875,466.5160217285156,206.89138793945312,-1474.78515625,-24.568222045898438,40.30427932739258,15.692009925842285,70.21763610839844,54.040435791015625,65535.0
18135.694234579434,555.231689453125,475.9064025878906,201.49215698242188,-1492.3436279296875,-34.47591018676758,31.965110778808594,8.51510238647461,60.97016143798828,70.6431884765625,65535.0
18135.694634587984,572.6473388671875,466.5970458984375,205.8749237060547,-1528.8031005859375,-23.150270462036133,41.77739334106445,18.76296043395996,73.1443862915039,72.3466567993164,65535.0
18135.695034596538,573.470703125,474.241943359375,197.273193359375,-1533.755615234375,-26.171403884887695,39.07581329345703,15.218435287475586,72.07752227783203,61.16202926635742,65535.0
