time,X_NOSE,Y_NOSE,Z_NOSE,visibility_NOSE,X_LEFT_EYE_INNER,Y_LEFT_EYE_INNER,Z_LEFT_EYE_INNER,visibility_LEFT_EYE_INNER,X_LEFT_EYE,Y_LEFT_EYE,Z_LEFT_EYE,visibility_LEFT_EYE,X_LEFT_EYE_OUTER,Y_LEFT_EYE_OUTER,Z_LEFT_EYE_OUTER,visibility_LEFT_EYE_OUTER,X_RIGHT_EYE_OUTER,Y_RIGHT_EYE_OUTER,Z_RIGHT_EYE_OUTER,visibility_RIGHT_EYE_OUTER,X_RIGHT_EYE,Y_RIGHT_EYE,Z_RIGHT_EYE,visibility_RIGHT_EYE,X_RIGHT_EYE_OUTER,Y_RIGHT_EYE_OUTER,Z_RIGHT_EYE_OUTER,visibility_RIGHT_EYE_OUTER,X_LEFT_EAR,Y_LEFT_EAR,Z_LEFT_EAR,visibility_LEFT_EAR,X_RIGHT_EAR,Y_RIGHT_EAR,Z_RIGHT_EAR,visibility_RIGHT_EAR,X_MOUTH_LEFT,Y_MOUTH_LEFT,Z_MOUTH_LEFT,visibility_MOUTH_LEFT,X_MOUTH_RIGHT,Y_MOUTH_RIGHT,Z_MOUTH_RIGHT,visibility_MOUTH_RIGHT,X_LEFT_SHOULDER,Y_LEFT_SHOULDER,Z_LEFT_SHOULDER,visibility_LEFT_SHOULDER,X_RIGHT_SHOULDER,Y_RIGHT_SHOULDER,Z_RIGHT_SHOULDER,visibility_RIGHT_SHOULDER,X_LEFT_ELBOW,Y_LEFT_ELBOW,Z_LEFT_ELBOW,visibility_LEFT_ELBOW,X_RIGHT_ELBOW,Y_RIGHT_ELBOW,Z_RIGHT_ELBOW,visibility_RIGHT_ELBOW,X_LEFT_WRIST,Y_LEFT_WRIST,Z_LEFT_WRIST,visibility_LEFT_WRIST,X_RIGHT_WRIST,Y_RIGHT_WRIST,Z_RIGHT_WRIST,visibility_RIGHT_WRIST,X_LEFT_PINKY,Y_LEFT_PINKY,Z_LEFT_PINKY,visibility_LEFT_PINKY,X_RIGHT_PINKY,Y_RIGHT_PINKY,Z_RIGHT_PINKY,visibility_RIGHT_PINKY,X_LEFT_INDEX,Y_LEFT_INDEX,Z_LEFT_INDEX,visibility_LEFT_INDEX,X_RIGHT_INDEX,Y_RIGHT_INDEX,Z_RIGHT_INDEX,visibility_RIGHT_INDEX,X_LEFT_THUMB,Y_LEFT_THUMB,Z_LEFT_THUMB,visibility_LEFT_THUMB,X_RIGHT_THUMB,Y_RIGHT_THUMB,Z_RIGHT_THUMB,visibility_RIGHT_THUMB,X_LEFT_HIP,Y_LEFT_HIP,Z_LEFT_HIP,visibility_LEFT_HIP,X_RIGHT_HIP,Y_RIGHT_HIP,Z_RIGHT_HIP,visibility_RIGHT_HIP,X_LEFT_KNEE,Y_LEFT_KNEE,Z_LEFT_KNEE,visibility_LEFT_KNEE,X_RIGHT_KNEE,Y_RIGHT_KNEE,Z_RIGHT_KNEE,visibility_RIGHT_KNEE,X_LEFT_ANKLE,Y_LEFT_ANKLE,Z_LEFT_ANKLE,visibility_LEFT_ANKLE,X_RIGHT_ANKLE,Y_RIGHT_ANKLE,Z_RIGHT_ANKLE,visibility_RIGHT_ANKLE,X_LEFT_HEEL,Y_LEFT_HEEL,Z_LEFT_HEEL,visibility_LEFT_HEEL,X_RIGHT_HEEL,Y_RIGHT_HEEL,Z_RIGHT_HEEL,visibility_RIGHT_HEEL,X_LEFT_FOOT_INDEX,Y_LEFT_FOOT_INDEX,Z_LEFT_FOOT_INDEX,visibility_LEFT_FOOT_INDEX,X_RIGHT_FOOT_INDEX,Y_RIGHT_FOOT_INDEX,Z_RIGHT_FOOT_INDEX,visibility_RIGHT_FOOT_INDEX
14293.12724825468,0.475387841463089,0.26652833819389343,-1.0100483894348145,0.9999146461486816,0.4864296317100525,0.24553881585597992,-0.9682537317276001,0.9997915625572205,0.49584847688674927,0.24505674839019775,-0.9684469699859619,0.9997585415840149,0.5063573122024536,0.24486126005649567,-0.9687086939811707,0.9997530579566956,0.45418739318847656,0.246968612074852,-0.9868587255477905,0.99978107213974,0.44092440605163574,0.24758870899677277,-0.9870671629905701,0.9997832179069519,0.4289695620536804,0.2482193261384964,-0.9873193502426147,0.9997815489768982,0.5162866711616516,0.2548275291919708,-0.6608341932296753,0.9995824694633484,0.4030382037162781,0.2597915530204773,-0.7550378441810608,0.9998021721839905,0.4909760653972626,0.28750813007354736,-0.8895842432975769,0.9999493360519409,0.45019811391830444,0.28789854049682617,-0.9161443710327148,0.9999570846557617,0.5937561988830566,0.38002830743789673,-0.38846197724342346,0.9999041557312012,0.3158426880836487,0.3881264626979828,-0.5947641134262085,0.999901294708252,0.6187611818313599,0.5348294973373413,-0.22020474076271057,0.947821855545044,0.30393385887145996,0.5735396146774292,-0.5415244102478027,0.9900014400482178,0.6594081521034241,0.6640526056289673,-0.4473215639591217,0.9405050277709961,0.310547798871994,0.7274411916732788,-0.7391313314437866,0.9520948529243469,0.6744896173477173,0.7085456848144531,-0.5277055501937866,0.8920074701309204,0.3116103410720825,0.772566020488739,-0.8178277611732483,0.9083304405212402,0.6629854440689087,0.7112181782722473,-0.6116952300071716,0.9046062231063843,0.33776354789733887,0.7713035345077515,-0.9000407457351685,0.9153911471366882,0.6509966254234314,0.7019862532615662,-0.4869921803474426,0.9036450982093811,0.341730535030365,0.7546142935752869,-0.7733200788497925,0.9168500900268555,0.5610382556915283,0.6652717590332031,0.05002667009830475,0.9963169097900391,0.40123775601387024,0.6790037751197815,-0.04972100630402565,0.9952994585037231,0.5530632734298706,0.8918905258178711,-0.0752047449350357,0.3974650502204895,0.414366751909256,0.8885977864265442,-0.1181548684835434,0.3926587700843811,0.5289551019668579,1.0643699169158936,0.43684279918670654,0.1685953438282013,0.42137861251831055,1.0684435367584229,0.3285006284713745,0.19125846028327942,0.5133056640625,1.0890754461288452,0.4695869982242584,0.17942820489406586,0.41864150762557983,1.0874671936035156,0.35644975304603577,0.10972607880830765,0.5718269944190979,1.1280659437179565,0.19880938529968262,0.15603499114513397,0.4600955843925476,1.1434369087219238,0.01315869390964508,0.17244821786880493
14309.793914921345,0.4730742871761322,0.26879772543907166,-0.9935984015464783,0.9999490976333618,0.48632141947746277,0.24733750522136688,-0.9532368779182434,0.9998701810836792,0.4961661994457245,0.24713146686553955,-0.9534448385238647,0.9998571872711182,0.5069341063499451,0.24717551469802856,-0.9537042379379272,0.9998503923416138,0.45180046558380127,0.24836497008800507,-0.9689419269561768,0.9998499155044556,0.43875420093536377,0.24883157014846802,-0.9690999984741211,0.999849796295166,0.42615482211112976,0.24953658878803253,-0.9693250060081482,0.9998375177383423,0.518979549407959,0.2568075954914093,-0.648726761341095,0.9997567534446716,0.402238667011261,0.2606566846370697,-0.7298443913459778,0.9998525381088257,0.4906163811683655,0.2897443175315857,-0.8736131191253662,0.999968409538269,0.4475945234298706,0.2903624475002289,-0.8964803814888,0.9999700784683228,0.5938366055488586,0.3808150887489319,-0.38263338804244995,0.9999479055404663,0.31778180599212646,0.3870280086994171,-0.5507933497428894,0.9999110698699951,0.6167009472846985,0.5380980372428894,-0.20593498647212982,0.963470458984375,0.3061673045158386,0.5745937824249268,-0.4795410931110382,0.9877614974975586,0.656916618347168,0.6654590964317322,-0.43678733706474304,0.9634295701980591,0.3088266849517822,0.7250497937202454,-0.6900096535682678,0.9533221125602722,0.6721858978271484,0.7082861065864563,-0.5181096196174622,0.9306089878082275,0.31113260984420776,0.7716765403747559,-0.7690744400024414,0.914825439453125,0.6614962816238403,0.7106654644012451,-0.6073429584503174,0.9391520023345947,0.3321133553981781,0.7709112167358398,-0.8563303351402283,0.9217491745948792,0.6494932174682617,0.7012551426887512,-0.4779541790485382,0.9370707869529724,0.33599162101745605,0.7538498044013977,-0.7266144752502441,0.9233293533325195,0.5592171549797058,0.6630851626396179,0.03660474345088005,0.9971134662628174,0.40000051259994507,0.6789555549621582,-0.03626153990626335,0.995922327041626,0.5559182167053223,0.892967939376831,-0.06676263362169266,0.45231321454048157,0.4182758629322052,0.8918468356132507,-0.09988759458065033,0.41391631960868835,0.5420272350311279,1.067474603652954,0.401093453168869,0.1897956132888794,0.42746400833129883,1.0692214965820312,0.31691208481788635,0.1942083090543747,0.5294522047042847,1.092329740524292,0.4288627505302429,0.17644591629505157,0.4263751208782196,1.0886801481246948,0.34201857447624207,0.11254569888114929,0.5764722228050232,1.1318519115447998,0.1484811007976532,0.16067661345005035,0.4601101279258728,1.1434404850006104,-0.0010250083869323134,0.17145539820194244
14326.460581588011,0.4743717610836029,0.2654758393764496,-1.0062811374664307,0.999929666519165,0.4860081970691681,0.24443559348583221,-0.964752197265625,0.999824583530426,0.4957596957683563,0.24396070837974548,-0.9649587273597717,0.9998050332069397,0.5064113736152649,0.24388866126537323,-0.9652169942855835,0.9998016953468323,0.45296749472618103,0.24583910405635834,-0.9804931879043579,0.9998055100440979,0.4392712116241455,0.2463526725769043,-0.9806739687919617,0.9998051524162292,0.4270952045917511,0.2469550222158432,-0.9809154272079468,0.9997966885566711,0.5177009105682373,0.2541659474372864,-0.6597467064857483,0.999664306640625,0.4019869863986969,0.2585468292236328,-0.7402875423431396,0.9998056292533875,0.4911692440509796,0.2869691550731659,-0.8868818283081055,0.9999563694000244,0.4493931531906128,0.2869008481502533,-0.9095776677131653,0.9999605417251587,0.5952444076538086,0.3794707655906677,-0.3949708342552185,0.9999275207519531,0.31670868396759033,0.3880681097507477,-0.5691640973091125,0.9998914003372192,0.6158761978149414,0.5364651679992676,-0.23221233487129211,0.9591819047927856,0.3038124442100525,0.5745556354522705,-0.5046996474266052,0.9879135489463806,0.6522879004478455,0.6652463674545288,-0.4595637023448944,0.9547919034957886,0.3077201247215271,0.7260616421699524,-0.707909107208252,0.9449479579925537,0.6686039566993713,0.7087633013725281,-0.5416933298110962,0.9156815409660339,0.30809125304222107,0.7725774049758911,-0.7866331338882446,0.8977375030517578,0.6572356820106506,0.7107459902763367,-0.6263636946678162,0.9257256984710693,0.3312232494354248,0.7719217538833618,-0.8718893527984619,0.9057110548019409,0.645027756690979,0.7009267210960388,-0.49894896149635315,0.9231675267219543,0.3356071710586548,0.7550269365310669,-0.7436829209327698,0.9087691307067871,0.5565612316131592,0.6628256440162659,0.04225119203329086,0.9965257048606873,0.3994227647781372,0.6774642467498779,-0.041923295706510544,0.9954063892364502,0.5550041198730469,0.8911992907524109,-0.060601990669965744,0.4532219469547272,0.41700711846351624,0.8926544785499573,-0.10417039692401886,0.43125760555267334,0.5367639660835266,1.064980387687683,0.4140438139438629,0.20532941818237305,0.42226099967956543,1.068749189376831,0.3161783814430237,0.21498548984527588,0.5233937501907349,1.0899066925048828,0.4421251118183136,0.18497957289218903,0.41932350397109985,1.0882803201675415,0.34110531210899353,0.11825155466794968,0.5742139220237732,1.129111409187317,0.16170378029346466,0.1771005541086197,0.4592665433883667,1.143018364906311,-0.004005200229585171,0.18977852165699005
14343.127248254677,0.4739423394203186,0.2662675380706787,-1.0266072750091553,0.9999561309814453,0.4859861135482788,0.24509181082248688,-0.9841357469558716,0.9998918771743774,0.49596020579338074,0.24469423294067383,-0.9843409061431885,0.9998766183853149,0.506587564945221,0.2445993423461914,-0.9845920205116272,0.9998719692230225,0.4524008333683014,0.24641209840774536,-1.0009890794754028,0.999880313873291,0.43887656927108765,0.24696683883666992,-1.0011703968048096,0.9998788833618164,0.42662638425827026,0.24755859375,-1.0013935565948486,0.9998745918273926,0.5183032751083374,0.2544913589954376,-0.672857403755188,0.9997875094413757,0.40141165256500244,0.2585151195526123,-0.759274959564209,0.9998863935470581,0.49117252230644226,0.28730905055999756,-0.9048765301704407,0.999972939491272,0.44871392846107483,0.2871778607368469,-0.9292431473731995,0.999976634979248,0.5942467451095581,0.38015124201774597,-0.4031597673892975,0.9999402761459351,0.3167312443256378,0.3873952627182007,-0.5839254856109619,0.9999197721481323,0.6139025092124939,0.5373878479003906,-0.2314373254776001,0.9586645364761353,0.30379170179367065,0.5737777352333069,-0.5216280817985535,0.9900572896003723,0.6514458656311035,0.6671553254127502,-0.4645834267139435,0.9553780555725098,0.3080064356327057,0.7250285744667053,-0.7325660586357117,0.9564406275749207,0.6689789891242981,0.7106705904006958,-0.547713041305542,0.9170255661010742,0.31013360619544983,0.7705110907554626,-0.8138173222541809,0.9166081547737122,0.6577266454696655,0.7129321098327637,-0.6347889304161072,0.9267128109931946,0.33288824558258057,0.7701186537742615,-0.8984512090682983,0.9233225584030151,0.6457270979881287,0.7036118507385254,-0.5053034424781799,0.9251434803009033,0.33682191371917725,0.7530465126037598,-0.7681509852409363,0.9251967072486877,0.5590901374816895,0.6629407405853271,0.0408872552216053,0.9972444772720337,0.4000943601131439,0.6790483593940735,-0.04055361449718475,0.9962844848632812,0.5562430620193481,0.893073320388794,-0.05574421212077141,0.4615322947502136,0.41838598251342773,0.8916597366333008,-0.09634875506162643,0.4357490837574005,0.5411151647567749,1.0616557598114014,0.44150370359420776,0.19992178678512573,0.4258972108364105,1.0650964975357056,0.34312760829925537,0.21026694774627686,0.5276890397071838,1.0862317085266113,0.472359836101532,0.1883729100227356,0.42415109276771545,1.0841894149780273,0.3706360161304474,0.12022225558757782,0.578865647315979,1.1259421110153198,0.194106787443161,0.17626821994781494,0.4612334072589874,1.1392529010772705,0.026266086846590042,0.1871410608291626
14359.793914921343,0.4761735796928406,0.26698553562164307,-1.0220526456832886,0.9999234676361084,0.48750221729278564,0.24589601159095764,-0.9795827865600586,0.9998160004615784,0.49794963002204895,0.2454051524400711,-0.9798022508621216,0.9997900128364563,0.5082105994224548,0.24525994062423706,-0.9800627827644348,0.9997826218605042,0.4542843997478485,0.24713607132434845,-0.9974642395973206,0.9998015761375427,0.44038423895835876,0.24759230017662048,-0.9976530075073242,0.9997988343238831,0.42839428782463074,0.24799759685993195,-0.9979024529457092,0.9997923970222473,0.5188997983932495,0.25501084327697754,-0.6691989302635193,0.9996386766433716,0.401596337556839,0.2592245936393738,-0.760010838508606,0.9998179078102112,0.49351856112480164,0.2879573404788971,-0.9006173014640808,0.9999539852142334,0.4515800476074219,0.2878491282463074,-0.9262299537658691,0.9999608993530273,0.5958094596862793,0.3798083961009979,-0.40106746554374695,0.9999196529388428,0.31440019607543945,0.3918960988521576,-0.5900902152061462,0.9998981952667236,0.6123172640800476,0.5345021486282349,-0.23314279317855835,0.9505239725112915,0.30308616161346436,0.5753258466720581,-0.5294896364212036,0.9891735315322876,0.650006890296936,0.6635738015174866,-0.4648936092853546,0.9440037608146667,0.30851489305496216,0.7272077202796936,-0.7321978211402893,0.9463526606559753,0.6684042811393738,0.7066088318824768,-0.5470143556594849,0.8991816639900208,0.31032001972198486,0.7731311321258545,-0.8109915256500244,0.8988152742385864,0.6567837595939636,0.709455132484436,-0.6310142278671265,0.9111393094062805,0.33247679471969604,0.7734873294830322,-0.8958281874656677,0.9070376753807068,0.6442136764526367,0.6990524530410767,-0.5044572353363037,0.9097102880477905,0.33566814661026,0.7565001845359802,-0.7676604986190796,0.9103543758392334,0.5578820705413818,0.6650193333625793,0.045152291655540466,0.9964154958724976,0.3971861004829407,0.680204451084137,-0.04479731619358063,0.9951698184013367,0.5555509328842163,0.8933981657028198,-0.04758717864751816,0.40241196751594543,0.417486310005188,0.8926883935928345,-0.09772266447544098,0.38735759258270264,0.537894606590271,1.0653761625289917,0.44481149315834045,0.17074227333068848,0.4236365854740143,1.0673855543136597,0.3468213975429535,0.17597587406635284,0.5239370465278625,1.090793251991272,0.47503218054771423,0.1727781891822815,0.4212203025817871,1.0865392684936523,0.3747582733631134,0.1075417771935463,0.5794785022735596,1.1279817819595337,0.19716283679008484,0.14852645993232727,0.4600226581096649,1.1411614418029785,0.028490014374256134,0.15693941712379456
14376.46058158801,0.4785420000553131,0.2655777335166931,-0.9792191982269287,0.9999350309371948,0.4890836179256439,0.24449312686920166,-0.9358108639717102,0.9998456239700317,0.49924686551094055,0.24395279586315155,-0.9360100030899048,0.9998193383216858,0.5089125633239746,0.24378806352615356,-0.9362128973007202,0.9998077750205994,0.45690789818763733,0.24618300795555115,-0.9566404819488525,0.9998430013656616,0.44269609451293945,0.24691464006900787,-0.9568241834640503,0.9998444318771362,0.43073561787605286,0.24754375219345093,-0.9570633172988892,0.9998382329940796,0.5181134939193726,0.2537400424480438,-0.6274651885032654,0.9996805191040039,0.40301501750946045,0.25903749465942383,-0.7320061326026917,0.9998766183853149,0.4950355887413025,0.28652194142341614,-0.8595981001853943,0.9999632835388184,0.4542800784111023,0.28677618503570557,-0.888979434967041,0.9999716281890869,0.5932697653770447,0.3814190626144409,-0.35041579604148865,0.9999139308929443,0.3136798143386841,0.3912358582019806,-0.5892898440361023,0.999923586845398,0.6115610003471375,0.5371559262275696,-0.174625962972641,0.9491956830024719,0.3008460998535156,0.5736367702484131,-0.5384353995323181,0.9931666254997253,0.6486363410949707,0.6649207472801208,-0.40092796087265015,0.9467572569847107,0.3083885908126831,0.7238588333129883,-0.7314326763153076,0.9593746662139893,0.6662455797195435,0.7069725394248962,-0.47978970408439636,0.9013462662696838,0.31049060821533203,0.7701787352561951,-0.8114943504333496,0.9176508784294128,0.6554669141769409,0.7093846797943115,-0.5629487633705139,0.9129779934883118,0.3339146375656128,0.7696050405502319,-0.8930776715278625,0.9244614839553833,0.6433835625648499,0.6996259689331055,-0.4404982328414917,0.9119451642036438,0.3371986746788025,0.7521054148674011,-0.7654494643211365,0.9274566769599915,0.5544646978378296,0.666483461856842,0.06044336035847664,0.996551513671875,0.39711320400238037,0.6831305027008057,-0.060014788061380386,0.9959455132484436,0.5544570088386536,0.8937586545944214,0.007441540714353323,0.41208311915397644,0.4208916425704956,0.89375239610672,-0.08926799893379211,0.4395905137062073,0.5421714186668396,1.0656447410583496,0.4738306701183319,0.1818678230047226,0.42626953125,1.0681408643722534,0.3390516936779022,0.1880030632019043,0.5264669060707092,1.091707468032837,0.5014238357543945,0.2012939155101776,0.4227598011493683,1.0868823528289795,0.36566129326820374,0.12057860195636749,0.5922873020172119,1.1272170543670654,0.229969322681427,0.1541527360677719,0.4677586555480957,1.1429944038391113,0.023261915892362595,0.1636141687631607
14393.127248254676,0.47666218876838684,0.26795434951782227,-0.9542338848114014,0.9999326467514038,0.48933619260787964,0.24672487378120422,-0.9105056524276733,0.9998394250869751,0.4996267855167389,0.24658401310443878,-0.9107104539871216,0.9998131394386292,0.509867250919342,0.24669650197029114,-0.9109081029891968,0.9997988343238831,0.45569199323654175,0.24759362637996674,-0.9319574236869812,0.9998331069946289,0.4421095848083496,0.24809353053569794,-0.9321781396865845,0.9998388290405273,0.42946553230285645,0.24871249496936798,-0.9324319362640381,0.9998289346694946,0.520075261592865,0.25658172369003296,-0.6002286076545715,0.9996627569198608,0.40300095081329346,0.260116308927536,-0.7076438665390015,0.9998695850372314,0.4931422472000122,0.28937503695487976,-0.8336292505264282,0.9999616146087646,0.44949740171432495,0.28998416662216187,-0.8638229966163635,0.9999693632125854,0.5881849527359009,0.38393518328666687,-0.31940406560897827,0.9999114274978638,0.3152135908603668,0.3895922601222992,-0.5752348303794861,0.9999264478683472,0.6050068736076355,0.541783332824707,-0.14795652031898499,0.9400366544723511,0.3031153082847595,0.5763367414474487,-0.5342914462089539,0.9927970767021179,0.6505138874053955,0.6668211817741394,-0.3761589825153351,0.9450576901435852,0.3110573887825012,0.7283943295478821,-0.733001708984375,0.9586602449417114,0.6677709817886353,0.7093797922134399,-0.4531089663505554,0.8997172117233276,0.3117257356643677,0.7753151655197144,-0.8125264644622803,0.9166694283485413,0.6562317609786987,0.7111903429031372,-0.5381223559379578,0.9116916656494141,0.3341118097305298,0.7750354409217834,-0.8924090266227722,0.9234694242477417,0.6447408199310303,0.7014045715332031,-0.41664987802505493,0.9099956154823303,0.3381403684616089,0.7579190731048584,-0.7662861347198486,0.9264265298843384,0.5590032339096069,0.6703650951385498,0.0645977258682251,0.9962755441665649,0.39942339062690735,0.6869724988937378,-0.06420326232910156,0.9957591891288757,0.5574571490287781,0.900709867477417,-0.02054525539278984,0.3633306920528412,0.42107290029525757,0.9021240472793579,-0.11153053492307663,0.38334596157073975,0.5398520827293396,1.074882984161377,0.4532003104686737,0.15483669936656952,0.42894741892814636,1.078033685684204,0.31316208839416504,0.1740201711654663,0.5235047340393066,1.1009321212768555,0.4816768765449524,0.18601587414741516,0.4241337180137634,1.0978825092315674,0.3389274477958679,0.11933843791484833,0.5918935537338257,1.137158751487732,0.21516981720924377,0.1382661908864975,0.4731711447238922,1.152719497680664,-0.002232128754258156,0.1600452959537506
14409.793914921342,0.47643452882766724,0.2680147588253021,-0.949313759803772,0.9999372959136963,0.4894108772277832,0.24670924246311188,-0.9051104784011841,0.9998534917831421,0.4997153878211975,0.24658407270908356,-0.9053159356117249,0.9998286962509155,0.5099061131477356,0.2467024326324463,-0.9055066704750061,0.9998152852058411,0.45559343695640564,0.24751247465610504,-0.9266672134399414,0.9998468160629272,0.44194504618644714,0.24796339869499207,-0.9268913865089417,0.9998514652252197,0.42927438020706177,0.24853947758674622,-0.9271541237831116,0.9998414516448975,0.5201475024223328,0.2564922571182251,-0.593784749507904,0.9996902942657471,0.4029749929904938,0.25980857014656067,-0.7018151879310608,0.9998822212219238,0.49304261803627014,0.28946125507354736,-0.8284679651260376,0.9999655485153198,0.44920480251312256,0.2900286316871643,-0.8588196039199829,0.9999723434448242,0.5880489945411682,0.3843679130077362,-0.31148046255111694,0.9999198913574219,0.3152400851249695,0.3892361521720886,-0.5722131729125977,0.9999294281005859,0.605958104133606,0.5420849323272705,-0.13750219345092773,0.9449530243873596,0.3036322593688965,0.5768263936042786,-0.5317940711975098,0.9932043552398682,0.6508932113647461,0.6669185757637024,-0.3646087944507599,0.9516093730926514,0.3118162155151367,0.7290814518928528,-0.7304329872131348,0.9606330394744873,0.6675408482551575,0.7099531292915344,-0.4416075050830841,0.9098879098892212,0.31293749809265137,0.7761114239692688,-0.8098934888839722,0.9195271730422974,0.6561934947967529,0.7116449475288391,-0.5263645052909851,0.9209151864051819,0.3354851007461548,0.7755675315856934,-0.8903719782829285,0.9262199997901917,0.6448515057563782,0.7017092704772949,-0.40490099787712097,0.9188634157180786,0.3394067585468292,0.7587646842002869,-0.7637796998023987,0.9290781021118164,0.5588538646697998,0.6706814765930176,0.06666472554206848,0.9964867830276489,0.3989955484867096,0.687760055065155,-0.06626579910516739,0.9958086013793945,0.5572455525398254,0.9002788662910461,-0.0275021493434906,0.35558298230171204,0.42210668325424194,0.9032201170921326,-0.10753564536571503,0.3670126795768738,0.5401118397712708,1.0782164335250854,0.4472317099571228,0.14613813161849976,0.4282044768333435,1.0800820589065552,0.3250173032283783,0.16076244413852692,0.5236690044403076,1.1044570207595825,0.475754052400589,0.17985908687114716,0.4233435392379761,1.0999712944030762,0.3517139256000519,0.11479891091585159,0.5925216674804688,1.1407923698425293,0.2074120044708252,0.12975697219371796,0.4731422960758209,1.154962182044983,0.010087016969919205,0.14954513311386108
14426.460581588008,0.4732113182544708,0.26842787861824036,-0.9616879224777222,0.9999401569366455,0.4870496094226837,0.24758586287498474,-0.9195989966392517,0.9998506307601929,0.4970035254955292,0.2475903481245041,-0.9197967648506165,0.999826967716217,0.5076563358306885,0.24784421920776367,-0.9200072288513184,0.9998169541358948,0.45236799120903015,0.2479209005832672,-0.9379583597183228,0.9998427629470825,0.4392300546169281,0.24805526435375214,-0.9381750226020813,0.9998458623886108,0.4264557659626007,0.24859167635440826,-0.9384208917617798,0.9998383522033691,0.5192374587059021,0.2573743760585785,-0.6130642890930176,0.9996803998947144,0.4025025963783264,0.2595351040363312,-0.7068929076194763,0.9998677968978882,0.49024611711502075,0.2898808419704437,-0.8421327471733093,0.9999638795852661,0.4457622170448303,0.29018715023994446,-0.8684266209602356,0.9999706745147705,0.5882941484451294,0.38300544023513794,-0.33637866377830505,0.9999278783798218,0.3153682351112366,0.3892524838447571,-0.5629076957702637,0.9999390840530396,0.6027251482009888,0.5398509502410889,-0.16643403470516205,0.9464638829231262,0.30333834886550903,0.5759958624839783,-0.5083158612251282,0.9918928146362305,0.6503334045410156,0.666621744632721,-0.3992268443107605,0.9503005743026733,0.3110743463039398,0.7273485064506531,-0.7120398879051208,0.958968460559845,0.6670265793800354,0.7093474268913269,-0.47884559631347656,0.9091004729270935,0.3116585612297058,0.774390459060669,-0.791655957698822,0.9198410511016846,0.6546603441238403,0.7116144895553589,-0.5643584132194519,0.9198868274688721,0.3326297998428345,0.7740386724472046,-0.8741485476493835,0.9262252449989319,0.64366614818573,0.7025541067123413,-0.43971550464630127,0.9178418517112732,0.3369515538215637,0.7565798759460449,-0.7465226650238037,0.9286623597145081,0.5595826506614685,0.6665606498718262,0.06166204437613487,0.9969521760940552,0.40084022283554077,0.683209240436554,-0.06131817400455475,0.9965068697929382,0.5582259297370911,0.8951443433761597,-0.02060024067759514,0.3609170913696289,0.41981393098831177,0.8941987752914429,-0.11155503243207932,0.39313840866088867,0.5374279618263245,1.068838119506836,0.45120909810066223,0.159377321600914,0.4297177493572235,1.0725833177566528,0.3174988031387329,0.18250985443592072,0.5200269222259521,1.0948699712753296,0.47997406125068665,0.19129984080791473,0.4253302812576294,1.0919257402420044,0.3436770737171173,0.11476898938417435,0.5915942192077637,1.1301127672195435,0.2146645039319992,0.1511884480714798,0.47470682859420776,1.1472389698028564,0.004007495939731598,0.16893158853054047
14443.127248254674,0.472320020198822,0.26963385939598083,-0.9893839359283447,0.9999099969863892,0.4871971905231476,0.24845845997333527,-0.9469703435897827,0.9997828602790833,0.4971960186958313,0.24840500950813293,-0.9472047686576843,0.9997532963752747,0.5078277587890625,0.24861201643943787,-0.9474563598632812,0.9997355341911316,0.45199763774871826,0.2489500790834427,-0.9651537537574768,0.9997667670249939,0.438742071390152,0.24900439381599426,-0.965348482131958,0.9997710585594177,0.4259364604949951,0.24945884943008423,-0.9656205773353577,0.9997580647468567,0.5198769569396973,0.25801122188568115,-0.6294096112251282,0.9995735287666321,0.40271124243736267,0.25998812913894653,-0.7208926677703857,0.9998041987419128,0.4895344078540802,0.29103389382362366,-0.8646456599235535,0.9999475479125977,0.44522589445114136,0.29123884439468384,-0.8903877139091492,0.9999535083770752,0.5898802280426025,0.38519883155822754,-0.34209877252578735,0.9999006986618042,0.31483304500579834,0.3904254734516144,-0.5593839883804321,0.9999083280563354,0.6036905646324158,0.5406621098518372,-0.1611388474702835,0.9364144206047058,0.3068177103996277,0.5774149894714355,-0.4958391785621643,0.989197313785553,0.6520341634750366,0.6656396389007568,-0.4024122357368469,0.9249458909034729,0.31163689494132996,0.7292832136154175,-0.7107216119766235,0.9404582381248474,0.6690570116043091,0.7093296051025391,-0.48189517855644226,0.8693147301673889,0.3104269504547119,0.7751844525337219,-0.7911564111709595,0.8877388834953308,0.6581291556358337,0.7110023498535156,-0.5698944926261902,0.8857482075691223,0.33117401599884033,0.7745736241340637,-0.8779568076133728,0.897646963596344,0.6466768383979797,0.700891375541687,-0.4442753195762634,0.8840603232383728,0.33491384983062744,0.7582008838653564,-0.7471102476119995,0.9010868668556213,0.5610477328300476,0.6699742674827576,0.052870411425828934,0.9956235289573669,0.4005725383758545,0.6859630346298218,-0.05247167870402336,0.9942411184310913,0.5596456527709961,0.9021023511886597,-0.05313931033015251,0.36774739623069763,0.42158007621765137,0.9010063409805298,-0.10445518791675568,0.3482171893119812,0.5458850860595703,1.0791053771972656,0.4556695818901062,0.15047791600227356,0.4306289553642273,1.0798649787902832,0.3569265604019165,0.1516948640346527,0.5310660004615784,1.1046711206436157,0.48718881607055664,0.1702958643436432,0.4297918677330017,1.099685788154602,0.3859608471393585,0.10338455438613892,0.5917338728904724,1.142269253730774,0.1992861032485962,0.1283385157585144,0.4685690104961395,1.1546915769577026,0.028532838448882103,0.1400829255580902
14459.79391492134,0.4776526689529419,0.26774293184280396,-0.9768887162208557,0.9999209642410278,0.48945847153663635,0.24698573350906372,-0.9329372644424438,0.9998189806938171,0.4998171627521515,0.2468326985836029,-0.933165967464447,0.9997908473014832,0.5098233222961426,0.24698232114315033,-0.9334158301353455,0.9997733235359192,0.4563015401363373,0.24795523285865784,-0.9564502239227295,0.9998078942298889,0.4425875246524811,0.2485753446817398,-0.9566532373428345,0.9998101592063904,0.430495947599411,0.2492379993200302,-0.9569317102432251,0.9997991919517517,0.5194420218467712,0.2569100856781006,-0.6080541014671326,0.9996554851531982,0.403258353471756,0.2606981098651886,-0.7238447666168213,0.9998513460159302,0.4944894015789032,0.28893613815307617,-0.8490040898323059,0.9999592304229736,0.451670378446579,0.28934675455093384,-0.8817548751831055,0.9999642372131348,0.5881220102310181,0.3839929699897766,-0.3115905225276947,0.9999136924743652,0.31558504700660706,0.38950464129447937,-0.5725684762001038,0.9999145269393921,0.6013160347938538,0.5411779880523682,-0.12197630852460861,0.9316163659095764,0.3047657012939453,0.5752401947975159,-0.5203868746757507,0.9910675883293152,0.6514398455619812,0.6657460927963257,-0.3637053966522217,0.9277862310409546,0.3089466691017151,0.7274259924888611,-0.7275778651237488,0.9494219422340393,0.6690902709960938,0.7095407247543335,-0.4418768286705017,0.8731858134269714,0.308746337890625,0.7740896344184875,-0.8089183568954468,0.9010030627250671,0.659381628036499,0.7116168737411499,-0.5309732556343079,0.8893043398857117,0.33259063959121704,0.7725077867507935,-0.8934615850448608,0.909660816192627,0.6476949453353882,0.7008466720581055,-0.4062589406967163,0.8867210149765015,0.335509330034256,0.755765438079834,-0.762591540813446,0.9107207655906677,0.560116171836853,0.6734416484832764,0.05940563976764679,0.996180534362793,0.4017637372016907,0.6909449100494385,-0.0589970126748085,0.9947422742843628,0.5589755177497864,0.9095689058303833,-0.06637036800384521,0.39387351274490356,0.4227142035961151,0.912094235420227,-0.10533014684915543,0.34220513701438904,0.5505442023277283,1.0881481170654297,0.4611467123031616,0.15564069151878357,0.4305558204650879,1.0900678634643555,0.3794434070587158,0.15582820773124695,0.5360451340675354,1.1132444143295288,0.49459508061408997,0.18161533772945404,0.43073326349258423,1.1098495721817017,0.41107261180877686,0.10632655769586563,0.595391571521759,1.1535197496414185,0.20372547209262848,0.1358717679977417,0.46677666902542114,1.1663302183151245,0.0510442890226841,0.14969035983085632
14476.460581588006,0.47046780586242676,0.26930171251296997,-1.0061724185943604,0.9999445676803589,0.4858437776565552,0.2479398399591446,-0.9652314186096191,0.999861478805542,0.4959896206855774,0.24771380424499512,-0.9654132127761841,0.9998317956924438,0.5066763758659363,0.24771840870380402,-0.9656451940536499,0.999818742275238,0.45053207874298096,0.2489599734544754,-0.9816083908081055,0.999861478805542,0.4375104606151581,0.24913838505744934,-0.9818023443222046,0.9998608827590942,0.42513564229011536,0.2496919184923172,-0.9820698499679565,0.9998610019683838,0.5190718770027161,0.256833016872406,-0.655042290687561,0.9996929168701172,0.40257972478866577,0.25989583134651184,-0.7397056818008423,0.9998883008956909,0.48888054490089417,0.2903888523578644,-0.8842929601669312,0.9999642372131348,0.44406771659851074,0.2906973361968994,-0.9080206155776978,0.9999724626541138,0.5899232625961304,0.3843105435371399,-0.3695564568042755,0.9999045133590698,0.3143383860588074,0.388317734003067,-0.5844786763191223,0.9999465942382812,0.599524974822998,0.5420507192611694,-0.18316218256950378,0.9307429194450378,0.30706387758255005,0.5765520930290222,-0.5295489430427551,0.9919220209121704,0.6541176438331604,0.6671338677406311,-0.4012984037399292,0.9246969819068909,0.31210410594940186,0.7270123958587646,-0.7335657477378845,0.9615135788917542,0.6721885204315186,0.7120690941810608,-0.47637253999710083,0.8698400855064392,0.3107603192329407,0.7736260294914246,-0.8121410608291626,0.9230507612228394,0.6620659232139587,0.7141072154045105,-0.5621178150177002,0.8848615884780884,0.33320170640945435,0.774073600769043,-0.8957512974739075,0.9296932220458984,0.6504464149475098,0.7048976421356201,-0.44175851345062256,0.8865981698036194,0.33660441637039185,0.7572916150093079,-0.7684310674667358,0.9320129752159119,0.5588893294334412,0.6688668131828308,0.05077364295721054,0.9966484904289246,0.4024814963340759,0.6859684586524963,-0.050469085574150085,0.9962508082389832,0.5568092465400696,0.9004852771759033,-0.03963642567396164,0.38323408365249634,0.42345374822616577,0.9053167700767517,-0.08865535259246826,0.37434789538383484,0.5435506701469421,1.0731396675109863,0.46503692865371704,0.15643486380577087,0.43338021636009216,1.0779392719268799,0.37174758315086365,0.16706623136997223,0.5290637612342834,1.0985671281814575,0.49712440371513367,0.17758485674858093,0.4336546063423157,1.0967357158660889,0.40172284841537476,0.10690708458423615,0.589101254940033,1.1359410285949707,0.2231445163488388,0.138869971036911,0.4688219726085663,1.154000997543335,0.05591510608792305,0.15219897031784058
14493.127248254672,0.48006656765937805,0.26471176743507385,-0.9833481907844543,0.9999105930328369,0.4911225140094757,0.24445144832134247,-0.9374545812606812,0.9997959733009338,0.5008879899978638,0.24419982731342316,-0.9376815557479858,0.9997696280479431,0.5103229880332947,0.24434791505336761,-0.937932014465332,0.9997525811195374,0.4580233693122864,0.24572955071926117,-0.9618247747421265,0.9997736811637878,0.4431619942188263,0.24627380073070526,-0.9620263576507568,0.9997780919075012,0.4309617280960083,0.24671220779418945,-0.9622833132743835,0.9997597336769104,0.5182530283927917,0.2548498511314392,-0.6162956953048706,0.9996107220649719,0.4032488465309143,0.25823596119880676,-0.7377095818519592,0.9998156428337097,0.49606114625930786,0.28618940711021423,-0.8582371473312378,0.9999529123306274,0.4541787803173065,0.2863243520259857,-0.8926260471343994,0.9999593496322632,0.5887256860733032,0.3841314911842346,-0.3367907702922821,0.9999158382415771,0.3124069571495056,0.3888293206691742,-0.5858089923858643,0.9998836517333984,0.6073697805404663,0.5415648818016052,-0.1567644625902176,0.9458881616592407,0.30556994676589966,0.5746930837631226,-0.5358378291130066,0.989605188369751,0.6530537009239197,0.6668040156364441,-0.3943384289741516,0.9478650689125061,0.3113090693950653,0.7274249196052551,-0.7353537082672119,0.9438875317573547,0.6707106232643127,0.7097935676574707,-0.47443169355392456,0.9041594862937927,0.3112691640853882,0.7731818556785583,-0.8163038492202759,0.8931318521499634,0.6579976081848145,0.7114489078521729,-0.5631600022315979,0.9165822863578796,0.33339229226112366,0.7718954682350159,-0.900088906288147,0.902253270149231,0.6463125944137573,0.70036381483078,-0.4365706145763397,0.9135015606880188,0.3377508521080017,0.7549054622650146,-0.7703339457511902,0.9047906994819641,0.5591703057289124,0.6690101027488708,0.05849027261137962,0.9963988065719604,0.4010947644710541,0.6870467066764832,-0.05810413509607315,0.9947691559791565,0.5553922057151794,0.9000104069709778,-0.02169690653681755,0.42026445269584656,0.4209190309047699,0.8993475437164307,-0.0907217264175415,0.37189459800720215,0.5394793748855591,1.0762214660644531,0.5047708749771118,0.17216096818447113,0.42748400568962097,1.0764343738555908,0.39017757773399353,0.1690562218427658,0.5246314406394958,1.1006736755371094,0.5378421545028687,0.1797826886177063,0.42659345269203186,1.0949991941452026,0.42132169008255005,0.10542446374893188,0.5788980722427368,1.1433688402175903,0.2521713972091675,0.14791962504386902,0.4629388153553009,1.1536669731140137,0.06614229083061218,0.15929076075553894
14509.793914921338,0.48180803656578064,0.2636392116546631,-0.9383711218833923,0.9999333620071411,0.49279171228408813,0.24357813596725464,-0.8925012946128845,0.9998482465744019,0.5022392868995667,0.24339622259140015,-0.8927093744277954,0.9998255372047424,0.5114025473594666,0.24355047941207886,-0.8929248452186584,0.999813973903656,0.4609571695327759,0.24481362104415894,-0.9173969626426697,0.9998353719711304,0.44587084650993347,0.2454964816570282,-0.9176054000854492,0.9998375177383423,0.43363478779792786,0.2460235357284546,-0.9178539514541626,0.999825656414032,0.5180258750915527,0.2542511224746704,-0.5809836387634277,0.9996930360794067,0.4046328663825989,0.25821954011917114,-0.7054773569107056,0.9998648166656494,0.49698591232299805,0.28533363342285156,-0.8178476691246033,0.9999634027481079,0.45606258511543274,0.2853701710700989,-0.8530561923980713,0.9999698400497437,0.5883879661560059,0.3845091164112091,-0.3116154670715332,0.9999216794967651,0.31417596340179443,0.38782787322998047,-0.570107638835907,0.9999071359634399,0.6071910858154297,0.5425226092338562,-0.1425410509109497,0.9532727003097534,0.30380427837371826,0.5743995904922485,-0.5270482301712036,0.991486132144928,0.6545872688293457,0.6687025427818298,-0.37841302156448364,0.959282398223877,0.3122170567512512,0.7272984385490417,-0.7193363904953003,0.9571145176887512,0.6723664999008179,0.7129420042037964,-0.4578956961631775,0.9212480187416077,0.3132651448249817,0.7730591297149658,-0.7988914251327515,0.9150052666664124,0.6596008539199829,0.7149165868759155,-0.5450922250747681,0.9313350319862366,0.33660000562667847,0.771543562412262,-0.8796457648277283,0.9218661785125732,0.6479747295379639,0.7047963738441467,-0.4198823571205139,0.9287249445915222,0.3410681188106537,0.7543816566467285,-0.7527287006378174,0.9234873056411743,0.5566737651824951,0.6687883138656616,0.06632617115974426,0.9966513514518738,0.3997986316680908,0.6864452362060547,-0.06599777191877365,0.995564341545105,0.5573623180389404,0.9009557962417603,-0.007853373885154724,0.40451472997665405,0.42307499051094055,0.9024465680122375,-0.10633330792188644,0.4030125141143799,0.5360972285270691,1.077563762664795,0.48673465847969055,0.17505554854869843,0.42529916763305664,1.0786583423614502,0.34096232056617737,0.1918552666902542,0.5189947485923767,1.1030930280685425,0.516602635383606,0.19909082353115082,0.4227142632007599,1.0979825258255005,0.3685399889945984,0.11860721558332443,0.5844303965568542,1.1433641910552979,0.24198481440544128,0.1579071432352066,0.4636158347129822,1.1554456949234009,0.02080475725233555,0.1792803406715393
14526.460581588004,0.48286163806915283,0.26417985558509827,-0.9613200426101685,0.9999361038208008,0.4931218922138214,0.24384649097919464,-0.9160642623901367,0.9998564720153809,0.5026012063026428,0.24367186427116394,-0.9162666201591492,0.9998369216918945,0.5116236209869385,0.24382296204566956,-0.9164834022521973,0.9998238682746887,0.4615158438682556,0.24510368704795837,-0.9402012228965759,0.9998441934585571,0.44626498222351074,0.24581855535507202,-0.9403920769691467,0.999846339225769,0.43390512466430664,0.24637550115585327,-0.9406241774559021,0.9998325109481812,0.5178640484809875,0.2544598877429962,-0.6056699752807617,0.9997156262397766,0.40418899059295654,0.25839483737945557,-0.726843535900116,0.999874472618103,0.4980848431587219,0.2857910394668579,-0.8412169814109802,0.9999642372131348,0.45773518085479736,0.28595471382141113,-0.8754017353057861,0.9999712705612183,0.588270366191864,0.38490942120552063,-0.3367827534675598,0.9999195337295532,0.31290221214294434,0.39015424251556396,-0.5887419581413269,0.9998983144760132,0.6072565913200378,0.5424001812934875,-0.16454559564590454,0.9557086229324341,0.3014562726020813,0.5756314396858215,-0.5467249751091003,0.9923284649848938,0.6534467339515686,0.6702255606651306,-0.3911445140838623,0.962207555770874,0.3088998794555664,0.7283508777618408,-0.7347549200057983,0.9588982462882996,0.6710244417190552,0.7150903940200806,-0.4696153998374939,0.9264737367630005,0.30998021364212036,0.773445188999176,-0.8143532872200012,0.917235255241394,0.6593564748764038,0.71703040599823,-0.5560108423233032,0.9358816146850586,0.334640234708786,0.7722344398498535,-0.8943018317222595,0.9242943525314331,0.6481462717056274,0.7068266868591309,-0.43203914165496826,0.9337114095687866,0.3387322425842285,0.7553862929344177,-0.7680385112762451,0.9268863797187805,0.5541733503341675,0.6706150770187378,0.06380556523799896,0.9967259168624878,0.395767480134964,0.6882578134536743,-0.06342829763889313,0.9955762624740601,0.5554730892181396,0.8996778726577759,0.005774655379354954,0.42861852049827576,0.4179462790489197,0.8999359011650085,-0.08458169549703598,0.42972999811172485,0.5236591696739197,1.0566014051437378,0.4995618164539337,0.18699409067630768,0.424087256193161,1.073117971420288,0.3710133135318756,0.19421455264091492,0.5176435708999634,1.0999177694320679,0.5295186638832092,0.20861443877220154,0.42175212502479553,1.0916178226470947,0.40004822611808777,0.12072627246379852,0.5831671357154846,1.1400022506713867,0.25661173462867737,0.15948934853076935,0.4616636037826538,1.150127649307251,0.05696256831288338,0.17335854470729828
14543.12724825467,0.48136669397354126,0.2647418677806854,-0.9688764214515686,0.9999171495437622,0.49123415350914,0.2440221756696701,-0.9264368414878845,0.9998086094856262,0.5005500316619873,0.24351981282234192,-0.9266497492790222,0.9997802376747131,0.5097740292549133,0.24340921640396118,-0.9268940687179565,0.9997640252113342,0.458463191986084,0.24610581994056702,-0.9493687748908997,0.9998019337654114,0.4436039924621582,0.2469562143087387,-0.9495716691017151,0.9998082518577576,0.4314223527908325,0.24774017930030823,-0.9498221278190613,0.9997982382774353,0.5164498090744019,0.2538759410381317,-0.6213635802268982,0.9996240139007568,0.403467059135437,0.2597547471523285,-0.735751748085022,0.9998480081558228,0.4972991943359375,0.2862791121006012,-0.8496662378311157,0.9999538660049438,0.45633354783058167,0.2871014177799225,-0.8819738030433655,0.999963641166687,0.588151216506958,0.38356447219848633,-0.3484008014202118,0.9998960494995117,0.31345343589782715,0.38914236426353455,-0.5933688879013062,0.9998989105224609,0.6075530052185059,0.5388902425765991,-0.1763339340686798,0.9419641494750977,0.3025093078613281,0.5759828090667725,-0.5493183732032776,0.9915674328804016,0.653886616230011,0.6663338541984558,-0.39985358715057373,0.9399272203445435,0.3105899393558502,0.7283621430397034,-0.7365368604660034,0.9537708163261414,0.6727495789527893,0.7100439071655273,-0.47664904594421387,0.8910354971885681,0.31126850843429565,0.7723987102508545,-0.8148218989372253,0.9091246724128723,0.6609700322151184,0.7123686075210571,-0.5618661046028137,0.9048839211463928,0.3347627520561218,0.7712758779525757,-0.8952118158340454,0.9171772599220276,0.6489485502243042,0.7022247910499573,-0.44060277938842773,0.9037265181541443,0.3397641181945801,0.7548770308494568,-0.7699330449104309,0.9195588827133179,0.5549026131629944,0.6693962812423706,0.056319039314985275,0.995870053768158,0.39706116914749146,0.6861544847488403,-0.05595991387963295,0.9945886135101318,0.5546741485595703,0.9031072854995728,-0.027776630595326424,0.41443005204200745,0.42045512795448303,0.9012055397033691,-0.0942039042711258,0.40480563044548035,0.5397480726242065,1.0782101154327393,0.4546337425708771,0.17250069975852966,0.4270116984844208,1.0759028196334839,0.3399690091609955,0.17925520241260529,0.5242076516151428,1.1037302017211914,0.48351871967315674,0.19043058156967163,0.42547038197517395,1.0951404571533203,0.3671134114265442,0.11656869947910309,0.5856151580810547,1.142927646636963,0.20934432744979858,0.14407625794410706,0.4633382558822632,1.151474952697754,0.027825457975268364,0.1614287942647934
14559.793914921336,0.48430532217025757,0.2656370997428894,-1.0061464309692383,0.9999340772628784,0.4941135048866272,0.24449945986270905,-0.9641553163528442,0.9998339414596558,0.5034263730049133,0.24413412809371948,-0.9643641710281372,0.999806821346283,0.5122274160385132,0.2439749538898468,-0.9646191000938416,0.9997993111610413,0.46280160546302795,0.24653461575508118,-0.984916627407074,0.9998239874839783,0.4479716718196869,0.24749933183193207,-0.9851149916648865,0.9998247027397156,0.4358106851577759,0.24824094772338867,-0.9853579998016357,0.9998217225074768,0.5188854932785034,0.2543990910053253,-0.655208170413971,0.9996641874313354,0.4061867296695709,0.2597530782222748,-0.759426474571228,0.9998492002487183,0.49977028369903564,0.28673267364501953,-0.8847990036010742,0.9999606609344482,0.46085748076438904,0.28693822026252747,-0.9143444299697876,0.9999682903289795,0.5912847518920898,0.38192978501319885,-0.38046011328697205,0.999923825263977,0.31269922852516174,0.38610169291496277,-0.5945711135864258,0.9999202489852905,0.6098446249961853,0.5358061194419861,-0.21156525611877441,0.9450502395629883,0.3023049831390381,0.5708617568016052,-0.5357579588890076,0.9909880757331848,0.6574638485908508,0.6681356430053711,-0.44527900218963623,0.9358677864074707,0.30798429250717163,0.7243064045906067,-0.7334510684013367,0.9550786018371582,0.6755867004394531,0.7132781147956848,-0.5248882174491882,0.8847976326942444,0.3094499707221985,0.7688443660736084,-0.8124033808708191,0.9134793877601624,0.6656098961830139,0.7150911092758179,-0.6111743450164795,0.8989880084991455,0.3313634693622589,0.7686208486557007,-0.8971725702285767,0.9211592674255371,0.6540250778198242,0.7055136561393738,-0.48651015758514404,0.898741602897644,0.3351384401321411,0.7522829174995422,-0.7688263058662415,0.9227326512336731,0.5564314126968384,0.6594624519348145,0.04838377609848976,0.9967522621154785,0.39850860834121704,0.6753766536712646,-0.04805612191557884,0.9956259727478027,0.5540558695793152,0.88958340883255,-0.05254592373967171,0.4563647210597992,0.4165682792663574,0.8878391981124878,-0.10233445465564728,0.42772117257118225,0.5380713939666748,1.0598454475402832,0.44563156366348267,0.19939737021923065,0.4259936511516571,1.063019037246704,0.3408064544200897,0.20894300937652588,0.5241696238517761,1.0842945575714111,0.47643038630485535,0.19786065816879272,0.4243180453777313,1.0816700458526611,0.3683365285396576,0.12040181457996368,0.5787104964256287,1.1240710020065308,0.1981593519449234,0.180697962641716,0.46325555443763733,1.1379016637802124,0.02372557297348976,0.19262440502643585
14576.460581588002,0.4838508665561676,0.2659706175327301,-0.996630847454071,0.9999324083328247,0.4937029480934143,0.2449069619178772,-0.9549089074134827,0.9998303651809692,0.5030525922775269,0.24451667070388794,-0.9551191329956055,0.9998019337654114,0.5118829011917114,0.24435797333717346,-0.9553709030151367,0.9997931122779846,0.46230950951576233,0.24689874053001404,-0.975496768951416,0.9998225569725037,0.4474867880344391,0.24781997501850128,-0.9756883382797241,0.9998242259025574,0.435363233089447,0.24854402244091034,-0.9759363532066345,0.9998212456703186,0.5187498927116394,0.2546966075897217,-0.6472768783569336,0.9996579885482788,0.4061620831489563,0.2598525881767273,-0.7505502700805664,0.9998500347137451,0.4995194375514984,0.28708401322364807,-0.8758141398429871,0.9999597072601318,0.46051815152168274,0.2872074842453003,-0.9050709009170532,0.9999675750732422,0.591825544834137,0.3818269670009613,-0.37244924902915955,0.9999179840087891,0.31360912322998047,0.38609403371810913,-0.589862048625946,0.9999169111251831,0.6109887361526489,0.5357140302658081,-0.20365174114704132,0.9441077709197998,0.30268609523773193,0.5724676847457886,-0.5351132750511169,0.9911330342292786,0.6568399667739868,0.6684021949768066,-0.4347362816333771,0.9348331093788147,0.3078831732273102,0.7254617810249329,-0.7329937219619751,0.9555549621582031,0.6752611398696899,0.7128163576126099,-0.5133475065231323,0.8827198147773743,0.30798736214637756,0.7699227333068848,-0.8120954632759094,0.914031982421875,0.665138304233551,0.7146960496902466,-0.5989828705787659,0.8972164988517761,0.3306947946548462,0.7692632079124451,-0.8961317539215088,0.9217790961265564,0.6533280611038208,0.7053671479225159,-0.4756167232990265,0.8970946073532104,0.33481502532958984,0.7530364394187927,-0.7680853009223938,0.9232836365699768,0.5570610165596008,0.6606437563896179,0.047955725342035294,0.9966666102409363,0.39882490038871765,0.6767566800117493,-0.04760557413101196,0.9955150485038757,0.5531795620918274,0.8901845216751099,-0.05502265691757202,0.4624098241329193,0.41466203331947327,0.8890458941459656,-0.10160849988460541,0.43409624695777893,0.5389523506164551,1.0612547397613525,0.4476453959941864,0.2001068890094757,0.4238869249820709,1.063645839691162,0.3421771228313446,0.21105648577213287,0.5249944925308228,1.0856260061264038,0.4789826273918152,0.20346949994564056,0.42264655232429504,1.0821902751922607,0.37006229162216187,0.1230982318520546,0.579757571220398,1.125593662261963,0.20262779295444489,0.17737583816051483,0.45973658561706543,1.1386783123016357,0.02754777856171131,0.19127590954303741
14593.127248254668,0.4803186058998108,0.26671257615089417,-0.978909969329834,0.9999371767044067,0.49254730343818665,0.24539543688297272,-0.9378359317779541,0.9998377561569214,0.502669095993042,0.24504931271076202,-0.938026487827301,0.9998096823692322,0.5118677616119385,0.24497206509113312,-0.9382518529891968,0.9997972846031189,0.45947539806365967,0.24712516367435455,-0.956544816493988,0.9998339414596558,0.44450315833091736,0.24791443347930908,-0.9567320346832275,0.9998363256454468,0.4320581555366516,0.24844130873680115,-0.9569674730300903,0.9998328685760498,0.5208558440208435,0.2552555501461029,-0.637424111366272,0.999650239944458,0.40393561124801636,0.2595881223678589,-0.7331574559211731,0.9998655319213867,0.49709373712539673,0.28818458318710327,-0.8615079522132874,0.9999607801437378,0.4552871286869049,0.28805139660835266,-0.888439416885376,0.9999709129333496,0.5907759070396423,0.382550448179245,-0.3687393069267273,0.9999133348464966,0.3150256276130676,0.3851920962333679,-0.5794434547424316,0.999931812286377,0.6101716756820679,0.5362579822540283,-0.1993679702281952,0.9431276917457581,0.30256223678588867,0.571185827255249,-0.5263168215751648,0.9918780326843262,0.6591126918792725,0.6672230958938599,-0.421128511428833,0.939258337020874,0.31054699420928955,0.7227164506912231,-0.7190119624137878,0.960085391998291,0.6764168739318848,0.7118604779243469,-0.4981069266796112,0.8916428685188293,0.3126369118690491,0.767656683921814,-0.796663761138916,0.9220308661460876,0.6672132611274719,0.7136911153793335,-0.5826584696769714,0.9042233228683472,0.33426332473754883,0.7674972414970398,-0.8773912191390991,0.9283588528633118,0.6557599306106567,0.7038884162902832,-0.4613080322742462,0.905170738697052,0.338456392288208,0.7510918378829956,-0.752729058265686,0.9307464361190796,0.5568488836288452,0.6613646745681763,0.05129671469330788,0.9966180920600891,0.39947447180747986,0.6768304705619812,-0.0509614460170269,0.9960401058197021,0.5543461441993713,0.888006329536438,-0.015025357715785503,0.4147011339664459,0.419952929019928,0.8863032460212708,-0.09100909531116486,0.4310939908027649,0.5358694195747375,1.054985761642456,0.45675578713417053,0.17764325439929962,0.42649129033088684,1.0597312450408936,0.33331990242004395,0.19474612176418304,0.5213964581489563,1.0800085067749023,0.4855629801750183,0.18656133115291595,0.42301467061042786,1.0781484842300415,0.3596251904964447,0.11796078830957413,0.5804318189620972,1.1167948246002197,0.22102680802345276,0.1576247215270996,0.46682366728782654,1.1340672969818115,0.02370475046336651,0.17248699069023132
14609.793914921334,0.481887549161911,0.26597803831100464,-0.9935521483421326,0.9999350309371948,0.4933042824268341,0.24522818624973297,-0.952971875667572,0.9998434782028198,0.5033454298973083,0.24514369666576385,-0.9531805515289307,0.9998069405555725,0.5124747157096863,0.24527081847190857,-0.9533984065055847,0.9998025298118591,0.46128201484680176,0.24648934602737427,-0.9714682102203369,0.9998453855514526,0.4463759660720825,0.24705208837985992,-0.9716470241546631,0.9998416900634766,0.4341406226158142,0.2475527971982956,-0.97191321849823,0.9998438358306885,0.5214998126029968,0.2560909688472748,-0.6548081636428833,0.9996519088745117,0.40517207980155945,0.2589437663555145,-0.7498592138290405,0.9998679161071777,0.4973885715007782,0.2879452407360077,-0.8771775364875793,0.9999583959579468,0.4568186104297638,0.28750404715538025,-0.904046893119812,0.9999681711196899,0.5931761860847473,0.3822413682937622,-0.3894428610801697,0.9999039173126221,0.3130370080471039,0.38668301701545715,-0.594498336315155,0.9999140501022339,0.6100680828094482,0.5361305475234985,-0.2175162136554718,0.9470936059951782,0.30041056871414185,0.5719018578529358,-0.5493060350418091,0.9911921620368958,0.660504937171936,0.6677426695823669,-0.42395371198654175,0.9374021887779236,0.30755314230918884,0.7235679626464844,-0.7400856614112854,0.9536094665527344,0.6777519583702087,0.7118521928787231,-0.4975702464580536,0.8845961689949036,0.3084254860877991,0.7700068354606628,-0.8165126442909241,0.9084459543228149,0.6676052808761597,0.714229941368103,-0.5799161195755005,0.8991547226905823,0.33055898547172546,0.7688114047050476,-0.8986148238182068,0.9170893430709839,0.6561942100524902,0.705070436000824,-0.4626425802707672,0.9007274508476257,0.333587110042572,0.7521186470985413,-0.7742013931274414,0.919939398765564,0.5571807026863098,0.661919355392456,0.03940092399716377,0.9965713024139404,0.40102851390838623,0.6790804266929626,-0.03902845457196236,0.9953835606575012,0.5544744729995728,0.8950808048248291,-0.029106328263878822,0.41453057527542114,0.4181530773639679,0.8968151807785034,-0.06810542941093445,0.39593812823295593,0.5515618324279785,1.0658141374588013,0.4428439736366272,0.17019958794116974,0.42585521936416626,1.064772605895996,0.3577232360839844,0.17238231003284454,0.5397624373435974,1.0910210609436035,0.4711439907550812,0.1843206137418747,0.42729368805885315,1.0828872919082642,0.38539543747901917,0.1141933873295784,0.5916658043861389,1.1284104585647583,0.20014287531375885,0.1393747180700302,0.4529813230037689,1.1397676467895508,0.054778385907411575,0.15217196941375732
14626.460581588,0.4863990247249603,0.2677884101867676,-0.9789952635765076,0.9999380111694336,0.497072696685791,0.24640072882175446,-0.9368160963058472,0.9998524188995361,0.5067178010940552,0.24611562490463257,-0.9370328187942505,0.9998183846473694,0.5154129862785339,0.2458876371383667,-0.9372376203536987,0.9998100399971008,0.4649268388748169,0.24791008234024048,-0.9589480757713318,0.9998488426208496,0.45002567768096924,0.24855078756809235,-0.9591211676597595,0.9998441934585571,0.43737033009529114,0.2491094470024109,-0.9593757390975952,0.9998407363891602,0.5220597982406616,0.2554991543292999,-0.6297357678413391,0.9996875524520874,0.40642303228378296,0.2599928081035614,-0.7411164045333862,0.9998775720596313,0.5017253160476685,0.28881165385246277,-0.8588641881942749,0.9999638795852661,0.46328914165496826,0.2886448800563812,-0.8903737664222717,0.9999715089797974,0.5930978059768677,0.3826681673526764,-0.35605552792549133,0.9999287128448486,0.31467676162719727,0.38557469844818115,-0.591829776763916,0.9999246597290039,0.6106821298599243,0.5358089804649353,-0.1757289469242096,0.9447015523910522,0.30076974630355835,0.5719721913337708,-0.5477710366249084,0.9919300675392151,0.6604019999504089,0.6674574017524719,-0.3888535797595978,0.9433943629264832,0.3077854514122009,0.7230502367019653,-0.7387548089027405,0.9567260146141052,0.6784196496009827,0.7116740345954895,-0.46242833137512207,0.8945147395133972,0.3087741732597351,0.7689105272293091,-0.815558135509491,0.9143407344818115,0.6694176197052002,0.7141311764717102,-0.5458844304084778,0.9079785943031311,0.33032163977622986,0.7683906555175781,-0.8987339735031128,0.9223101139068604,0.6578072905540466,0.7046512365341187,-0.42835548520088196,0.9090695977210999,0.3333793878555298,0.7518177032470703,-0.7733021974563599,0.9247719049453735,0.5577802062034607,0.6647392511367798,0.04856827110052109,0.9971976280212402,0.4004705548286438,0.6813637614250183,-0.04815684258937836,0.9961327314376831,0.5559580326080322,0.8945656418800354,-0.01022009551525116,0.3769015669822693,0.4163508415222168,0.8948246240615845,-0.06906158477067947,0.37105217576026917,0.5470098257064819,1.0632908344268799,0.48376065492630005,0.15250536799430847,0.42616331577301025,1.0644668340682983,0.37931692600250244,0.16475434601306915,0.5336776375770569,1.088327407836914,0.5150192975997925,0.1910378336906433,0.42570412158966064,1.0827418565750122,0.40944844484329224,0.11820436269044876,0.5923922061920166,1.1255472898483276,0.25148043036460876,0.13597998023033142,0.458312451839447,1.1389926671981812,0.07910282164812088,0.15103694796562195
14643.127248254666,0.47770923376083374,0.2651914954185486,-1.0117101669311523,0.9999186992645264,0.49141746759414673,0.24526438117027283,-0.9700571894645691,0.9997857213020325,0.5022376775741577,0.24552705883979797,-0.970257580280304,0.9997503161430359,0.5117042660713196,0.24600346386432648,-0.9704751968383789,0.9997298121452332,0.45910245180130005,0.2450808733701706,-0.9882965683937073,0.9997819066047668,0.44473710656166077,0.245137557387352,-0.9884970188140869,0.9997851252555847,0.4325352609157562,0.24520602822303772,-0.988746702671051,0.9997777342796326,0.5240062475204468,0.25697675347328186,-0.66282719373703,0.9995287656784058,0.40416809916496277,0.25659066438674927,-0.7574154138565063,0.999804675579071,0.4940170645713806,0.28698956966400146,-0.8913934230804443,0.9999426603317261,0.4515666663646698,0.285360723733902,-0.9181339740753174,0.9999556541442871,0.5905913710594177,0.3831944465637207,-0.3945775330066681,0.9998841285705566,0.31236010789871216,0.3864392340183258,-0.5866734981536865,0.9999099969863892,0.6112035512924194,0.5386331081390381,-0.21775446832180023,0.9395155310630798,0.30313795804977417,0.5707866549491882,-0.5242223739624023,0.9896635413169861,0.6617166996002197,0.6665394902229309,-0.43745070695877075,0.9217261075973511,0.3099728226661682,0.7234629988670349,-0.7218104600906372,0.9490015506744385,0.6772212982177734,0.7127194404602051,-0.5124809741973877,0.8646294474601746,0.313843309879303,0.7696250677108765,-0.7977465987205505,0.9048063158988953,0.6690655946731567,0.71465665102005,-0.598257839679718,0.8797613382339478,0.3353738784790039,0.7680826187133789,-0.8809976577758789,0.912811279296875,0.6576415300369263,0.7054538726806641,-0.4776499569416046,0.8826855421066284,0.33813369274139404,0.7508394122123718,-0.7564332485198975,0.9156053066253662,0.5578294396400452,0.6635136008262634,0.0383278988301754,0.9963769316673279,0.397953063249588,0.6778109073638916,-0.03796393424272537,0.9955444931983948,0.5550021529197693,0.8888282775878906,-0.045899368822574615,0.402416467666626,0.4164891541004181,0.8870775699615479,-0.0891602486371994,0.38564780354499817,0.5354185104370117,1.058483362197876,0.44082534313201904,0.16824500262737274,0.4264538288116455,1.06023108959198,0.35195431113243103,0.179541677236557,0.5224155187606812,1.0833663940429688,0.470872700214386,0.18226498365402222,0.42609483003616333,1.079024314880371,0.3796938955783844,0.11773452162742615,0.5729212164878845,1.1215806007385254,0.19987665116786957,0.14637625217437744,0.45337754487991333,1.1338956356048584,0.037906162440776825,0.16041933000087738
14659.793914921333,0.4831385314464569,0.26421061158180237,-1.0132967233657837,0.9999260902404785,0.49479949474334717,0.24344070255756378,-0.9708362817764282,0.9998206496238708,0.5045066475868225,0.2435927838087082,-0.9710381627082825,0.999789297580719,0.5132496953010559,0.24373728036880493,-0.9712783694267273,0.9997746348381042,0.46334129571914673,0.2444494217634201,-0.993038535118103,0.9998182654380798,0.4489264488220215,0.24511981010437012,-0.9932515621185303,0.9998219609260559,0.43591389060020447,0.24565240740776062,-0.9935019612312317,0.9998169541358948,0.5217862725257874,0.254745751619339,-0.6576628088951111,0.9996203184127808,0.404823899269104,0.25746452808380127,-0.7695272564888,0.9998537302017212,0.4978664815425873,0.28587329387664795,-0.890355110168457,0.9999537467956543,0.45785003900527954,0.2854631245136261,-0.9220377802848816,0.9999649524688721,0.5884942412376404,0.3818443715572357,-0.3758111596107483,0.9998891353607178,0.3139649033546448,0.3842853605747223,-0.6074990034103394,0.999913215637207,0.6113253235816956,0.5370714664459229,-0.19674451649188995,0.9405660033226013,0.3039495646953583,0.5683165788650513,-0.5533720254898071,0.9924157857894897,0.66218101978302,0.6646792888641357,-0.42560315132141113,0.9322635531425476,0.31141841411590576,0.7237935066223145,-0.7474801540374756,0.9584731459617615,0.6787108778953552,0.7099002003669739,-0.5031148195266724,0.8783808350563049,0.31524574756622314,0.769348680973053,-0.8263943791389465,0.9170535802841187,0.6707116365432739,0.7122250199317932,-0.591087281703949,0.893255889415741,0.3388023376464844,0.7672614455223083,-0.90910804271698,0.9244436621665955,0.659335732460022,0.7026345133781433,-0.4675207734107971,0.8932368755340576,0.3416581153869629,0.7503491044044495,-0.781682014465332,0.9256461262702942,0.5604336261749268,0.6619935631752014,0.05004497244954109,0.9958708882331848,0.40239983797073364,0.6789959073066711,-0.04967233166098595,0.9949542880058289,0.5580481290817261,0.8919686079025269,-0.03756255283951759,0.43455490469932556,0.4194197654724121,0.8918015956878662,-0.09650839865207672,0.415147989988327,0.5407856702804565,1.0674768686294556,0.458630234003067,0.17842571437358856,0.4278806447982788,1.069507360458374,0.34394392371177673,0.18915560841560364,0.5258132219314575,1.092751145362854,0.4891374409198761,0.19078780710697174,0.42688700556755066,1.0887764692306519,0.37123391032218933,0.11743667721748352,0.5831714868545532,1.1315875053405762,0.21067401766777039,0.15343590080738068,0.4612152576446533,1.1440644264221191,0.0209827683866024,0.169264554977417
14676.460581587999,0.4824158847332001,0.264451265335083,-1.0329140424728394,0.9999253749847412,0.49441206455230713,0.24373257160186768,-0.9902620911598206,0.9998149275779724,0.5043090581893921,0.24389682710170746,-0.99046790599823,0.9997804760932922,0.5132497549057007,0.24407397210597992,-0.9907073974609375,0.9997671246528625,0.4627613127231598,0.2446824461221695,-1.0113303661346436,0.9998134970664978,0.44820451736450195,0.24530306458473206,-1.0115444660186768,0.9998146891593933,0.4354090690612793,0.24580445885658264,-1.0117912292480469,0.999810516834259,0.5227356553077698,0.2551032602787018,-0.6766197681427002,0.9995890259742737,0.40490251779556274,0.2575955092906952,-0.783807098865509,0.9998403787612915,0.4975793659687042,0.2862073481082916,-0.9100443720817566,0.9999489784240723,0.4571341574192047,0.28565359115600586,-0.9404361248016357,0.9999610185623169,0.5898653268814087,0.38209351897239685,-0.3987792432308197,0.9998838901519775,0.31389039754867554,0.38448023796081543,-0.6165245175361633,0.9999116659164429,0.6112677454948425,0.5363284349441528,-0.22262363135814667,0.9406749606132507,0.30488771200180054,0.5677415728569031,-0.5587838888168335,0.991912841796875,0.662363588809967,0.6645169258117676,-0.44888338446617126,0.926767885684967,0.31115490198135376,0.7232504487037659,-0.754168689250946,0.9563527703285217,0.6785035729408264,0.7101457715034485,-0.5261768698692322,0.8684994578361511,0.31549322605133057,0.769883394241333,-0.8327668309211731,0.9138251543045044,0.6703677177429199,0.712555468082428,-0.6137658953666687,0.8843587636947632,0.33732300996780396,0.7681940793991089,-0.916655957698822,0.9215664267539978,0.6588295698165894,0.7029296159744263,-0.4905271828174591,0.8858368396759033,0.3401256799697876,0.750782310962677,-0.7890538573265076,0.9231939315795898,0.5607947111129761,0.6611517667770386,0.0436752624809742,0.9959937334060669,0.40283793210983276,0.6782166957855225,-0.04328124225139618,0.9951037168502808,0.5569688081741333,0.8901953101158142,-0.03663170337677002,0.40220215916633606,0.42012688517570496,0.8893513083457947,-0.08777952939271927,0.3869331181049347,0.5332260727882385,1.0481970310211182,0.44499096274375916,0.16044391691684723,0.42995786666870117,1.0642547607421875,0.34919363260269165,0.1721019148826599,0.5281918048858643,1.0888198614120483,0.4741819500923157,0.18103596568107605,0.42980414628982544,1.0833852291107178,0.37628933787345886,0.1115482896566391,0.5836421251296997,1.1253703832626343,0.1966332346200943,0.14064569771289825,0.45938655734062195,1.1378819942474365,0.02744889073073864,0.15424390137195587
14693.127248254665,0.47957518696784973,0.26780495047569275,-1.038199543952942,0.9999264478683472,0.4935348629951477,0.24730335175991058,-0.999380350112915,0.9998192191123962,0.503797173500061,0.24764160811901093,-0.999563455581665,0.9997860789299011,0.5129621028900146,0.24792265892028809,-0.9998295903205872,0.9997715353965759,0.46079206466674805,0.24728941917419434,-1.0187369585037231,0.9998193383216858,0.4458804130554199,0.24738679826259613,-1.0189203023910522,0.9998201727867126,0.4334801435470581,0.24749046564102173,-1.0191813707351685,0.9998173117637634,0.5233814120292664,0.25818949937820435,-0.691778302192688,0.9996217489242554,0.4053473472595215,0.2576894760131836,-0.7912439703941345,0.999852180480957,0.4947541654109955,0.2899644374847412,-0.9158955216407776,0.999954104423523,0.4531537890434265,0.28888458013534546,-0.944065511226654,0.9999654293060303,0.5881216526031494,0.38077107071876526,-0.4072994291782379,0.9998923540115356,0.3125057518482208,0.38468530774116516,-0.6172113418579102,0.999922513961792,0.6109985113143921,0.5335448980331421,-0.22355516254901886,0.9417940974235535,0.30563467741012573,0.5689834356307983,-0.5563526153564453,0.9909205436706543,0.6642597317695618,0.6621670722961426,-0.4440382122993469,0.9272673726081848,0.3122371435165405,0.7248193621635437,-0.7489689588546753,0.9542703628540039,0.681035041809082,0.7047978639602661,-0.5198898911476135,0.8720158934593201,0.3140777051448822,0.7693964242935181,-0.8261020183563232,0.9126559495925903,0.6721010208129883,0.7087435722351074,-0.6068001389503479,0.8875623941421509,0.337566614151001,0.7684718370437622,-0.9098199605941772,0.9204415678977966,0.6608350872993469,0.6987356543540955,-0.48492932319641113,0.8889731764793396,0.340246319770813,0.7515445351600647,-0.78354811668396,0.922193706035614,0.5584383606910706,0.6618584394454956,0.04655933007597923,0.9955378770828247,0.4008747637271881,0.6775241494178772,-0.04620092362165451,0.9945828318595886,0.5563338994979858,0.8934217095375061,-0.05124739930033684,0.4266246557235718,0.42017146944999695,0.8925125002861023,-0.10090290755033493,0.4167792797088623,0.542384684085846,1.065504550933838,0.4387187063694,0.17220857739448547,0.4294722378253937,1.0690311193466187,0.3336404860019684,0.1905238926410675,0.5279236435890198,1.091057300567627,0.4689524471759796,0.1922132968902588,0.42968419194221497,1.0884459018707275,0.36052554845809937,0.11745476722717285,0.5872015357017517,1.1289923191070557,0.19465568661689758,0.14607694745063782,0.46175438165664673,1.1438506841659546,0.01461868453770876,0.1614459902048111
14709.79391492133,0.47954365611076355,0.26710599660873413,-1.0217150449752808,0.999954342842102,0.4932657778263092,0.24680978059768677,-0.9835198521614075,0.9998835325241089,0.5037052035331726,0.24727952480316162,-0.9836709499359131,0.999862551689148,0.5128110647201538,0.24763526022434235,-0.9838870763778687,0.9998459815979004,0.46045732498168945,0.24639463424682617,-1.0029919147491455,0.9998873472213745,0.44546210765838623,0.24639658629894257,-1.0031667947769165,0.99988853931427,0.43274828791618347,0.2464124858379364,-1.0033986568450928,0.9998816251754761,0.5233035087585449,0.2580120861530304,-0.6815617680549622,0.9997511506080627,0.4038882851600647,0.25705230236053467,-0.7828217148780823,0.999909520149231,0.49436789751052856,0.2895857095718384,-0.901843786239624,0.9999699592590332,0.4524531960487366,0.2884421944618225,-0.9304664731025696,0.9999781847000122,0.5894570350646973,0.3812277019023895,-0.4013369381427765,0.9999074935913086,0.312944233417511,0.38460835814476013,-0.6148443818092346,0.9999372959136963,0.6087902784347534,0.5343867540359497,-0.1975177824497223,0.9498856067657471,0.30326366424560547,0.5668038129806519,-0.5568612217903137,0.9933333992958069,0.6621524095535278,0.6633822321891785,-0.3854600787162781,0.9462403655052185,0.31353408098220825,0.7274486422538757,-0.7374961972236633,0.9679834842681885,0.679084300994873,0.707973062992096,-0.45434120297431946,0.9013900756835938,0.3175230920314789,0.7732778787612915,-0.812556266784668,0.9358748197555542,0.6701767444610596,0.712107241153717,-0.5415825247764587,0.9130696058273315,0.34240221977233887,0.7710045576095581,-0.8929182291030884,0.9415574073791504,0.658941924571991,0.7014566659927368,-0.4251950979232788,0.9144273400306702,0.3457525968551636,0.7535712122917175,-0.7701709270477295,0.9423606395721436,0.5567312240600586,0.6642347574234009,0.04227111488580704,0.997184693813324,0.39892154932022095,0.6800220012664795,-0.04192263260483742,0.9964441657066345,0.5557308197021484,0.8983631730079651,-0.04955907538533211,0.47535669803619385,0.416206032037735,0.8958913087844849,-0.07298605144023895,0.4536552429199219,0.5429250597953796,1.0676699876785278,0.43509766459465027,0.19973215460777283,0.4295654594898224,1.0680124759674072,0.3725152015686035,0.21043643355369568,0.5279873013496399,1.0931336879730225,0.4655211865901947,0.22935134172439575,0.43234071135520935,1.086775302886963,0.401522696018219,0.1307734102010727,0.587446391582489,1.132577657699585,0.19691549241542816,0.16802288591861725,0.4556964337825775,1.144318699836731,0.06584002822637558,0.1771896332502365
14726.460581587997,0.4794076383113861,0.2678337097167969,-1.0243759155273438,0.9999517202377319,0.4934650957584381,0.24742592871189117,-0.9844962954521179,0.9998786449432373,0.5035848021507263,0.24782328307628632,-0.9846670627593994,0.9998553991317749,0.5127151012420654,0.24810753762722015,-0.9848883152008057,0.999840497970581,0.46050259470939636,0.24707293510437012,-1.0049729347229004,0.9998794794082642,0.4453842043876648,0.24703310430049896,-1.0051531791687012,0.9998793601989746,0.43273892998695374,0.24702298641204834,-1.0053901672363281,0.9998722076416016,0.5223680138587952,0.25817978382110596,-0.6772534847259521,0.9997432827949524,0.4041794240474701,0.2573946416378021,-0.7825998663902283,0.9999055862426758,0.4940434694290161,0.2900213599205017,-0.9029911756515503,0.9999699592590332,0.45272067189216614,0.2891049087047577,-0.9327862858772278,0.9999778270721436,0.587044894695282,0.38171854615211487,-0.3936508893966675,0.9999167919158936,0.31353577971458435,0.3838810324668884,-0.6207898855209351,0.999935507774353,0.6072726249694824,0.5357189774513245,-0.19681400060653687,0.9535356760025024,0.3027819097042084,0.5665994882583618,-0.5686423182487488,0.9937402009963989,0.6626249551773071,0.6646766662597656,-0.397705614566803,0.9515880346298218,0.3118278980255127,0.7274807691574097,-0.7555906772613525,0.9678350687026978,0.679885745048523,0.7089141011238098,-0.4697513282299042,0.9083014726638794,0.3154800534248352,0.773895263671875,-0.8336540460586548,0.933800458908081,0.6717841625213623,0.7126820087432861,-0.5582004189491272,0.9196099042892456,0.34021705389022827,0.772146999835968,-0.9154719710350037,0.9399553537368774,0.6605369448661804,0.702294111251831,-0.43857622146606445,0.9203320145606995,0.34336423873901367,0.7544792890548706,-0.7892333269119263,0.9412676095962524,0.5555626153945923,0.6650399565696716,0.046724043786525726,0.9972319006919861,0.3982545733451843,0.6820094585418701,-0.04632420092821121,0.9963680505752563,0.557130753993988,0.8998064994812012,-0.03755897283554077,0.4703992009162903,0.4173312783241272,0.8973191976547241,-0.06414251029491425,0.4422908127307892,0.5448200106620789,1.0683419704437256,0.46097370982170105,0.18310679495334625,0.4306909441947937,1.067728042602539,0.4005791246891022,0.19097167253494263,0.529719352722168,1.0936545133590698,0.4924236238002777,0.211790069937706,0.432770311832428,1.0861999988555908,0.43162840604782104,0.12404494732618332,0.5889301300048828,1.1334632635116577,0.21904738247394562,0.15145514905452728,0.4582940340042114,1.1441819667816162,0.0916895940899849,0.16375143826007843
14743.127248254663,0.4769156873226166,0.26929691433906555,-1.0119211673736572,0.9999594688415527,0.49107223749160767,0.24829640984535217,-0.9740616083145142,0.9999009370803833,0.5011133551597595,0.2485363483428955,-0.974233865737915,0.9998834133148193,0.5103924870491028,0.24879124760627747,-0.9744724631309509,0.9998726844787598,0.45755887031555176,0.24835053086280823,-0.9939047694206238,0.9998981952667236,0.44211119413375854,0.24837014079093933,-0.9940577745437622,0.9998960494995117,0.4296126365661621,0.2485542893409729,-0.9942827224731445,0.9998893737792969,0.5203856825828552,0.2588510811328888,-0.6727184057235718,0.9998044371604919,0.4024420976638794,0.25838327407836914,-0.7749873399734497,0.9999151229858398,0.49209854006767273,0.29188552498817444,-0.8918014764785767,0.9999752044677734,0.4499530494213104,0.29088109731674194,-0.9207484126091003,0.9999802112579346,0.5882847309112549,0.3796020746231079,-0.3972252607345581,0.9999319314956665,0.3119407296180725,0.38508880138397217,-0.6024031639099121,0.9999369382858276,0.6083227396011353,0.5344725251197815,-0.20208540558815002,0.957227885723114,0.3023795485496521,0.5694992542266846,-0.5415964722633362,0.9926393032073975,0.6624146699905396,0.6644325256347656,-0.4030182659626007,0.9541852474212646,0.3132409155368805,0.7260119318962097,-0.7275740504264832,0.9672717452049255,0.6792186498641968,0.7075376510620117,-0.47562310099601746,0.9137279391288757,0.317850798368454,0.7712246775627136,-0.8030186295509338,0.9355021119117737,0.6709160804748535,0.7117806077003479,-0.5629023313522339,0.9245167374610901,0.3418689966201782,0.7703872323036194,-0.885712742805481,0.9413978457450867,0.6599799394607544,0.7012513875961304,-0.44298213720321655,0.925196647644043,0.3449408710002899,0.7531041502952576,-0.7613925337791443,0.9420089721679688,0.5570656657218933,0.6643033027648926,0.038860518485307693,0.9970585107803345,0.3988427519798279,0.6797434687614441,-0.03848784789443016,0.9960083961486816,0.5565457940101624,0.8991172909736633,-0.058048803359270096,0.4658506512641907,0.41606301069259644,0.8960091471672058,-0.0804160013794899,0.4339595437049866,0.5414203405380249,1.0686006546020508,0.41956689953804016,0.18902723491191864,0.4280558228492737,1.069530725479126,0.3492279648780823,0.19893667101860046,0.5272305011749268,1.0942786931991577,0.4491109251976013,0.2191840559244156,0.43088096380233765,1.088670015335083,0.3765987455844879,0.1256597489118576,0.5841618776321411,1.132912516593933,0.1795676350593567,0.15786132216453552,0.45355308055877686,1.1451777219772339,0.04025222733616829,0.16802997887134552
14759.793914921329,0.4755496084690094,0.2692057490348816,-1.0413615703582764,0.9999622106552124,0.4905923306941986,0.2481740564107895,-1.0041303634643555,0.9999032020568848,0.500947117805481,0.2485053688287735,-1.0042866468429565,0.9998844861984253,0.5103614926338196,0.2488889843225479,-1.004532814025879,0.9998750686645508,0.45710626244544983,0.24782344698905945,-1.0226479768753052,0.9999048709869385,0.4418119788169861,0.24782051146030426,-1.0227956771850586,0.9999027252197266,0.42941486835479736,0.24804458022117615,-1.02300226688385,0.9998987913131714,0.5203965306282043,0.2591542601585388,-0.7049257159233093,0.9997943043708801,0.4024442434310913,0.25817248225212097,-0.8019000291824341,0.9999173879623413,0.49077868461608887,0.2918875515460968,-0.9220687747001648,0.9999744892120361,0.4477519989013672,0.29075855016708374,-0.9494867920875549,0.9999806880950928,0.5870227217674255,0.3783588111400604,-0.4318996071815491,0.9999203681945801,0.3115524649620056,0.38429874181747437,-0.6212723255157471,0.9999359846115112,0.6112421751022339,0.5307439565658569,-0.23727408051490784,0.9549410343170166,0.3033621907234192,0.5663372278213501,-0.5569208860397339,0.9924363493919373,0.6622042655944824,0.6606876254081726,-0.43120628595352173,0.947644829750061,0.31273353099823,0.7269138097763062,-0.7371590733528137,0.9659835696220398,0.6808212399482727,0.7024758458137512,-0.5038620233535767,0.9039521217346191,0.3155837059020996,0.7729586362838745,-0.8120619058609009,0.9338071346282959,0.673892617225647,0.7077480554580688,-0.590269148349762,0.9149402976036072,0.34116241335868835,0.7714480757713318,-0.8944849371910095,0.9393743276596069,0.6619455218315125,0.6952698230743408,-0.47075945138931274,0.9164617657661438,0.34490251541137695,0.7537493705749512,-0.7709236741065979,0.9407083988189697,0.5561344623565674,0.6599505543708801,0.03448759391903877,0.9969086050987244,0.400296688079834,0.6776033043861389,-0.03412189707159996,0.996103048324585,0.5563654899597168,0.8930100202560425,-0.051391515880823135,0.4927317500114441,0.41546493768692017,0.8887214660644531,-0.07879035919904709,0.47249817848205566,0.5298182964324951,1.0513817071914673,0.40721839666366577,0.20729701220989227,0.4273219108581543,1.0661673545837402,0.33399972319602966,0.22410981357097626,0.5210800170898438,1.0899968147277832,0.4348208010196686,0.22799690067768097,0.4298223853111267,1.0857079029083252,0.359377384185791,0.13658440113067627,0.5797449350357056,1.1274257898330688,0.1696307212114334,0.17218896746635437,0.4504193067550659,1.1409575939178467,0.025339636951684952,0.18255531787872314
14776.460581587995,0.48119160532951355,0.2674737870693207,-1.002163052558899,0.9999452829360962,0.4944230318069458,0.24683035910129547,-0.9629614353179932,0.9998646974563599,0.5038151144981384,0.2471780776977539,-0.9631311893463135,0.9998444318771362,0.5127777457237244,0.24737946689128876,-0.963360071182251,0.9998315572738647,0.46188485622406006,0.24693600833415985,-0.9851871728897095,0.9998571872711182,0.44640839099884033,0.24713796377182007,-0.9853588342666626,0.9998575448989868,0.43343591690063477,0.24735698103904724,-0.9855852723121643,0.9998441934585571,0.520850658416748,0.25739943981170654,-0.6610177159309387,0.9997367262840271,0.40499815344810486,0.25731754302978516,-0.7745498418807983,0.9998804330825806,0.4955487847328186,0.28987401723861694,-0.8823757767677307,0.9999672174453735,0.45468711853027344,0.289203405380249,-0.9145236611366272,0.9999737739562988,0.5867376327514648,0.3787756562232971,-0.3888058662414551,0.9999326467514038,0.3124568462371826,0.3821960687637329,-0.6094900369644165,0.999920129776001,0.6079368591308594,0.5314363241195679,-0.19981195032596588,0.960561990737915,0.30191707611083984,0.564410388469696,-0.5539580583572388,0.9926801919937134,0.6614292860031128,0.6633021831512451,-0.406122088432312,0.9631718993186951,0.314155638217926,0.7246196866035461,-0.7346723675727844,0.9649870991706848,0.6800384521484375,0.7061784863471985,-0.4807796776294708,0.9287803173065186,0.31860828399658203,0.7705971598625183,-0.8108024597167969,0.9307646155357361,0.6720257997512817,0.7101978063583374,-0.5684105753898621,0.937818169593811,0.34326469898223877,0.7695367932319641,-0.8933061957359314,0.9369078278541565,0.6604914665222168,0.6981538534164429,-0.44648975133895874,0.9366456866264343,0.34626704454421997,0.7524605989456177,-0.7684771418571472,0.9382283687591553,0.5565819144248962,0.6604660749435425,0.046217262744903564,0.996990442276001,0.40027907490730286,0.6780958771705627,-0.0458180233836174,0.995775043964386,0.5567439794540405,0.8888609409332275,-0.04247874766588211,0.479253888130188,0.4151741862297058,0.8854494690895081,-0.0780462771654129,0.44510531425476074,0.5338460803031921,1.0479145050048828,0.4354669451713562,0.19398683309555054,0.42411118745803833,1.0622899532318115,0.35762864351272583,0.20473076403141022,0.5177262425422668,1.0892285108566284,0.4646415412425995,0.21319133043289185,0.4241044223308563,1.0811740159988403,0.3851148784160614,0.12823903560638428,0.5755753517150879,1.1300727128982544,0.1950235217809677,0.16345569491386414,0.4531266391277313,1.13798189163208,0.04978124424815178,0.17704521119594574
14793.127248254661,0.4800931215286255,0.27057287096977234,-1.0009416341781616,0.9999397993087769,0.49396753311157227,0.2491275668144226,-0.9623249769210815,0.9998483657836914,0.5036733746528625,0.24924488365650177,-0.9624998569488525,0.9998230338096619,0.5128365159034729,0.2492397427558899,-0.9627422094345093,0.9998037219047546,0.46059951186180115,0.24970793724060059,-0.983461320400238,0.9998419284820557,0.44503310322761536,0.24992825090885162,-0.9836090803146362,0.9998418092727661,0.4322547912597656,0.25012606382369995,-0.9838343262672424,0.9998300075531006,0.52118980884552,0.25893571972846985,-0.657930314540863,0.9997078776359558,0.4036611020565033,0.25990480184555054,-0.7651908993721008,0.9998770952224731,0.49524685740470886,0.29289525747299194,-0.8796563148498535,0.9999644756317139,0.45367902517318726,0.29213589429855347,-0.910024881362915,0.9999722242355347,0.5878657698631287,0.3808971345424652,-0.3772730827331543,0.999925971031189,0.31199920177459717,0.38454777002334595,-0.5993502140045166,0.9999263286590576,0.6069363951683044,0.533428430557251,-0.18152855336666107,0.9543588161468506,0.30230674147605896,0.5669608116149902,-0.5439987182617188,0.9929317235946655,0.6606572866439819,0.6638774275779724,-0.3878578245639801,0.9532796144485474,0.31221678853034973,0.7244017124176025,-0.732276976108551,0.9667747616767883,0.6790199875831604,0.7079424858093262,-0.46049657464027405,0.9118959903717041,0.31564241647720337,0.770484447479248,-0.810033917427063,0.9331690073013306,0.6713641881942749,0.7116494178771973,-0.5491491556167603,0.9228010177612305,0.3406115174293518,0.7691646814346313,-0.8918238282203674,0.939171314239502,0.6595117449760437,0.7004804611206055,-0.42879706621170044,0.9228368401527405,0.34415796399116516,0.751677393913269,-0.7660506963729858,0.9399730563163757,0.5559135675430298,0.664213240146637,0.04362338408827782,0.996988832950592,0.39850670099258423,0.6803675889968872,-0.04320254549384117,0.9958271384239197,0.5562379360198975,0.8948947191238403,-0.04713990539312363,0.5127891898155212,0.41835471987724304,0.8935679197311401,-0.06679833680391312,0.4572072923183441,0.5385279655456543,1.0645930767059326,0.4527711570262909,0.19929620623588562,0.42829975485801697,1.0623440742492676,0.3946385383605957,0.20428971946239471,0.5235135555267334,1.089064121246338,0.48403200507164,0.2099481225013733,0.43061548471450806,1.0807329416275024,0.4250943958759308,0.1292206048965454,0.5769538879394531,1.1317213773727417,0.2084064483642578,0.15965227782726288,0.4523579180240631,1.1386994123458862,0.08543147891759872,0.17472197115421295
14809.793914921327,0.48205453157424927,0.26992857456207275,-1.0276490449905396,0.9999327659606934,0.4951120913028717,0.24817228317260742,-0.9893763065338135,0.9998294115066528,0.5046998262405396,0.24826914072036743,-0.989547073841095,0.9998018145561218,0.513662576675415,0.24822619557380676,-0.9897803664207458,0.9997790455818176,0.46207621693611145,0.24909156560897827,-1.0109500885009766,0.9998252987861633,0.44645851850509644,0.2494225949048996,-1.0111303329467773,0.9998282194137573,0.43361198902130127,0.24965046346187592,-1.0113662481307983,0.9998142123222351,0.5216697454452515,0.2580035328865051,-0.6823895573616028,0.999658465385437,0.4043949842453003,0.25940367579460144,-0.7922583818435669,0.9998661279678345,0.49683764576911926,0.2920902669429779,-0.9051589369773865,0.9999583959579468,0.45670631527900696,0.2916076183319092,-0.9363072514533997,0.9999692440032959,0.5875944495201111,0.38005995750427246,-0.39328765869140625,0.999915599822998,0.3108418583869934,0.3837355673313141,-0.6262853145599365,0.9999302625656128,0.6061732769012451,0.532557487487793,-0.19782313704490662,0.9511914849281311,0.30299112200737,0.5646241903305054,-0.5675334334373474,0.9932395219802856,0.6598778963088989,0.6631100177764893,-0.40560442209243774,0.9484006762504578,0.31332337856292725,0.723849356174469,-0.7514129877090454,0.9648262858390808,0.6803743243217468,0.7087353467941284,-0.4783979058265686,0.9037938714027405,0.31644731760025024,0.7694104313850403,-0.828865110874176,0.9295106530189514,0.6724843382835388,0.7120117545127869,-0.5672857761383057,0.915762722492218,0.3406168818473816,0.767894446849823,-0.9123698472976685,0.9362248182296753,0.6601188778877258,0.7012428641319275,-0.44693076610565186,0.9157661199569702,0.3439995050430298,0.7506769299507141,-0.7857945561408997,0.937428891658783,0.5557011961936951,0.6608536839485168,0.05130498856306076,0.9965879917144775,0.3992406129837036,0.677686333656311,-0.050879739224910736,0.9955700039863586,0.5574609041213989,0.8907718658447266,-0.03439248353242874,0.46728387475013733,0.4212733507156372,0.8900973200798035,-0.0753188356757164,0.4452202320098877,0.5389990210533142,1.059152603149414,0.4571770429611206,0.17981447279453278,0.42935001850128174,1.0581854581832886,0.3792586922645569,0.1936703771352768,0.5224539637565613,1.0841723680496216,0.48766279220581055,0.20594516396522522,0.4296252429485321,1.076863169670105,0.40856924653053284,0.1241334080696106,0.5831752419471741,1.1250455379486084,0.21380093693733215,0.15159589052200317,0.45987236499786377,1.1338398456573486,0.06784984469413757,0.16547642648220062
14826.460581587993,0.48105815052986145,0.2694840431213379,-1.0378612279891968,0.9999454021453857,0.49447140097618103,0.24822436273097992,-1.000881552696228,0.9998621940612793,0.5046032071113586,0.2483726441860199,-1.001059651374817,0.9998339414596558,0.5138735175132751,0.24841676652431488,-1.0013047456741333,0.9998213648796082,0.4602281451225281,0.2492179274559021,-1.0184663534164429,0.9998618364334106,0.44433844089508057,0.24960270524024963,-1.0186357498168945,0.9998611211776733,0.431501567363739,0.24995964765548706,-1.0188604593276978,0.9998574256896973,0.5238116383552551,0.25850746035575867,-0.7011384963989258,0.9997037053108215,0.402800589799881,0.2604271173477173,-0.7929576635360718,0.9998897314071655,0.4972270429134369,0.2917841970920563,-0.9184615015983582,0.9999619722366333,0.45542624592781067,0.29119396209716797,-0.9444388747215271,0.9999721050262451,0.5873578190803528,0.38097554445266724,-0.42106300592422485,0.9999105930328369,0.3120015859603882,0.38397908210754395,-0.621505081653595,0.9999297857284546,0.6078172922134399,0.5357927083969116,-0.2315610647201538,0.9484116435050964,0.3018719553947449,0.5678515434265137,-0.5651100277900696,0.9916511178016663,0.660778820514679,0.6637229323387146,-0.4209349751472473,0.9367095828056335,0.314892053604126,0.723459780216217,-0.7467816472053528,0.9538900256156921,0.6806581020355225,0.7077412605285645,-0.4899929165840149,0.8844673037528992,0.31906065344810486,0.769152820110321,-0.8212939500808716,0.9084499478340149,0.6717096567153931,0.71068274974823,-0.5754826664924622,0.89841628074646,0.3440973460674286,0.7676188349723816,-0.9017568230628967,0.916609525680542,0.6591742038726807,0.7007193565368652,-0.46019506454467773,0.9004449248313904,0.3477787375450134,0.7506758570671082,-0.7800490260124207,0.9200695157051086,0.5556686520576477,0.6624182462692261,0.03868204727768898,0.9963098168373108,0.3991796374320984,0.6788642406463623,-0.03831719979643822,0.9951974749565125,0.5558882355690002,0.8930705785751343,-0.031946055591106415,0.45221400260925293,0.4185020327568054,0.8918963670730591,-0.06419050693511963,0.4297126531600952,0.5402265787124634,1.070479393005371,0.4190368950366974,0.19193360209465027,0.43023574352264404,1.0685405731201172,0.35134628415107727,0.19868575036525726,0.526452362537384,1.0965547561645508,0.44495123624801636,0.1997145712375641,0.4318069815635681,1.0874395370483398,0.37704998254776,0.12795105576515198,0.5807939767837524,1.1351736783981323,0.17134471237659454,0.15341927111148834,0.4561860263347626,1.1446247100830078,0.04091646522283554,0.16739629209041595
14843.12724825466,0.47959545254707336,0.2699466049671173,-1.041175365447998,0.999946117401123,0.4929635226726532,0.24868544936180115,-1.0035024881362915,0.9998613595962524,0.5031762719154358,0.24875928461551666,-1.0036853551864624,0.999832034111023,0.5124229788780212,0.2488766461610794,-1.003949761390686,0.9998194575309753,0.45815518498420715,0.24975784122943878,-1.0199198722839355,0.9998601675033569,0.44250839948654175,0.2501755356788635,-1.0200834274291992,0.999859094619751,0.4300187826156616,0.2505283057689667,-1.0203053951263428,0.9998587369918823,0.5228509306907654,0.2587136924266815,-0.7043510675430298,0.9997034668922424,0.40256863832473755,0.2609906494617462,-0.7904691100120544,0.9998878240585327,0.49630123376846313,0.2921212911605835,-0.9223604202270508,0.9999610185623169,0.45390939712524414,0.29164639115333557,-0.9467662572860718,0.9999711513519287,0.5874924659729004,0.3814707100391388,-0.43002718687057495,0.9999045133590698,0.31221795082092285,0.3843882381916046,-0.6168096661567688,0.9999275207519531,0.6080526113510132,0.5370793342590332,-0.24523678421974182,0.9456617832183838,0.3026278018951416,0.5679512023925781,-0.5629903674125671,0.9910563230514526,0.6607375741004944,0.6648646593093872,-0.4393826723098755,0.9272858500480652,0.31491538882255554,0.7230261564254761,-0.7517520189285278,0.9537729024887085,0.6802781820297241,0.7092810869216919,-0.5090076327323914,0.87056565284729,0.31898415088653564,0.7683524489402771,-0.8278670310974121,0.9083445072174072,0.6728817224502563,0.7120774984359741,-0.5951836705207825,0.8856220245361328,0.3437069058418274,0.7670133709907532,-0.9069812297821045,0.9162454009056091,0.6601935625076294,0.7020457983016968,-0.47915729880332947,0.8892582654953003,0.34736368060112,0.7499382495880127,-0.784903883934021,0.9194358587265015,0.5560610890388489,0.661771297454834,0.02992863580584526,0.9961089491844177,0.39947518706321716,0.6783875823020935,-0.02955685742199421,0.9949519634246826,0.556328296661377,0.8906057476997375,-0.04947345703840256,0.4627925753593445,0.41940838098526,0.8911961317062378,-0.05955708399415016,0.4206620156764984,0.5382422208786011,1.0665736198425293,0.40782544016838074,0.1878788322210312,0.4328404366970062,1.0653375387191772,0.36089372634887695,0.196804478764534,0.5262149572372437,1.0921375751495361,0.4342012107372284,0.17889279127120972,0.43635284900665283,1.083998441696167,0.3869296908378601,0.1259010136127472,0.5721940398216248,1.1318018436431885,0.15921932458877563,0.1495230793952942,0.45333120226860046,1.1413891315460205,0.05071844160556793,0.16627635061740875
14859.793914921325,0.4783656597137451,0.271005243062973,-1.0119006633758545,0.9999440908432007,0.4919795095920563,0.24899742007255554,-0.9717325568199158,0.9998561143875122,0.5019717812538147,0.2488260120153427,-0.9719256162643433,0.9998286962509155,0.511149525642395,0.24885685741901398,-0.9721564650535583,0.999815046787262,0.4564700126647949,0.2506207823753357,-0.9913930296897888,0.99985671043396,0.4408820569515228,0.2511287033557892,-0.9915842413902283,0.9998584985733032,0.42806732654571533,0.2516013979911804,-0.9918027520179749,0.9998546838760376,0.52009516954422,0.25851866602897644,-0.6673428416252136,0.9996918439865112,0.40089356899261475,0.26182863116264343,-0.7674052119255066,0.9998911619186401,0.4947406053543091,0.2933118939399719,-0.8919260501861572,0.9999630451202393,0.45154869556427,0.2933424413204193,-0.9202379584312439,0.9999728202819824,0.5854883193969727,0.38204318284988403,-0.38795292377471924,0.9999097585678101,0.31054359674453735,0.38840019702911377,-0.608273983001709,0.9999302625656128,0.6066096425056458,0.5357949733734131,-0.20495499670505524,0.9454639554023743,0.3020009994506836,0.570976972579956,-0.556688666343689,0.993206262588501,0.6590869426727295,0.6631487011909485,-0.41378259658813477,0.9356645345687866,0.316680908203125,0.7249926924705505,-0.7462353110313416,0.9620786309242249,0.6798602342605591,0.7075405716896057,-0.48644256591796875,0.8831758499145508,0.3196589946746826,0.7703227996826172,-0.8252692222595215,0.9217301607131958,0.6714600324630737,0.7104504704475403,-0.573777437210083,0.8966680765151978,0.344049870967865,0.7695497870445251,-0.9048908948898315,0.9283970594406128,0.6588243246078491,0.699744701385498,-0.4548393785953522,0.8984639048576355,0.34794294834136963,0.7527769804000854,-0.7795671820640564,0.9305775165557861,0.5555357933044434,0.6641001105308533,0.04232126474380493,0.9966551065444946,0.4000729024410248,0.6818506121635437,-0.041935648769140244,0.9956771731376648,0.5562909245491028,0.8949404954910278,-0.01212006900459528,0.5167483687400818,0.42023545503616333,0.8922341465950012,-0.05056500807404518,0.4814179241657257,0.5407472848892212,1.065583348274231,0.4509221017360687,0.22659030556678772,0.4358603060245514,1.0644989013671875,0.38317587971687317,0.2228918969631195,0.5267818570137024,1.0910561084747314,0.4779711961746216,0.21918247640132904,0.43777936697006226,1.08248770236969,0.4104769825935364,0.13773740828037262,0.5800228714942932,1.1311594247817993,0.20017126202583313,0.18629169464111328,0.46601736545562744,1.1413711309432983,0.07123788446187973,0.19504684209823608
14876.460581587991,0.48252740502357483,0.27059370279312134,-1.0056127309799194,0.9999496936798096,0.49506109952926636,0.24876892566680908,-0.9653902053833008,0.9998737573623657,0.5044580698013306,0.24856694042682648,-0.965588390827179,0.9998482465744019,0.5134739279747009,0.248365581035614,-0.9658187031745911,0.99983811378479,0.4605714976787567,0.25054097175598145,-0.9858162999153137,0.999869704246521,0.44471919536590576,0.25109127163887024,-0.9859979152679443,0.9998685121536255,0.43188339471817017,0.25143346190452576,-0.9862074851989746,0.9998657703399658,0.5205090641975403,0.2576661705970764,-0.664704442024231,0.9997305274009705,0.40274345874786377,0.2612900137901306,-0.7682145833969116,0.9998972415924072,0.49798524379730225,0.29248854517936707,-0.887175977230072,0.9999678134918213,0.4561387896537781,0.2926332354545593,-0.9165458083152771,0.999975323677063,0.5850996375083923,0.38208431005477905,-0.39338570833206177,0.9999277591705322,0.3121491074562073,0.3866652548313141,-0.6076975464820862,0.9999326467514038,0.6081743836402893,0.5377898812294006,-0.21738092601299286,0.946366012096405,0.30280381441116333,0.569279134273529,-0.5563752055168152,0.9927075505256653,0.6614099740982056,0.6632272005081177,-0.42931097745895386,0.9354979395866394,0.3154090642929077,0.7217699885368347,-0.7446833848953247,0.9615815877914429,0.6827242374420166,0.707665205001831,-0.5021690130233765,0.8824689984321594,0.3177602291107178,0.7680884003639221,-0.8222723007202148,0.9221362471580505,0.6749284863471985,0.7107695937156677,-0.588469922542572,0.8964337110519409,0.3428053855895996,0.7676156163215637,-0.9021815657615662,0.9290469288825989,0.6618375778198242,0.7001726627349854,-0.4700477123260498,0.8990099430084229,0.3468623459339142,0.7501383423805237,-0.778050422668457,0.9308596849441528,0.5543496608734131,0.6628836393356323,0.0379226878285408,0.9972043633460999,0.39821314811706543,0.6801893711090088,-0.0375664085149765,0.9959684610366821,0.5568642616271973,0.8937727212905884,-0.040224988013505936,0.5020698308944702,0.41764771938323975,0.893623411655426,-0.05653476342558861,0.4485620856285095,0.5443810224533081,1.0698459148406982,0.4194094240665436,0.2192014455795288,0.43478330969810486,1.0660806894302368,0.37820708751678467,0.21064215898513794,0.5318813323974609,1.0952101945877075,0.44598808884620667,0.20552560687065125,0.4372469484806061,1.084145188331604,0.4058341979980469,0.13163724541664124,0.5813182592391968,1.1358845233917236,0.16669456660747528,0.1807844042778015,0.4624648094177246,1.1430522203445435,0.07085108011960983,0.1894659399986267
14893.127248254657,0.48097723722457886,0.27321377396583557,-0.955700695514679,0.9999516010284424,0.49497222900390625,0.2515864968299866,-0.9147542119026184,0.9998810291290283,0.5045774579048157,0.2516504228115082,-0.9149505496025085,0.999859094619751,0.5133039355278015,0.25162866711616516,-0.9151762127876282,0.9998433589935303,0.4630381166934967,0.25188130140304565,-0.9397205710411072,0.9998754262924194,0.44767969846725464,0.2519489824771881,-0.9398698806762695,0.9998745918273926,0.43443048000335693,0.25184109807014465,-0.9401153326034546,0.9998643398284912,0.5198427438735962,0.26068446040153503,-0.6077597141265869,0.9997615218162537,0.4034695625305176,0.26017165184020996,-0.733153760433197,0.9999051094055176,0.49483659863471985,0.2949955463409424,-0.8339052200317383,0.9999723434448242,0.45303335785865784,0.2942293882369995,-0.8695904016494751,0.9999790191650391,0.5848270654678345,0.38310131430625916,-0.33084213733673096,0.999937891960144,0.30820345878601074,0.3851957619190216,-0.5782368183135986,0.9999343156814575,0.6044611930847168,0.5360870361328125,-0.14246614277362823,0.9508185386657715,0.3039214611053467,0.5703005194664001,-0.529109001159668,0.9928860068321228,0.6579841375350952,0.6639096140861511,-0.3616679608821869,0.9547863602638245,0.3148787021636963,0.7249963879585266,-0.7171979546546936,0.9686578512191772,0.6782136559486389,0.7073773145675659,-0.4362342953681946,0.9151897430419922,0.3164868950843811,0.7710000276565552,-0.7947012186050415,0.9376906752586365,0.6697313785552979,0.7110767364501953,-0.5235937237739563,0.9261369705200195,0.3419944643974304,0.7699461579322815,-0.8774060606956482,0.9437122344970703,0.657660961151123,0.7002778053283691,-0.4028448462486267,0.9251354932785034,0.3459734320640564,0.7523400783538818,-0.7508366107940674,0.9435577988624573,0.5538763999938965,0.6658387184143066,0.04886676371097565,0.9971967935562134,0.39780858159065247,0.6822393536567688,-0.048463497310876846,0.9958229064941406,0.5570582151412964,0.9006199836730957,-0.052193187177181244,0.48828595876693726,0.4184679687023163,0.9001310467720032,-0.08328795433044434,0.41407501697540283,0.5421448349952698,1.072300672531128,0.4610744118690491,0.18570706248283386,0.4285096824169159,1.0697526931762695,0.3835274279117584,0.1877155900001526,0.5273948907852173,1.096623182296753,0.49347567558288574,0.2040373831987381,0.4301805794239044,1.088449478149414,0.41436195373535156,0.12331771850585938,0.5818163752555847,1.1406826972961426,0.2175825536251068,0.15421292185783386,0.45673036575317383,1.1459949016571045,0.07556658983230591,0.1706998348236084
14909.793914921323,0.4821177124977112,0.2715073227882385,-0.9766787886619568,0.9999464750289917,0.4956953823566437,0.24959832429885864,-0.936279833316803,0.9998703002929688,0.5050539374351501,0.24984611570835114,-0.9364591240882874,0.9998468160629272,0.5135839581489563,0.2498413324356079,-0.9366854429244995,0.9998291730880737,0.4640504717826843,0.24987007677555084,-0.9603866338729858,0.9998643398284912,0.4491828382015228,0.25010472536087036,-0.9605443477630615,0.9998652935028076,0.4349498748779297,0.25007984042167664,-0.9607623815536499,0.9998558759689331,0.5201762318611145,0.2592914402484894,-0.6268738508224487,0.999742329120636,0.402845561504364,0.25968247652053833,-0.7482211589813232,0.9998992681503296,0.49563169479370117,0.2934926748275757,-0.8537786602973938,0.9999690055847168,0.45547497272491455,0.2929428517818451,-0.8881835341453552,0.9999768733978271,0.5834124088287354,0.38135895133018494,-0.344075083732605,0.999932050704956,0.30848145484924316,0.3851364552974701,-0.5880317687988281,0.9999309778213501,0.604005753993988,0.5338214039802551,-0.14695264399051666,0.9484750032424927,0.30146610736846924,0.5676138997077942,-0.537114143371582,0.9932605624198914,0.6564180850982666,0.6626951694488525,-0.3568202257156372,0.9518247842788696,0.3143671751022339,0.7246901988983154,-0.724274754524231,0.966786801815033,0.6757664084434509,0.7053634524345398,-0.4296896755695343,0.9094446301460266,0.31578776240348816,0.7707816362380981,-0.8019166588783264,0.9325091242790222,0.6674628257751465,0.7094446420669556,-0.5185604691505432,0.9205621480941772,0.34211844205856323,0.7693929672241211,-0.8828256130218506,0.9385654330253601,0.6555448174476624,0.697827160358429,-0.3983280658721924,0.9199292063713074,0.346369206905365,0.7517620325088501,-0.7573601603507996,0.939215898513794,0.5543627738952637,0.6642895340919495,0.049677181988954544,0.9970773458480835,0.39971715211868286,0.6817938685417175,-0.049261171370744705,0.9958894848823547,0.5563387870788574,0.8961331248283386,-0.04159941151738167,0.517386794090271,0.4193546772003174,0.8971244096755981,-0.07483857870101929,0.4446183443069458,0.5404107570648193,1.0650508403778076,0.4744805097579956,0.19995777308940887,0.43121570348739624,1.0645062923431396,0.3941799998283386,0.2010103315114975,0.5247811079025269,1.0887856483459473,0.5074049234390259,0.2070160210132599,0.43268221616744995,1.0824016332626343,0.425139456987381,0.12248074263334274,0.5789372324943542,1.1342929601669312,0.23087093234062195,0.16669034957885742,0.4615960121154785,1.142033576965332,0.0826723724603653,0.17843970656394958
14926.46058158799,0.4791806638240814,0.2716059684753418,-0.9675132036209106,0.9999485015869141,0.49305102229118347,0.2504073679447174,-0.9263705611228943,0.9998760223388672,0.5027386546134949,0.2507307827472687,-0.926571249961853,0.999860405921936,0.5114535093307495,0.25078845024108887,-0.926811158657074,0.9998441934585571,0.4605563282966614,0.2502399981021881,-0.9504168033599854,0.9998601675033569,0.4450942873954773,0.2502214014530182,-0.9505710005760193,0.9998602867126465,0.4315824806690216,0.25015804171562195,-0.9507941603660583,0.9998428821563721,0.519472599029541,0.26017865538597107,-0.6164319515228271,0.9997765421867371,0.4016364514827728,0.25983014702796936,-0.7377190589904785,0.9998890161514282,0.4935619831085205,0.29355019330978394,-0.8445507287979126,0.9999711513519287,0.45251092314720154,0.2926642596721649,-0.8790102005004883,0.9999756813049316,0.5841397047042847,0.3806709051132202,-0.3420410454273224,0.999946117401123,0.3099921941757202,0.38550588488578796,-0.5729687213897705,0.9999170303344727,0.6040498614311218,0.5354159474372864,-0.15178413689136505,0.9570216536521912,0.30104947090148926,0.5683017373085022,-0.5178422331809998,0.991541862487793,0.6550256609916687,0.6644555330276489,-0.3716762661933899,0.9605016112327576,0.3147905468940735,0.725678026676178,-0.7094112038612366,0.960006058216095,0.6734983921051025,0.7067174911499023,-0.4472707211971283,0.9246972799301147,0.31777337193489075,0.771401047706604,-0.7870512008666992,0.9225032329559326,0.6637479066848755,0.7106262445449829,-0.536731481552124,0.9345039129257202,0.34289300441741943,0.770370364189148,-0.8694251179695129,0.9296044111251831,0.6524328589439392,0.6997352838516235,-0.4132564961910248,0.9329264760017395,0.346649706363678,0.7529659867286682,-0.7433313727378845,0.9302456974983215,0.5542032122612,0.6650006175041199,0.04584238678216934,0.9974613189697266,0.3984329104423523,0.6825443506240845,-0.04540180787444115,0.9958452582359314,0.5581518411636353,0.8973803520202637,-0.060066863894462585,0.5076143741607666,0.41749680042266846,0.8958972692489624,-0.07641013711690903,0.4202037751674652,0.5366951823234558,1.049176812171936,0.46415573358535767,0.19712485373020172,0.4295218884944916,1.0640184879302979,0.4039795398712158,0.19263289868831635,0.5272558927536011,1.0910704135894775,0.4977959394454956,0.21032828092575073,0.431540310382843,1.081895112991333,0.4360719323158264,0.12052612751722336,0.5781459212303162,1.1363379955291748,0.21919912099838257,0.16308236122131348,0.45738860964775085,1.1412198543548584,0.09491361677646637,0.17329217493534088
14943.127248254656,0.4802528917789459,0.27219149470329285,-0.9500280022621155,0.9999529123306274,0.4936257302761078,0.2511277496814728,-0.9097180962562561,0.999890923500061,0.502863883972168,0.25139591097831726,-0.9099044799804688,0.9998732805252075,0.5112801194190979,0.2515789270401001,-0.9101248979568481,0.9998592138290405,0.46198415756225586,0.2506515383720398,-0.9349610805511475,0.9998830556869507,0.44766172766685486,0.2505076825618744,-0.9351100325584412,0.9998818635940552,0.43358102440834045,0.25025516748428345,-0.9353318214416504,0.9998701810836792,0.5177645087242126,0.26080843806266785,-0.6021826863288879,0.9997938275337219,0.40241751074790955,0.2595103979110718,-0.7291494011878967,0.9999090433120728,0.4928446412086487,0.2941235303878784,-0.8278309106826782,0.9999727010726929,0.4538770020008087,0.2927302122116089,-0.8638359904289246,0.9999785423278809,0.5826639533042908,0.38023489713668823,-0.3235062062740326,0.9999372959136963,0.30924439430236816,0.3855893611907959,-0.5727668404579163,0.9999299049377441,0.6049011945724487,0.5346315503120422,-0.12629570066928864,0.953074038028717,0.3019842505455017,0.5679251551628113,-0.5219111442565918,0.9930376410484314,0.6536104679107666,0.6643261313438416,-0.33511197566986084,0.9582375288009644,0.3149987757205963,0.7249389886856079,-0.7044941782951355,0.9667122960090637,0.6721981167793274,0.7078750133514404,-0.4077851474285126,0.9200646877288818,0.31902408599853516,0.7701202630996704,-0.7805967330932617,0.9335797429084778,0.662347137928009,0.7114285230636597,-0.49607226252555847,0.9302995800971985,0.34438806772232056,0.7694101333618164,-0.8620827794075012,0.9396693706512451,0.6509408950805664,0.7015470266342163,-0.376112163066864,0.929513156414032,0.34758302569389343,0.751969575881958,-0.7375994920730591,0.9398283362388611,0.5529792904853821,0.6645336747169495,0.05248783901333809,0.9973102807998657,0.39821937680244446,0.6818693280220032,-0.05205352604389191,0.9962130784988403,0.557285726070404,0.896943986415863,-0.036460310220718384,0.4901881814002991,0.41849228739738464,0.8977073431015015,-0.08401403576135635,0.4399888217449188,0.5434117317199707,1.0656449794769287,0.47632038593292236,0.19245989620685577,0.4292038083076477,1.0663893222808838,0.37184417247772217,0.20591513812541962,0.5271910429000854,1.0899505615234375,0.5095282793045044,0.23006685078144073,0.4308856427669525,1.084986686706543,0.40186169743537903,0.12814214825630188,0.588042140007019,1.1325507164001465,0.2423851639032364,0.16447417438030243,0.4582943916320801,1.1423976421356201,0.06465321779251099,0.18039143085479736
14959.793914921322,0.4832790791988373,0.2720264792442322,-0.9336029887199402,0.999936580657959,0.49554315209388733,0.2507164776325226,-0.8926315307617188,0.999855637550354,0.5042853355407715,0.25082826614379883,-0.8928238749504089,0.9998316764831543,0.5127309560775757,0.25083351135253906,-0.8930456638336182,0.9998152852058411,0.4641045928001404,0.25084176659584045,-0.9195385575294495,0.9998459815979004,0.4503353536128998,0.2509198486804962,-0.9196908473968506,0.9998437166213989,0.4355533719062805,0.25086453557014465,-0.9199212193489075,0.9998306035995483,0.5174878835678101,0.26031795144081116,-0.5861449241638184,0.9997254014015198,0.40297871828079224,0.2603895962238312,-0.720363199710846,0.999883770942688,0.49571099877357483,0.29395556449890137,-0.8120275139808655,0.9999639987945557,0.45811957120895386,0.2930460572242737,-0.8501038551330566,0.9999719858169556,0.5801594853401184,0.3795259892940521,-0.30698221921920776,0.9999302625656128,0.3098846673965454,0.38515907526016235,-0.5746371746063232,0.9999237060546875,0.6045937538146973,0.5334182381629944,-0.11467787623405457,0.9503020644187927,0.30150628089904785,0.5664848685264587,-0.5288298726081848,0.9932857155799866,0.6494779586791992,0.6629133224487305,-0.3244868516921997,0.9571878910064697,0.3136531710624695,0.7232478857040405,-0.7049971222877502,0.9676074385643005,0.668822705745697,0.7055646181106567,-0.39689916372299194,0.9187981486320496,0.3174319267272949,0.7682185173034668,-0.7812021970748901,0.9349418878555298,0.6591277122497559,0.7092928290367126,-0.48323503136634827,0.9289339780807495,0.34356266260147095,0.7669215798377991,-0.8619855046272278,0.9407185912132263,0.6473256349563599,0.6988100409507751,-0.364812970161438,0.9280320405960083,0.34643620252609253,0.7492653727531433,-0.7377742528915405,0.9409846663475037,0.5512058734893799,0.6645867824554443,0.06114472448825836,0.9969497323036194,0.3958111107349396,0.6810680031776428,-0.06071028858423233,0.9958155751228333,0.5544080138206482,0.8965021371841431,-0.010760399512946606,0.4509083926677704,0.42045149207115173,0.8969022035598755,-0.08858759701251984,0.42219531536102295,0.532589316368103,1.0527796745300293,0.4758012890815735,0.177316352725029,0.42918986082077026,1.0655955076217651,0.3521612286567688,0.18927571177482605,0.5248438715934753,1.0879029035568237,0.5062077641487122,0.21848902106285095,0.4289951026439667,1.0843452215194702,0.38055261969566345,0.12122975289821625,0.589120090007782,1.1284513473510742,0.24309585988521576,0.15430746972560883,0.4626476764678955,1.141048550605774,0.04571974650025368,0.16709811985492706
14976.460581587988,0.4817609488964081,0.2709401845932007,-0.9476096034049988,0.9999428987503052,0.4942077696323395,0.250234454870224,-0.9072391986846924,0.9998685121536255,0.503122091293335,0.25057870149612427,-0.9074098467826843,0.9998461008071899,0.511608898639679,0.25082486867904663,-0.9076168537139893,0.999829888343811,0.4634239077568054,0.24956834316253662,-0.9344159364700317,0.999862790107727,0.45010536909103394,0.2494378536939621,-0.9345819354057312,0.999862551689148,0.4356496036052704,0.24926628172397614,-0.9348162412643433,0.9998517036437988,0.5172044038772583,0.2603972554206848,-0.6004618406295776,0.9997442364692688,0.40284761786460876,0.2585711181163788,-0.7360922694206238,0.9998980760574341,0.49378612637519836,0.2928887903690338,-0.8256571292877197,0.9999672174453735,0.45642805099487305,0.29142045974731445,-0.8641515374183655,0.9999754428863525,0.581108570098877,0.37911173701286316,-0.3169560134410858,0.9999293088912964,0.3088666796684265,0.38499999046325684,-0.5900716185569763,0.9999343156814575,0.6042193174362183,0.5344396829605103,-0.11961234360933304,0.9483564496040344,0.30247896909713745,0.5666261315345764,-0.5399045944213867,0.9936152696609497,0.6491047739982605,0.6632270812988281,-0.3216352164745331,0.9544014930725098,0.31363940238952637,0.7230873107910156,-0.7088668346405029,0.9688567519187927,0.6666449904441833,0.7057560086250305,-0.39211079478263855,0.9140452146530151,0.3173949718475342,0.7678651213645935,-0.7829926609992981,0.9376423358917236,0.6577079892158508,0.7089874148368835,-0.4783687889575958,0.924685001373291,0.34328436851501465,0.7668096423149109,-0.8650556206703186,0.9432946443557739,0.6463956832885742,0.6990096569061279,-0.36183324456214905,0.9242561459541321,0.3458978831768036,0.749051570892334,-0.7418584823608398,0.9435840249061584,0.5524856448173523,0.6624709367752075,0.06477883458137512,0.9970476031303406,0.39749690890312195,0.6793793439865112,-0.06435977667570114,0.9961569905281067,0.5554935932159424,0.8909837007522583,-0.013709812425076962,0.4570216238498688,0.42018336057662964,0.889625608921051,-0.09698250889778137,0.43714800477027893,0.5395087599754333,1.0584219694137573,0.4746430814266205,0.1819661557674408,0.42683932185173035,1.062453031539917,0.34338200092315674,0.19901630282402039,0.5222916007041931,1.083083152770996,0.5055466294288635,0.22692953050136566,0.4256790280342102,1.0812394618988037,0.37167608737945557,0.12347272038459778,0.5889191031455994,1.1240429878234863,0.24477601051330566,0.16253934800624847,0.46280309557914734,1.1377581357955933,0.03706132248044014,0.17420515418052673
14993.127248254654,0.48014262318611145,0.2713899612426758,-1.0313092470169067,0.9999561309814453,0.492631733417511,0.25000977516174316,-0.9881752133369446,0.9998972415924072,0.502285897731781,0.2496786117553711,-0.9883718490600586,0.9998772144317627,0.5111452341079712,0.24957343935966492,-0.9885521531105042,0.9998676776885986,0.46014025807380676,0.2509239614009857,-1.0119305849075317,0.9998908042907715,0.445024698972702,0.25102996826171875,-1.012133240699768,0.9998892545700073,0.4320504069328308,0.2512601315975189,-1.0123757123947144,0.999881386756897,0.5186143517494202,0.25821632146835327,-0.6672836542129517,0.9997815489768982,0.4005191922187805,0.2607564926147461,-0.7874392867088318,0.9999074935913086,0.4949708580970764,0.29196804761886597,-0.9051306247711182,0.9999732971191406,0.45441851019859314,0.2917512059211731,-0.9391806125640869,0.9999796152114868,0.5810527801513672,0.38161203265190125,-0.37806087732315063,0.9999420642852783,0.30718082189559937,0.3873887062072754,-0.6146668791770935,0.9999328851699829,0.6062098145484924,0.5374810695648193,-0.19188520312309265,0.96214759349823,0.3026454448699951,0.568555474281311,-0.5509418845176697,0.9933032393455505,0.6458889245986938,0.6666789054870605,-0.42715948820114136,0.9617269039154053,0.3141830563545227,0.7227490544319153,-0.7471603155136108,0.9639443159103394,0.6637065410614014,0.710597038269043,-0.5070914626121521,0.9237169623374939,0.31664079427719116,0.7687589526176453,-0.825859010219574,0.926037073135376,0.6539484858512878,0.7126191854476929,-0.5932948589324951,0.9332937002182007,0.3411886692047119,0.7677362561225891,-0.9120258092880249,0.9331190586090088,0.6428877115249634,0.7035574913024902,-0.46774595975875854,0.9320639371871948,0.3443291187286377,0.7498418688774109,-0.7821817994117737,0.9348200559616089,0.5540679097175598,0.65946364402771,0.055047307163476944,0.997001588344574,0.3963187038898468,0.6785030961036682,-0.05463620275259018,0.9960355162620544,0.5561177134513855,0.8860321640968323,-0.011737847700715065,0.4275820851325989,0.4182130992412567,0.8887676000595093,-0.0836511179804802,0.40052756667137146,0.532362699508667,1.0445888042449951,0.4910869896411896,0.17854003608226776,0.4275335967540741,1.06242036819458,0.36190173029899597,0.19572758674621582,0.5260574817657471,1.0823601484298706,0.5225614309310913,0.2166886031627655,0.4258466362953186,1.0819134712219238,0.3898707926273346,0.13078802824020386,0.58835369348526,1.12138032913208,0.2514006495475769,0.16287748515605927,0.4631776511669159,1.1361889839172363,0.043712783604860306,0.17815744876861572
15009.79391492132,0.47682303190231323,0.2742607891559601,-1.0437886714935303,0.9999374151229858,0.48935431241989136,0.25363025069236755,-1.0030696392059326,0.9998441934585571,0.4993414878845215,0.25328823924064636,-1.0032602548599243,0.9998217225074768,0.5081547498703003,0.25316786766052246,-1.0034949779510498,0.9998006224632263,0.4575249254703522,0.2533186376094818,-1.0244165658950806,0.9998376369476318,0.44237470626831055,0.2526783347129822,-1.0246139764785767,0.9998387098312378,0.43025732040405273,0.2524590492248535,-1.024838924407959,0.999828577041626,0.5161817073822021,0.2601342797279358,-0.6839260458946228,0.999698281288147,0.39924293756484985,0.26127922534942627,-0.7924818992614746,0.9998660087585449,0.4911702573299408,0.29498234391212463,-0.9167476892471313,0.9999589920043945,0.45137766003608704,0.2942781150341034,-0.9475535750389099,0.9999680519104004,0.582807183265686,0.3823748826980591,-0.3942917287349701,0.9999097585678101,0.3078189790248871,0.38930612802505493,-0.6104925870895386,0.9999202489852905,0.6043838262557983,0.5377154350280762,-0.20355431735515594,0.9449456930160522,0.29933834075927734,0.5719545483589172,-0.5434485673904419,0.9915705919265747,0.6424159407615662,0.6663638353347778,-0.43181928992271423,0.9281960725784302,0.316692054271698,0.7257241010665894,-0.741366982460022,0.9545304179191589,0.6576036214828491,0.7082177996635437,-0.5090956091880798,0.8738385438919067,0.32276368141174316,0.7706520557403564,-0.8219837546348572,0.911784291267395,0.6511101722717285,0.7117586135864258,-0.5973670482635498,0.8871650695800781,0.34643760323524475,0.7692543864250183,-0.902955949306488,0.9187213182449341,0.6400630474090576,0.7011693120002747,-0.4728812277317047,0.8882124423980713,0.3487500846385956,0.7523729205131531,-0.7749075889587402,0.9198960065841675,0.5509090423583984,0.6648896336555481,0.04492026939988136,0.9965603947639465,0.391508013010025,0.6832458972930908,-0.044484011828899384,0.9955151677131653,0.554077684879303,0.8927217721939087,-0.04217764735221863,0.5008078217506409,0.41616910696029663,0.8931427597999573,-0.07952964305877686,0.45745158195495605,0.5342541337013245,1.061944603919983,0.4731273353099823,0.21406777203083038,0.4273330569267273,1.0675731897354126,0.3863690197467804,0.2296225130558014,0.5190932154655457,1.0863556861877441,0.5062018036842346,0.23336927592754364,0.4286511242389679,1.0864295959472656,0.41596439480781555,0.13786408305168152,0.5756031274795532,1.1291887760162354,0.2294834703207016,0.1910855770111084,0.45729386806488037,1.1442158222198486,0.06487440317869186,0.19800451397895813
15026.460581587986,0.47696956992149353,0.27543145418167114,-1.0592900514602661,0.9999383687973022,0.4893322288990021,0.25462841987609863,-1.0192979574203491,0.9998493194580078,0.49917691946029663,0.25423380732536316,-1.0194827318191528,0.9998260140419006,0.5080365538597107,0.25407302379608154,-1.0197190046310425,0.9998067021369934,0.45746973156929016,0.2544197142124176,-1.0409963130950928,0.9998451471328735,0.44225209951400757,0.25386616587638855,-1.0411971807479858,0.9998449087142944,0.430341511964798,0.25369685888290405,-1.0414268970489502,0.9998353719711304,0.5153005123138428,0.260712593793869,-0.6968388557434082,0.9997062087059021,0.3993723690509796,0.2622285783290863,-0.8071193099021912,0.9998725652694702,0.49135622382164,0.29607445001602173,-0.9301882982254028,0.9999594688415527,0.4515782296657562,0.2953823506832123,-0.961540162563324,0.9999688863754272,0.5830893516540527,0.3820408284664154,-0.401364803314209,0.9999099969863892,0.30719470977783203,0.38896575570106506,-0.6162640452384949,0.9999233484268188,0.604678750038147,0.538067638874054,-0.20526964962482452,0.9441171288490295,0.29841911792755127,0.5699423551559448,-0.5456241965293884,0.9916867613792419,0.6422251462936401,0.6665788888931274,-0.4313701093196869,0.9266477227210999,0.3170683979988098,0.7250298261642456,-0.7418452501296997,0.9534438848495483,0.6578055620193481,0.7085646390914917,-0.5083688497543335,0.8704718351364136,0.3225069046020508,0.7707710862159729,-0.8209275007247925,0.9093607068061829,0.6512252688407898,0.7121039628982544,-0.5970354676246643,0.8846471309661865,0.3469006419181824,0.7685990333557129,-0.9022653102874756,0.9167887568473816,0.6399124264717102,0.7011489868164062,-0.47243329882621765,0.8854954242706299,0.3496132493019104,0.7514599561691284,-0.7751368880271912,0.9176515340805054,0.5538519620895386,0.6648701429367065,0.043769001960754395,0.9962576627731323,0.39489829540252686,0.6835081577301025,-0.04333029314875603,0.9952789545059204,0.5569486021995544,0.894432544708252,-0.047572068870067596,0.4942392408847809,0.41756516695022583,0.8951408863067627,-0.0844343900680542,0.4526691138744354,0.5323404669761658,1.0496147871017456,0.47346559166908264,0.21248334646224976,0.42761528491973877,1.0698857307434082,0.3766931891441345,0.23299407958984375,0.5235467553138733,1.0881142616271973,0.5072087645530701,0.23953421413898468,0.4293913245201111,1.0890424251556396,0.4058030843734741,0.13940005004405975,0.5813486576080322,1.1296014785766602,0.2299281507730484,0.1913280338048935,0.45724791288375854,1.1460460424423218,0.05294530838727951,0.20029956102371216
