0,1,2,3,4,5,6,7,8,9,10
14212.665345840638,73.16856384277344,943.7530517578125,150.56365966796875,-46.63455581665039,-11.33176326751709,52.97356033325195,26.133628845214844,84.64433288574219,11162.2734375,65535.0
14212.665745849268,62.49566650390625,937.3527221679688,114.1815414428711,-42.44318771362305,-17.650976181030273,48.55373764038086,25.634857177734375,79.48129272460938,11142.4287109375,65535.0
14212.666145857898,62.61124038696289,930.52587890625,96.95484161376953,-53.37926483154297,-10.476869583129883,55.37118911743164,30.573688507080078,86.92012023925781,11123.8134765625,65535.0
14212.666545866527,61.74093246459961,927.2316284179688,90.64118957519531,-46.27986145019531,-11.335685729980469,57.316009521484375,29.30116844177246,84.4051742553711,11127.2509765625,65535.0
14212.666945875157,63.34830856323242,905.8091430664062,80.72129821777344,-65.61117553710938,-6.580211162567139,59.89118957519531,32.39091491699219,88.33003234863281,11113.3857421875,65535.0
14212.667345883787,68.04324340820312,896.007568359375,80.64128875732422,-84.82315826416016,-5.1006669998168945,65.36046600341797,35.76457214355469,91.19120788574219,11090.833984375,65535.0
14212.667745892417,77.52359771728516,886.5850219726562,76.36473846435547,-92.54664611816406,0.9859844446182251,72.44901275634766,41.400001525878906,96.23462677001953,11076.7255859375,65535.0
14212.668145901045,66.78707122802734,870.0989990234375,54.21982192993164,-95.91631317138672,-0.243403822183609,72.92256164550781,41.25126266479492,97.28890228271484,11065.5478515625,65535.0
14212.668545909675,88.12078094482422,870.6016845703125,48.28671646118164,-96.6416015625,12.758655548095703,88.50439453125,51.337867736816406,107.13947296142578,11064.6123046875,65535.0
14212.668945918305,111.89974975585938,864.2793579101562,30.71018409729004,-114.28067016601562,3.33432936668396,84.62812805175781,43.722469329833984,98.90111541748047,11058.3896484375,65535.0
14212.669345926935,110.1544189453125,856.0852661132812,28.640506744384766,-138.18368530273438,6.620968818664551,85.31537628173828,47.47979736328125,103.55402374267578,11048.34765625,65535.0
14212.669745935564,97.49104309082031,859.6519775390625,13.69085693359375,-140.39627075195312,13.615585327148438,96.0792236328125,54.33442306518555,113.25735473632812,11024.1513671875,65535.0
14212.670145944194,84.25340270996094,849.1427001953125,-0.04155907779932022,-155.9522705078125,5.255646705627441,90.85661315917969,46.94196701049805,102.04734802246094,11017.533203125,65535.0
14212.670545952824,99.28524017333984,840.3313598632812,5.554736614227295,-167.33460998535156,4.189918041229248,86.76602172851562,45.18793487548828,103.00059509277344,11030.2099609375,65535.0
14212.670945961454,121.48673248291016,830.029541015625,0.7144021391868591,-174.71896362304688,14.911233901977539,97.37655639648438,52.313533782958984,109.21453094482422,11015.0068359375,65535.0
14212.671345970082,110.30477905273438,812.5510864257812,-13.11740493774414,-184.7359619140625,2.977145195007324,88.26054382324219,40.86723709106445,100.57756042480469,10998.9423828125,65535.0
14212.671745978712,78.80244445800781,805.6155395507812,-20.786144256591797,-188.31610107421875,6.732697010040283,91.66763305664062,43.364013671875,105.37416076660156,10991.1708984375,65535.0
14212.672145987342,49.899417877197266,789.9788818359375,-28.88426971435547,-197.48464965820312,4.879016399383545,90.73542022705078,46.93659210205078,104.31048583984375,10975.0791015625,65535.0
14212.672545995973,12.487643241882324,787.2518310546875,-31.52509880065918,-207.29112243652344,2.546111583709717,90.580078125,43.14436340332031,101.35277557373047,10972.609375,65535.0
14212.6729460046,-8.292404174804688,798.0355834960938,-31.203065872192383,-210.1848602294922,0.47886571288108826,83.36259460449219,36.9969367980957,96.53462219238281,10962.5419921875,65535.0
14212.673346013231,-20.352407455444336,793.12451171875,-56.38077163696289,-220.70384216308594,-0.4197285771369934,83.56409454345703,40.70214080810547,97.41130065917969,10968.0517578125,65535.0
14212.673746021861,-37.920406341552734,790.1915893554688,-64.03540802001953,-236.4750213623047,-10.384343147277832,69.7021484375,31.171831130981445,87.1066665649414,10953.2060546875,65535.0
14212.674146030491,-49.9525146484375,787.9979248046875,-66.19088745117188,-247.9668426513672,-17.446744918823242,60.09754943847656,21.107452392578125,81.42615509033203,10941.8466796875,65535.0
14212.67454603912,-49.35200881958008,794.5076904296875,-60.10187530517578,-261.5292053222656,-14.375240325927734,61.0909309387207,22.09320640563965,84.52751922607422,10947.92578125,65535.0
14212.67494604775,-26.685842514038086,785.2379150390625,-66.57142639160156,-263.1223449707031,-12.937819480895996,63.37163543701172,28.057518005371094,84.75159454345703,10945.779296875,65535.0
14212.67534605638,-19.222820281982422,787.02099609375,-93.29959869384766,-283.3814697265625,-6.35072660446167,71.5321273803711,31.65384292602539,89.414306640625,10938.927734375,65535.0
14212.67574606501,-27.845672607421875,770.9386596679688,-108.31303405761719,-294.73931884765625,-8.831249237060547,67.95032501220703,29.33356475830078,88.07096099853516,10931.1123046875,65535.0
14212.676146073638,-16.609262466430664,766.681884765625,-112.03834533691406,-299.8628234863281,-11.102827072143555,63.641632080078125,27.11095428466797,86.75055694580078,10929.234375,65535.0
14212.676546082268,11.27405071258545,777.9876708984375,-121.50830078125,-314.6378173828125,-8.263591766357422,62.075714111328125,29.824201583862305,88.80008697509766,10922.61328125,65535.0
14212.676946090898,63.86738204956055,790.4384765625,-130.3480224609375,-329.4031982421875,-15.567316055297852,55.16385269165039,23.115095138549805,78.05619049072266,10910.3583984375,65535.0
14212.677346099528,113.48672485351562,770.3965454101562,-138.02413940429688,-337.4462890625,-21.68722915649414,46.16516876220703,15.95531940460205,72.0092544555664,10911.111328125,65535.0
14212.677746108156,170.94393920898438,762.8757934570312,-145.65609741210938,-339.66888427734375,-21.509023666381836,45.10741424560547,16.014177322387695,73.99028015136719,10918.568359375,65535.0
14212.678146116787,241.93386840820312,764.3589477539062,-131.68971252441406,-338.99810791015625,-15.852619171142578,52.47407531738281,24.10321617126465,80.10719299316406,10913.369140625,65535.0
14212.678546125417,319.4411926269531,766.2225952148438,-121.24658203125,-333.7032775878906,-21.085468292236328,46.6658821105957,16.95521354675293,76.87626647949219,10899.525390625,65535.0
14212.678946134045,381.6557922363281,768.8948364257812,-115.98693084716797,-342.4541320800781,-17.06990623474121,46.853519439697266,20.954750061035156,78.15576934814453,10889.6865234375,65535.0
14212.679346142675,421.1788024902344,767.3914794921875,-108.18909454345703,-336.5469055175781,-16.343517303466797,48.20177459716797,23.122169494628906,78.22367858886719,10896.8896484375,65535.0
14212.679746151305,458.7063293457031,762.311279296875,-113.65296173095703,-358.00421142578125,-23.791494369506836,40.574161529541016,18.041255950927734,76.44273376464844,10904.779296875,65535.0
14212.680146159935,464.2515869140625,745.1729125976562,-123.46587371826172,-379.063232421875,-18.70709991455078,44.3841552734375,22.559463500976562,77.65507507324219,10896.59765625,65535.0
14212.680546168565,439.7062683105469,741.629150390625,-143.07269287109375,-369.0816955566406,-19.552753448486328,39.910064697265625,15.360733985900879,76.40876770019531,10899.5673828125,65535.0
14212.680946177194,393.41278076171875,740.7821044921875,-171.7371368408203,-371.2984619140625,-28.462627410888672,32.37680435180664,11.524531364440918,68.56876373291016,10894.0322265625,65535.0
14212.681346185824,349.3565368652344,726.414306640625,-178.5623321533203,-360.7370300292969,-20.958593368530273,37.16386032104492,17.654253005981445,74.76364135742188,10892.6513671875,65535.0
14212.681746194454,332.8472595214844,715.2244262695312,-169.37362670898438,-357.6983337402344,-34.05347442626953,23.967945098876953,6.77109432220459,60.62089920043945,10886.7783203125,65535.0
14212.682146203082,297.8815612792969,702.4793090820312,-200.2327117919922,-348.3113708496094,-31.958425521850586,26.759735107421875,8.179509162902832,66.81697845458984,10892.2568359375,65535.0
14212.682546211712,291.99945068359375,687.5040283203125,-216.48025512695312,-354.2746887207031,-22.806501388549805,39.15320587158203,21.735551834106445,78.96971130371094,10885.2783203125,65535.0
14212.682946220342,251.01211547851562,683.68212890625,-209.36524963378906,-366.1214904785156,-16.95013999938965,43.6373405456543,22.049715042114258,77.16004943847656,10869.9990234375,65535.0
14212.683346228972,218.01211547851562,669.1668701171875,-200.08172607421875,-363.1770935058594,-21.46290397644043,37.32556915283203,15.748231887817383,74.35516357421875,10867.193359375,65535.0
14212.683746237602,174.5778045654297,666.367431640625,-213.89247131347656,-360.51873779296875,-26.713376998901367,31.032947540283203,11.540203094482422,69.28087615966797,10880.9814453125,65535.0
14212.68414624623,128.62161254882812,656.1392211914062,-246.484619140625,-363.1135559082031,-25.24740982055664,37.52836608886719,13.59032154083252,69.73883056640625,10871.642578125,65535.0
14212.68454625486,88.91761779785156,642.850341796875,-265.9759826660156,-360.8435363769531,-32.825660705566406,27.87113380432129,6.747918605804443,64.845947265625,10866.01953125,65535.0
14212.684946263491,61.7587890625,653.7675170898438,-258.1081237792969,-367.7521667480469,-24.398283004760742,33.28269958496094,15.788128852844238,71.4825210571289,10860.876953125,65535.0
14212.68534627212,42.3658561706543,655.97412109375,-240.56661987304688,-372.2301025390625,-24.774993896484375,39.14885711669922,16.295164108276367,71.2373275756836,10855.7109375,65535.0
14212.68574628075,-5.75856876373291,660.5130004882812,-251.0955352783203,-367.99560546875,-35.86585998535156,26.320423126220703,4.651094913482666,62.199703216552734,10848.8408203125,65535.0
14212.68614628938,-17.515785217285156,677.1268920898438,-254.04063415527344,-364.76837158203125,-24.513708114624023,36.85564041137695,13.843226432800293,71.61225891113281,10858.2197265625,65535.0
14212.68654629801,-15.636341094970703,693.9944458007812,-236.5944061279297,-366.0561828613281,-21.820789337158203,43.501914978027344,18.339847564697266,76.12664031982422,10874.671875,65535.0
14212.68694630664,-35.356014251708984,699.2158813476562,-232.74729919433594,-352.2711181640625,-24.375394821166992,44.78751754760742,16.132549285888672,74.30621337890625,10870.994140625,65535.0
14212.687346315268,-44.64684295654297,700.4611206054688,-235.8159637451172,-345.3938293457031,-26.586238861083984,45.52309799194336,15.990702629089355,72.1189956665039,10861.33984375,65535.0
14212.687746323898,-47.96071243286133,716.5286865234375,-239.15106201171875,-341.3052062988281,-26.879955291748047,43.74068069458008,11.694548606872559,68.39848327636719,10863.966796875,65535.0
14212.688146332528,-48.93979263305664,736.6331787109375,-226.19480895996094,-322.0388488769531,-26.38865852355957,43.03715133666992,11.549524307250977,68.19524383544922,10865.158203125,65535.0
14212.688546341156,-38.00334167480469,731.7760009765625,-180.18927001953125,-297.04888916015625,-23.806842803955078,49.603668212890625,18.20494270324707,76.04155731201172,10853.4541015625,65535.0
14212.688946349786,-8.311820030212402,746.54296875,-140.18084716796875,-290.8716125488281,-11.539814949035645,61.7945556640625,25.48560333251953,83.31843566894531,10856.455078125,65535.0
14212.689346358417,11.295342445373535,772.3699951171875,-118.89241027832031,-287.6952209472656,-6.917236804962158,67.5176010131836,32.30900955200195,89.67732238769531,10855.0791015625,65535.0
14212.689746367047,47.00046157836914,777.4320068359375,-103.79318237304688,-278.862060546875,-9.293722152709961,68.97197723388672,33.42744445800781,89.2443618774414,10841.98828125,65535.0
14212.690146375675,73.88236999511719,787.3858032226562,-74.17684936523438,-260.1172180175781,-7.873154640197754,71.88665008544922,33.74443435668945,89.25635528564453,10850.1787109375,65535.0
14212.690546384305,80.1710433959961,790.9947509765625,-60.45831298828125,-252.71067810058594,-10.051912307739258,71.61367797851562,31.269968032836914,88.02499389648438,10859.0576171875,65535.0
14212.690946392935,92.26192474365234,802.1502685546875,-51.07117462158203,-246.47622680664062,-6.140982151031494,74.71702575683594,33.53345489501953,92.05994415283203,10848.337890625,65535.0
14212.691346401565,104.5514907836914,799.3995361328125,-31.636886596679688,-228.3711700439453,-4.582443714141846,77.7572250366211,36.16754150390625,94.47400665283203,10847.08203125,65535.0
14212.691746410193,109.72238159179688,793.6066284179688,-29.78260040283203,-219.7891845703125,-3.113300323486328,78.64033508300781,37.7867431640625,95.07563018798828,10843.857421875,65535.0
14212.692146418824,102.92572784423828,808.3959350585938,-6.604488372802734,-205.86300659179688,4.5825276374816895,89.37760162353516,41.99833297729492,102.09613037109375,10835.9111328125,65535.0
14212.692546427454,102.94145965576172,789.8052978515625,7.773416042327881,-206.37982177734375,-5.637895107269287,75.16905212402344,32.97608184814453,91.01866912841797,10834.4208984375,65535.0
14212.692946436084,92.07978820800781,777.1798706054688,12.09676456451416,-203.8880157470703,-1.0859328508377075,78.27629852294922,36.45071792602539,95.36184692382812,10839.361328125,65535.0
14212.693346444712,78.21048736572266,768.3993530273438,33.30819320678711,-193.2277069091797,-4.51230525970459,76.7412338256836,32.57583999633789,92.84259033203125,10840.3525390625,65535.0
14212.693746453342,70.96882629394531,758.9481811523438,37.614742279052734,-190.02584838867188,-5.0421576499938965,72.18660736083984,31.127140045166016,92.32593536376953,10845.125,65535.0
14212.694146461972,57.52703857421875,738.3331909179688,31.76325035095215,-185.4356689453125,0.6237590312957764,82.33501434326172,39.382240295410156,100.16249084472656,10841.0712890625,65535.0
14212.694546470602,37.41286849975586,727.7811279296875,40.784515380859375,-159.52975463867188,-4.091569423675537,77.65571594238281,35.07825469970703,93.36117553710938,10837.1171875,65535.0
14212.69494647923,51.73493957519531,713.1701049804688,39.758277893066406,-149.14329528808594,-9.16474723815918,65.01563262939453,29.755090713500977,85.30437469482422,10837.9228515625,65535.0
14212.69534648786,93.34342956542969,698.9049072265625,50.9888916015625,-137.3992462158203,-4.606035232543945,70.36515045166016,34.06566619873047,92.9373550415039,10832.896484375,65535.0
14212.69574649649,111.66812896728516,684.8123779296875,56.85852813720703,-123.37586975097656,-3.1273083686828613,72.99555206298828,35.201839447021484,92.11875915527344,10828.34765625,65535.0
14212.69614650512,93.3637924194336,670.1956176757812,63.60268020629883,-113.79788970947266,-6.004569053649902,70.91895294189453,33.375572204589844,91.56255340576172,10822.0966796875,65535.0
14212.69654651375,56.59893798828125,646.369873046875,92.08161163330078,-102.94068145751953,-3.5447211265563965,74.377685546875,39.444515228271484,94.08316802978516,10826.490234375,65535.0
14212.69694652238,20.003019332885742,616.175537109375,87.84529876708984,-97.54669189453125,-13.166096687316895,60.32056427001953,28.89299201965332,84.3486328125,10842.76171875,65535.0
14212.69734653101,-26.54180145263672,598.6370239257812,75.66124725341797,-94.24232482910156,-19.222944259643555,51.27495574951172,20.575864791870117,79.9764633178711,10843.66796875,65535.0
14212.69774653964,-53.80305099487305,600.9295654296875,86.99727630615234,-75.0476303100586,-15.943778038024902,54.09641647338867,22.96640968322754,81.83649444580078,10826.7880859375,65535.0
14212.698146548268,-60.52009201049805,578.01708984375,90.96144104003906,-63.57920837402344,-18.477230072021484,49.105525970458984,18.991615295410156,76.87042236328125,10823.591796875,65535.0
14212.698546556898,-66.49578857421875,573.9066162109375,95.97343444824219,-63.01729202270508,-22.37801742553711,44.73192596435547,15.553041458129883,75.7158203125,10821.6650390625,65535.0
14212.698946565528,-57.773990631103516,580.0540161132812,102.80729675292969,-62.54805374145508,-23.87652587890625,41.92000198364258,16.221399307250977,75.87528991699219,10819.2666015625,65535.0
14212.699346574158,-52.12610626220703,585.0155029296875,124.60755157470703,-63.446739196777344,-16.666723251342773,47.53642272949219,22.87411880493164,80.94363403320312,10822.7421875,65535.0
14212.699746582786,-30.4320125579834,597.4638061523438,131.92942810058594,-62.991668701171875,-12.318604469299316,47.7726936340332,23.228290557861328,81.10258483886719,10808.7421875,65535.0
14212.700146591416,0.14250357449054718,606.7855834960938,134.89598083496094,-56.17794418334961,-16.94877052307129,49.38796615600586,25.56151580810547,81.82556915283203,10816.1728515625,65535.0
14212.700546600046,32.36530685424805,607.5296630859375,143.74215698242188,-48.55188751220703,-24.597455978393555,41.542816162109375,19.226327896118164,76.35716247558594,10829.7890625,65535.0
14212.700946608677,61.05445098876953,619.8831787109375,148.2127685546875,-46.63099670410156,-29.299156188964844,31.207416534423828,10.850520133972168,67.50741577148438,10828.525390625,65535.0
14212.701346617305,72.02400207519531,629.6971435546875,143.8796844482422,-45.07147979736328,-14.89242935180664,42.91382598876953,22.445383071899414,78.87604522705078,10819.8759765625,65535.0
14212.701746625935,60.917396545410156,643.8533325195312,154.1025848388672,-35.4194221496582,-11.925796508789062,45.91313934326172,27.424869537353516,82.80286407470703,10804.326171875,65535.0
14212.702146634565,49.79610824584961,658.032470703125,173.15869140625,-21.15372657775879,-15.390639305114746,47.54127502441406,25.51711082458496,82.38335418701172,10796.34765625,65535.0
14212.702546643195,35.95021057128906,675.1240844726562,186.60682678222656,-16.06308364868164,-15.120051383972168,48.98477554321289,25.80277442932129,83.70198822021484,10803.2138671875,65535.0
14212.702946651823,29.234891891479492,696.6432495117188,196.62303161621094,-15.725926399230957,-6.219820499420166,55.418006896972656,36.17123031616211,92.81029510498047,10802.09375,65535.0
14212.703346660453,43.46256637573242,706.98583984375,208.09616088867188,-9.04634952545166,-8.982418060302734,51.848514556884766,31.895492553710938,85.37105560302734,10805.138671875,65535.0
14212.703746669084,42.868350982666016,719.4450073242188,224.72119140625,4.98055362701416,-23.430160522460938,35.97721481323242,16.478755950927734,74.32923126220703,10787.7939453125,65535.0
14212.704146677714,40.76982116699219,733.969970703125,209.80300903320312,1.392138957977295,-19.91984748840332,41.79540252685547,21.385343551635742,79.88990020751953,10787.0078125,65535.0
14212.704546686342,60.344810485839844,733.8895874023438,177.75668334960938,2.6528234481811523,-18.406536102294922,46.59724044799805,23.938264846801758,80.45797729492188,10795.466796875,65535.0
14212.704946694972,58.06976318359375,757.2451171875,176.2322540283203,5.637751579284668,-20.34303855895996,40.68305587768555,20.58692169189453,77.1107406616211,10783.2255859375,65535.0
14212.705346703602,55.59757995605469,771.5919189453125,187.15911865234375,-0.23953650891780853,-16.262828826904297,42.693294525146484,19.630962371826172,77.7721939086914,10779.3916015625,65535.0
14212.705746712232,43.861473083496094,776.3617553710938,190.6177215576172,-4.480544090270996,-6.559850692749023,55.07573699951172,32.27553176879883,88.40171813964844,10798.6787109375,65535.0
14212.70614672086,33.58666229248047,792.3611450195312,191.64981079101562,-13.74202823638916,-13.907015800476074,56.47238540649414,29.199905395507812,85.67974853515625,10796.7529296875,65535.0
14212.70654672949,11.762145042419434,797.4492797851562,208.1125946044922,-20.62374496459961,-12.6358060836792,54.867347717285156,29.710391998291016,86.64937591552734,10783.892578125,65535.0
14212.70694673812,-32.579410552978516,818.1339721679688,219.0911407470703,-11.093792915344238,-13.449058532714844,50.08026123046875,26.147174835205078,84.33548736572266,10763.97265625,65535.0
14212.70734674675,-62.3280143737793,822.5314331054688,231.0010223388672,-3.940941095352173,-14.912898063659668,51.90576171875,24.66584587097168,83.19445037841797,10762.087890625,65535.0
14212.707746755379,-79.33048248291016,826.14111328125,248.67152404785156,1.5655148029327393,-8.577336311340332,63.181827545166016,32.977142333984375,89.96076965332031,10757.0302734375,65535.0
14212.70814676401,-77.99111938476562,844.6903686523438,241.44927978515625,3.163487672805786,-7.624734878540039,65.10201263427734,32.542869567871094,92.05642700195312,10751.1982421875,65535.0
14212.70854677264,-60.55546951293945,837.20947265625,231.99179077148438,7.781762599945068,-0.8370050191879272,70.41741943359375,34.23357009887695,93.74030303955078,10767.4521484375,65535.0
14212.70894678127,-26.7313175201416,841.9754638671875,240.92178344726562,9.374799728393555,2.9002044200897217,77.36735534667969,42.31391525268555,99.98556518554688,10757.166015625,65535.0
14212.709346789898,-20.647920608520508,853.8340454101562,255.45188903808594,10.427404403686523,0.543143630027771,78.31713104248047,42.49635696411133,97.89779663085938,10738.1025390625,65535.0
14212.709746798528,-4.857956886291504,860.2265625,245.36326599121094,6.929511070251465,2.362344741821289,82.0512924194336,42.94618225097656,98.81905364990234,10751.4990234375,65535.0
14212.710146807158,7.013301372528076,865.2801513671875,229.52313232421875,4.60503625869751,2.3841190338134766,79.44075012207031,41.038116455078125,96.39440155029297,10737.04296875,65535.0
14212.710546815788,-10.067535400390625,870.7664794921875,217.740966796875,8.015890121459961,4.316576957702637,85.6520004272461,43.01936340332031,101.230224609375,10732.6904296875,65535.0
14212.710946824416,-19.682504653930664,866.3909301757812,224.46446228027344,4.307000160217285,7.207520484924316,90.57076263427734,44.62646484375,103.43325805664062,10737.3779296875,65535.0
14212.711346833046,-24.552764892578125,870.0020141601562,214.0528106689453,7.695516109466553,2.029348850250244,83.13739013671875,42.60497283935547,99.75978088378906,10720.75,65535.0
14212.711746841676,-26.694976806640625,879.5719604492188,222.4462127685547,15.713561058044434,0.4902677536010742,80.80572509765625,38.970909118652344,95.74555206298828,10700.783203125,65535.0
14212.712146850306,-31.310026168823242,878.1689453125,221.90765380859375,10.568733215332031,3.4814672470092773,88.52294158935547,43.869998931884766,101.86359405517578,10702.994140625,65535.0
14212.712546858935,-52.79177474975586,874.4329833984375,193.6576690673828,5.3376970291137695,-1.7100656032562256,77.56793212890625,37.6159553527832,96.62644958496094,10717.466796875,65535.0
14212.712946867565,-57.04261779785156,871.3618774414062,167.7041015625,-3.3471407890319824,-3.620943546295166,77.69877624511719,36.27421188354492,94.84124755859375,10680.392578125,65535.0
14212.713346876195,-66.52688598632812,873.2089233398438,163.28892517089844,-14.186460494995117,-4.272869110107422,75.47533416748047,34.861793518066406,93.67294311523438,10671.130859375,65535.0
14212.713746884825,-51.38031768798828,885.5066528320312,166.03045654296875,-20.867008209228516,-6.602552890777588,70.75690460205078,35.05470275878906,88.83645629882812,10669.8515625,65535.0
14212.714146893453,-33.545955657958984,890.0658569335938,166.65504455566406,-32.98813247680664,-12.361991882324219,62.887725830078125,27.835357666015625,84.39390563964844,10660.1240234375,65535.0
14212.714546902083,-24.668502807617188,886.0737915039062,172.98658752441406,-31.30307388305664,2.0061042308807373,77.40353393554688,39.20806121826172,99.8975601196289,10656.3603515625,65535.0
14212.714946910713,-0.06063232198357582,887.0606079101562,185.23707580566406,-16.208457946777344,2.473637580871582,78.36965942382812,42.20392608642578,98.86605072021484,10643.2626953125,65535.0
14212.715346919344,0.7931527495384216,885.6784057617188,216.32081604003906,-5.2820916175842285,-12.195831298828125,61.74784851074219,29.225181579589844,85.76746368408203,10638.474609375,65535.0
14212.715746927972,32.604454040527344,880.5840454101562,218.4406280517578,-2.446665048599243,-2.6322569847106934,69.64542388916016,38.585594177246094,94.19452667236328,10627.181640625,65535.0
14212.716146936602,72.15299987792969,896.3427734375,211.53646850585938,-1.5592989921569824,9.187660217285156,84.72872161865234,49.861942291259766,106.59953308105469,10617.5029296875,65535.0
14212.716546945232,93.33419036865234,899.9987182617188,197.1507110595703,6.47078275680542,3.3948841094970703,79.36598205566406,43.24135208129883,98.8463363647461,10596.404296875,65535.0
14212.716946953862,101.4173583984375,897.0420532226562,207.19932556152344,2.344590902328491,-4.83171272277832,66.1093521118164,35.611576080322266,92.63674926757812,10600.9794921875,65535.0
14212.71734696249,80.86997985839844,899.6301879882812,221.04515075683594,0.3969895541667938,-9.19442081451416,58.418270111083984,30.37220573425293,86.30094146728516,10592.947265625,65535.0
14212.71774697112,32.07427978515625,896.3585205078125,217.4898681640625,3.717207908630371,-8.100637435913086,60.80633544921875,31.478303909301758,89.31939697265625,10581.736328125,65535.0
14212.71814697975,-5.532218933105469,903.8010864257812,202.94032287597656,5.238994121551514,-11.621543884277344,57.10579299926758,28.500442504882812,87.19573211669922,10577.9921875,65535.0
14212.71854698838,-29.890731811523438,898.3878784179688,184.7606201171875,16.963882446289062,-12.977856636047363,52.19623565673828,27.67386817932129,83.8096923828125,10571.171875,65535.0
14212.718946997009,-61.276878356933594,898.619873046875,188.36717224121094,19.272668838500977,-18.665462493896484,45.03286361694336,19.516847610473633,78.79461669921875,10546.931640625,65535.0
14212.719347005639,-75.03593444824219,901.5170288085938,190.3730010986328,32.81488037109375,-18.390241622924805,44.280433654785156,24.285999298095703,81.08462524414062,10520.875,65535.0
14212.71974701427,-73.96703338623047,902.3153686523438,207.99435424804688,44.43393325805664,-29.363662719726562,33.733333587646484,10.746602058410645,69.42754364013672,10521.8603515625,65535.0
14212.720147022897,-55.398990631103516,899.9973754882812,207.10958862304688,50.803436279296875,-24.106698989868164,35.06559371948242,15.063597679138184,74.89736938476562,10510.6611328125,65535.0
14212.720547031528,-53.29206848144531,894.8738403320312,186.3342742919922,60.88392639160156,-16.656606674194336,42.48051452636719,21.642282485961914,78.91497802734375,10482.1669921875,65535.0
14212.720947040158,-61.20225143432617,895.9931640625,176.58604431152344,69.03690338134766,-14.474428176879883,43.71580123901367,24.75636863708496,81.17828369140625,10468.8984375,65535.0
14212.721347048788,-71.95841979980469,891.9465942382812,181.9453582763672,61.54636001586914,-29.176254272460938,30.342971801757812,13.981654167175293,68.28730010986328,10444.92578125,65535.0
14212.721747057418,-89.30780029296875,895.9580078125,201.65806579589844,48.09074783325195,-35.61114501953125,23.974218368530273,7.040768623352051,63.478759765625,10430.8310546875,65535.0
14212.722147066046,-82.47569274902344,891.5892944335938,223.36500549316406,41.79856491088867,-23.79640769958496,32.85578918457031,15.9008150100708,69.76058197021484,10412.470703125,65535.0
14212.722547074676,-47.63649368286133,893.2968139648438,240.5153045654297,33.61005401611328,-28.23570442199707,34.27457809448242,14.232769012451172,73.12051391601562,10389.6435546875,65535.0
14212.722947083306,-15.071905136108398,896.5577392578125,239.03842163085938,35.87334060668945,-25.237415313720703,33.516151428222656,14.766684532165527,72.32122039794922,10373.646484375,65535.0
14212.723347091935,-9.579456329345703,890.71337890625,231.95263671875,43.726280212402344,-19.807666778564453,35.65684509277344,17.487417221069336,76.2083740234375,10363.984375,65535.0
14212.723747100565,3.6594297885894775,877.5103149414062,201.5530548095703,42.924072265625,-20.757246017456055,38.767372131347656,17.02250099182129,73.72323608398438,10347.2587890625,65535.0
14212.724147109195,24.928791046142578,878.7456665039062,197.70652770996094,32.95417785644531,-18.89432144165039,43.06386184692383,20.13187599182129,76.50706481933594,10334.505859375,65535.0
14212.724547117825,20.13290786743164,880.379150390625,186.5614776611328,29.705486297607422,-23.04002571105957,38.538211822509766,17.52876853942871,74.53614807128906,10302.619140625,65535.0
14212.724947126455,9.996454238891602,877.3944091796875,191.4614715576172,31.18248176574707,-21.170814514160156,36.69518280029297,18.249305725097656,75.3163833618164,10297.7958984375,65535.0
14212.725347135083,24.382802963256836,886.3914184570312,190.77413940429688,24.936216354370117,-14.154146194458008,49.005943298339844,25.39335823059082,82.25537109375,10271.4521484375,65535.0
14212.725747143713,39.68610382080078,883.0842895507812,197.63345336914062,7.902205944061279,-20.615732192993164,44.380794525146484,18.130075454711914,74.73480224609375,10246.3271484375,65535.0
14212.726147152343,61.42329788208008,873.3714599609375,211.57321166992188,7.242711544036865,-6.045352935791016,59.33012390136719,32.16260528564453,91.54319763183594,10233.9833984375,65535.0
14212.726547160972,75.47864532470703,887.7183837890625,224.23251342773438,15.481157302856445,-14.99127197265625,55.22731399536133,27.209285736083984,83.9711685180664,10198.26171875,65535.0
14212.726947169602,100.53739166259766,884.6463012695312,226.82154846191406,10.649407386779785,-8.396952629089355,58.592491149902344,29.694625854492188,87.85333251953125,10188.32421875,65535.0
14212.727347178232,137.73951721191406,878.1602783203125,226.9474334716797,9.532805442810059,-1.7200652360916138,68.56404876708984,37.14362716674805,93.44296264648438,10172.8427734375,65535.0
14212.727747186862,148.74014282226562,883.7474365234375,219.00192260742188,9.890835762023926,-8.087905883789062,65.3934555053711,34.43757629394531,89.07585906982422,10146.9873046875,65535.0
14212.728147195492,140.6598663330078,889.4842529296875,219.2322540283203,6.860114574432373,-5.931643962860107,68.10004425048828,32.79156494140625,95.01288604736328,10120.73046875,65535.0
14212.72854720412,152.40264892578125,885.1358032226562,214.18287658691406,-16.580284118652344,-7.11430549621582,66.37981414794922,30.51178550720215,90.26190948486328,10097.5478515625,65535.0
14212.72894721275,158.76368713378906,888.4041748046875,215.29769897460938,-20.266983032226562,-3.1708645820617676,71.7022476196289,34.74085235595703,90.1907958984375,10067.4482421875,65535.0
14212.72934722138,134.44119262695312,884.0654907226562,225.47100830078125,-32.02763748168945,-8.464926719665527,69.58647918701172,33.99517059326172,89.8500747680664,10040.9853515625,65535.0
14212.729747230009,124.54554748535156,885.9719848632812,231.54327392578125,-43.6979866027832,-3.126206398010254,73.54747772216797,37.356136322021484,95.49079895019531,10020.0673828125,65535.0
14212.730147238639,85.5422134399414,882.7788696289062,217.0045166015625,-58.16573715209961,-3.7062199115753174,74.68688201904297,36.08634948730469,94.91266632080078,10004.947265625,65535.0
14212.730547247269,30.679229736328125,884.3998413085938,199.205322265625,-57.51093292236328,-15.589447975158691,63.89891815185547,28.395954132080078,84.1827621459961,9973.1015625,65535.0
14212.730947255899,13.282083511352539,886.7329711914062,203.83030700683594,-44.31613540649414,0.6531825065612793,79.98158264160156,39.29295349121094,97.3971939086914,9941.5380859375,65535.0
14212.731347264527,29.107318878173828,886.1495971679688,225.31793212890625,-28.0303897857666,0.03437269479036331,83.0034408569336,38.95333480834961,97.81466674804688,9919.685546875,65535.0
14212.731747273157,48.243778228759766,889.3181762695312,242.89697265625,-15.741277694702148,5.839813709259033,87.20110321044922,45.074588775634766,102.40724182128906,9894.736328125,65535.0
14212.732147281788,81.25857543945312,898.17431640625,250.82069396972656,-12.627222061157227,8.638195991516113,90.11009979248047,46.017906188964844,102.27870178222656,9876.9619140625,65535.0
14212.732547290418,111.87159729003906,899.3428344726562,240.11550903320312,-15.883691787719727,-1.7278729677200317,80.75127410888672,39.132198333740234,96.32215118408203,9854.443359375,65535.0
14212.732947299046,174.8895263671875,894.0847778320312,214.0897979736328,-14.769292831420898,0.2651181221008301,79.6838150024414,38.63158416748047,95.38818359375,9814.2548828125,65535.0
14212.733347307676,222.8922576904297,897.1864013671875,213.23928833007812,-9.868409156799316,3.615000009536743,86.50102233886719,46.54304885864258,100.91297149658203,9783.8505859375,65535.0
14212.733747316306,253.88804626464844,898.4782104492188,228.79953002929688,-16.321453094482422,-2.4667158126831055,78.45379638671875,36.66459274291992,93.02852630615234,9749.982421875,65535.0
14212.734147324936,264.07354736328125,898.32080078125,234.83612060546875,-11.693770408630371,2.048616409301758,81.2140121459961,39.39073181152344,96.75923919677734,9721.7412109375,65535.0
14212.734547333564,251.90000915527344,900.4290161132812,234.70050048828125,-7.055273532867432,-3.0263595581054688,77.9894027709961,36.50923156738281,95.96394348144531,9680.5390625,65535.0
14212.734947342195,226.6385498046875,908.1715087890625,229.1861114501953,3.964085340499878,0.798768162727356,79.83368682861328,36.89209747314453,95.88975524902344,9665.828125,65535.0
14212.735347350825,188.4671173095703,911.6278076171875,221.40635681152344,15.636966705322266,3.1501660346984863,82.0289535522461,39.98824691772461,102.50767517089844,9636.5966796875,65535.0
14212.735747359455,141.40618896484375,907.0867919921875,213.3305206298828,33.85071563720703,-3.4736878871917725,73.6078872680664,36.38864517211914,92.38285827636719,9595.5966796875,65535.0
14212.736147368083,106.14839935302734,913.2656860351562,198.0159454345703,36.613739013671875,1.4214117527008057,74.35302734375,38.62325668334961,96.52729034423828,9569.498046875,65535.0
14212.736547376713,82.93976593017578,912.7178344726562,213.3134307861328,32.51044464111328,0.518632709980011,77.53899383544922,40.39849090576172,97.1075210571289,9543.744140625,65535.0
14212.736947385343,100.56656646728516,904.4691772460938,225.5885467529297,38.37528991699219,1.511271357536316,74.47039031982422,38.52018356323242,96.56272888183594,9512.9384765625,65535.0
14212.737347393973,98.01409149169922,909.3775024414062,225.87704467773438,22.802282333374023,-5.921817302703857,64.44157409667969,32.63568115234375,88.67301940917969,9492.017578125,65535.0
14212.737747402602,93.45780944824219,907.9476928710938,229.43319702148438,18.461498260498047,1.3343154191970825,71.7328109741211,40.97019577026367,97.45391082763672,9442.603515625,65535.0
14212.738147411232,98.15152740478516,907.504150390625,236.42433166503906,12.13231086730957,-4.208571910858154,68.91289520263672,36.02962875366211,93.67023468017578,9413.8720703125,65535.0
14212.738547419862,90.80218505859375,911.330322265625,232.70028686523438,21.304325103759766,-7.276817321777344,59.93629837036133,31.09010887145996,87.9994125366211,9375.76953125,65535.0
14212.738947428492,71.31974792480469,914.5146484375,218.93753051757812,16.854604721069336,-13.416807174682617,53.14524459838867,26.952972412109375,85.78430938720703,9334.83984375,65535.0
14212.73934743712,83.1757583618164,912.0658569335938,220.86830139160156,19.678571701049805,-17.19438934326172,48.82032012939453,22.180431365966797,80.50079345703125,9295.3837890625,65535.0
14212.73974744575,94.12190246582031,908.9070434570312,214.38497924804688,36.91708755493164,-9.50649356842041,55.59184265136719,30.238874435424805,88.59363555908203,9264.0224609375,65535.0
14212.74014745438,88.40240478515625,908.9281616210938,212.18341064453125,31.198450088500977,-5.391515254974365,57.15885925292969,32.831844329833984,89.60261535644531,9248.611328125,65535.0
14212.74054746301,101.11406707763672,899.686767578125,222.8894805908203,40.18178939819336,-19.50514793395996,42.57854080200195,19.272621154785156,76.30850219726562,9199.259765625,65535.0
14212.740947471639,109.22138977050781,897.72216796875,237.28701782226562,50.68330001831055,-18.276893615722656,44.410125732421875,20.04749298095703,78.7169189453125,9148.4208984375,65535.0
14212.741347480269,97.28970336914062,906.2877197265625,228.002685546875,47.03732681274414,-14.226725578308105,48.960975646972656,24.629690170288086,83.21818542480469,9126.3564453125,65535.0
14212.741747488899,76.81945037841797,906.334228515625,215.0768280029297,38.089698791503906,-14.006364822387695,51.1314697265625,24.133468627929688,83.98108673095703,9089.3935546875,65535.0
14212.742147497529,74.76531219482422,901.018798828125,197.24075317382812,19.967866897583008,-14.230645179748535,49.33572006225586,27.45836067199707,83.37835693359375,9055.970703125,65535.0
14212.742547506157,52.690162658691406,898.7948608398438,202.55332946777344,19.013208389282227,-16.673593521118164,46.78787612915039,23.87044906616211,81.45026397705078,9023.8095703125,65535.0
14212.742947514787,4.034134387969971,898.0941162109375,197.48915100097656,17.78762435913086,-19.489953994750977,42.89069747924805,18.32227897644043,76.07441711425781,8994.251953125,65535.0
14212.743347523417,-30.647565841674805,886.6781616210938,190.2600860595703,21.139623641967773,-18.942951202392578,42.456424713134766,17.9646053314209,78.05697631835938,8948.416015625,65535.0
14212.743747532048,-48.638427734375,888.248779296875,207.7928466796875,37.79949188232422,-14.584891319274902,47.74517822265625,23.858463287353516,84.40007019042969,8910.666015625,65535.0
14212.744147540676,-44.3979606628418,892.3713989257812,222.4867706298828,57.0040283203125,-15.399619102478027,47.95756149291992,23.742830276489258,82.12755584716797,8882.7666015625,65535.0
14212.744547549306,-50.942562103271484,893.7797241210938,225.5627899169922,63.39092254638672,-16.328516006469727,47.7296028137207,20.46101951599121,79.11549377441406,8824.2509765625,65535.0
14212.744947557936,-59.467994689941406,893.618896484375,236.26666259765625,57.84192657470703,-20.342702865600586,44.42313003540039,18.92625617980957,76.0233383178711,8766.259765625,65535.0
14212.745347566566,-54.73978042602539,890.9183959960938,240.31871032714844,44.59174728393555,-19.91444969177246,45.36643981933594,19.55533790588379,77.0943603515625,8752.384765625,65535.0
14212.745747575194,-47.026878356933594,899.9909057617188,238.56031799316406,41.91573715209961,-11.588935852050781,51.83837127685547,25.895326614379883,82.0544204711914,8719.1650390625,65535.0
14212.746147583824,-45.16621398925781,893.1074829101562,237.25021362304688,24.36910629272461,-17.233501434326172,51.045135498046875,21.62871742248535,79.1301040649414,8680.1513671875,65535.0
14212.746547592455,-55.19322967529297,896.9185791015625,238.1112518310547,24.111454010009766,-12.711530685424805,59.31312561035156,29.166601181030273,85.5341567993164,8647.3154296875,65535.0
14212.746947601085,-65.2977523803711,895.6458740234375,238.4030303955078,36.13220977783203,-14.350080490112305,54.61626434326172,25.642826080322266,81.07500457763672,8610.14453125,65535.0
14212.747347609713,-74.60124969482422,892.3920288085938,229.9404754638672,32.08174133300781,-8.72956657409668,61.71091079711914,29.359771728515625,86.32908630371094,8564.396484375,65535.0
14212.747747618343,-82.97344207763672,896.9381713867188,229.18409729003906,24.777748107910156,-12.89398193359375,59.48060607910156,25.02264404296875,81.61341094970703,8519.9638671875,65535.0
14212.748147626973,-74.80335998535156,898.1105346679688,224.07723999023438,27.440628051757812,-9.254348754882812,63.15404510498047,28.600252151489258,85.2492904663086,8491.3984375,65535.0
14212.748547635603,-64.55355834960938,891.333984375,219.610595703125,19.70846176147461,-10.79764461517334,65.6236343383789,28.46150779724121,85.23785400390625,8445.79296875,65535.0
14212.748947644232,-54.91546630859375,898.7987670898438,211.9895782470703,27.37047576904297,-19.878917694091797,56.02791213989258,20.051713943481445,77.60077667236328,8418.302734375,65535.0
14212.749347652862,-52.6646842956543,896.7659301757812,205.63369750976562,27.03326416015625,-9.42884349822998,67.95893096923828,27.5369815826416,87.21698760986328,8378.15234375,65535.0
14212.749747661492,-83.44532012939453,895.98388671875,197.26300048828125,29.410974502563477,0.25939756631851196,82.03850555419922,40.06950759887695,96.09354400634766,8336.556640625,65535.0
14212.750147670122,-94.07018280029297,890.47998046875,190.07980346679688,22.1707763671875,-10.046318054199219,73.47936248779297,33.416622161865234,91.8719253540039,8283.9150390625,65535.0
14212.75054767875,-96.50642395019531,888.4239501953125,198.16543579101562,15.881875991821289,-10.375934600830078,70.08628845214844,29.119539260864258,86.49261474609375,8262.8828125,65535.0
14212.75094768738,-92.30369567871094,895.4236450195312,194.34738159179688,-8.37911605834961,-11.406037330627441,70.23167419433594,30.012582778930664,86.72825622558594,8230.423828125,65535.0
14212.75134769601,-80.99394226074219,900.67041015625,182.25152587890625,-16.855470657348633,-8.232462882995605,75.7564926147461,31.67525863647461,88.72180938720703,8182.982421875,65535.0
14212.75174770464,-65.87759399414062,906.3775634765625,176.5247802734375,-26.058488845825195,0.6298918128013611,83.33247375488281,39.86386489868164,98.13199615478516,8158.8720703125,65535.0
14212.752147713269,-42.221290588378906,908.7965698242188,190.38319396972656,-37.632781982421875,-4.385549545288086,75.05066680908203,32.001895904541016,88.97084045410156,8134.14306640625,65535.0
14212.752547721899,-18.93354034423828,907.3390502929688,193.41378784179688,-45.131935119628906,2.3131158351898193,85.82683563232422,40.029361724853516,97.85416412353516,8088.3173828125,65535.0
14212.752947730529,7.639179706573486,908.76513671875,189.64041137695312,-67.41441345214844,-6.600984573364258,74.9172592163086,34.25343704223633,88.3984603881836,8042.1015625,65535.0
14212.753347739159,42.74258804321289,898.8334350585938,203.51739501953125,-74.90238952636719,-7.703873157501221,74.64495086669922,32.118263244628906,89.82977294921875,8008.86865234375,65535.0
14212.753747747787,86.09112548828125,908.0802612304688,209.91725158691406,-82.19728088378906,-9.34360408782959,73.49043273925781,32.980106353759766,89.18122100830078,7973.76123046875,65535.0
14212.754147756417,112.5058364868164,914.5562133789062,193.35243225097656,-92.46392822265625,-8.166080474853516,71.17484283447266,31.382835388183594,88.5240478515625,7943.81591796875,65535.0
14212.754547765047,110.37870788574219,903.9978637695312,195.4541778564453,-90.48435974121094,-5.98728084564209,70.07854461669922,32.171295166015625,90.88157653808594,7901.6923828125,65535.0
14212.754947773677,102.79656982421875,906.9746704101562,225.5039825439453,-89.57905578613281,-8.361420631408691,70.24748992919922,32.490116119384766,91.59745788574219,7871.478515625,65535.0
14212.755347782306,99.29094696044922,901.8545532226562,229.8882293701172,-85.04771423339844,-6.640364170074463,69.2342300415039,29.2789249420166,90.8744888305664,7841.66064453125,65535.0
14212.755747790936,78.39142608642578,903.7445678710938,225.00367736816406,-87.41336059570312,-8.9067964553833,65.56316375732422,27.965539932250977,84.99776458740234,7793.05224609375,65535.0
14212.756147799566,68.2446060180664,904.1840209960938,201.04493713378906,-82.07563781738281,-12.775835037231445,63.17808532714844,26.376468658447266,86.74881744384766,7778.537109375,65535.0
14212.756547808196,77.76190185546875,910.5477905273438,184.74522399902344,-67.96112060546875,-15.84535026550293,56.773189544677734,25.61362075805664,80.76830291748047,7756.2529296875,65535.0
14212.756947816824,89.2597427368164,917.5407104492188,199.28424072265625,-67.73697662353516,-19.422832489013672,49.04686737060547,17.51895523071289,76.2561264038086,7705.33740234375,65535.0
14212.757347825454,89.31221008300781,912.2529296875,190.3932342529297,-74.44552612304688,-12.203537940979004,60.811153411865234,29.718069076538086,87.42544555664062,7686.06689453125,65535.0
14212.757747834085,106.42538452148438,905.2828369140625,202.97947692871094,-73.83772277832031,-8.547643661499023,64.63841247558594,31.37224006652832,90.21656799316406,7642.47119140625,65535.0
14212.758147842715,125.57391357421875,916.439453125,252.75680541992188,-68.41036224365234,-7.694210529327393,63.636436462402344,31.590269088745117,88.6437759399414,7609.330078125,65535.0
14212.758547851343,122.87322235107422,901.5347900390625,251.95089721679688,-70.38146209716797,-5.951271057128906,63.70619201660156,31.42584991455078,90.3118667602539,7590.6826171875,65535.0
14212.758947859973,137.14251708984375,897.6408081054688,237.1491241455078,-62.5158576965332,-13.622539520263672,54.549312591552734,25.193002700805664,84.18998718261719,7548.43896484375,65535.0
14212.759347868603,153.14645385742188,901.7982788085938,229.32110595703125,-61.93839645385742,-13.07756233215332,53.441429138183594,28.798748016357422,85.65141296386719,7523.4326171875,65535.0
14212.759747877233,171.14125061035156,903.869140625,222.2652130126953,-69.69862365722656,-14.085070610046387,55.03533935546875,26.771400451660156,84.19956970214844,7502.767578125,65535.0
14212.760147885861,188.05819702148438,913.7152709960938,237.62896728515625,-61.92816925048828,-20.34581756591797,44.05918502807617,18.333972930908203,74.79022216796875,7479.0224609375,65535.0
14212.760547894492,196.3498077392578,902.03857421875,236.2729949951172,-54.24858093261719,-17.562223434448242,44.40452194213867,21.880441665649414,81.34420776367188,7448.75,65535.0
14212.760947903122,178.4282684326172,902.5228271484375,215.3927764892578,-45.7646369934082,-28.07431411743164,32.36201477050781,11.963367462158203,69.90785217285156,7411.8427734375,65535.0
14212.761347911752,155.70584106445312,896.8501586914062,200.6845703125,-32.917808532714844,-34.211143493652344,23.787412643432617,2.3449788093566895,62.13865280151367,7382.02587890625,65535.0
14212.76174792038,134.4063262939453,898.1455688476562,198.79966735839844,-22.70864486694336,-22.413532257080078,35.34459686279297,16.39645004272461,74.32550811767578,7359.0224609375,65535.0
14212.76214792901,111.22590637207031,899.0964965820312,197.71267700195312,-20.099365234375,-23.70690155029297,39.1606559753418,18.5628719329834,73.90535736083984,7339.169921875,65535.0
14212.76254793764,113.71516418457031,897.6060791015625,185.18980407714844,-27.37904930114746,-27.521564483642578,36.23859405517578,11.573349952697754,69.78448486328125,7308.087890625,65535.0
14212.76294794627,96.44046020507812,897.6503295898438,168.55445861816406,-34.45076370239258,-21.07904624938965,35.74700927734375,13.92618179321289,71.74701690673828,7289.89013671875,65535.0
14212.763347954899,90.97148132324219,896.3660278320312,142.1070098876953,-27.725698471069336,-20.68705177307129,36.37614059448242,18.834884643554688,74.01380920410156,7271.5927734375,65535.0
14212.763747963529,75.97673797607422,901.5985107421875,138.36802673339844,-31.58690643310547,-18.628307342529297,44.31370544433594,20.26285171508789,78.13402557373047,7249.7314453125,65535.0
14212.764147972159,68.88814544677734,903.0198974609375,156.32125854492188,-23.67627716064453,-31.72358512878418,31.840564727783203,9.712872505187988,66.71570587158203,7220.0068359375,65535.0
14212.764547980787,50.87151336669922,905.8277587890625,163.5923614501953,-18.445253372192383,-19.60559844970703,41.003997802734375,18.7695255279541,77.40968322753906,7195.62890625,65535.0
14212.764947989417,21.128814697265625,909.697509765625,149.31520080566406,-11.975529670715332,-10.76429557800293,51.44847869873047,26.93328094482422,85.18820190429688,7169.61376953125,65535.0
14212.765347998047,-2.5964717864990234,906.3668823242188,134.4238739013672,-14.66347885131836,-11.520511627197266,52.284664154052734,28.310222625732422,83.54065704345703,7159.21484375,65535.0
14212.765748006677,-9.34776782989502,895.5441284179688,147.0825958251953,-10.639399528503418,-14.651996612548828,53.426124572753906,24.222570419311523,80.95008850097656,7145.1181640625,65535.0
14212.766148015307,-14.198296546936035,905.861572265625,178.2507781982422,-3.8749427795410156,-18.74064826965332,42.440528869628906,19.09135627746582,76.23242950439453,7116.60888671875,65535.0
14212.766548023936,-30.572643280029297,906.9486694335938,184.88856506347656,4.576828956604004,-11.574140548706055,56.47411346435547,30.824995040893555,87.77108001708984,7108.3515625,65535.0
14212.766948032566,-46.591522216796875,905.8701171875,171.38194274902344,-5.307730197906494,-17.38433837890625,51.274925231933594,20.065162658691406,79.62503814697266,7083.5556640625,65535.0
14212.767348041196,-65.67691040039062,905.5106811523438,163.69387817382812,-13.382028579711914,-18.27264404296875,49.521705627441406,21.436662673950195,74.83943939208984,7054.1875,65535.0
14212.767748049824,-73.57366943359375,906.5827026367188,157.73765563964844,-18.4559268951416,-16.69165802001953,56.02372360229492,22.533050537109375,80.3919906616211,7043.58447265625,65535.0
14212.768148058454,-78.75756072998047,902.0407104492188,154.89735412597656,-18.241741180419922,-8.685893058776855,64.43389129638672,27.27080535888672,86.01580047607422,7019.4462890625,65535.0
14212.768548067084,-101.0105209350586,907.4686889648438,163.77857971191406,-7.2334489822387695,-9.026468276977539,64.51274871826172,29.551931381225586,86.92997741699219,7011.587890625,65535.0
14212.768948075714,-112.53816986083984,911.3201293945312,149.26390075683594,-2.7433323860168457,-2.744730234146118,71.3098373413086,36.358463287353516,95.82777404785156,6987.6201171875,65535.0
14212.769348084345,-119.95897674560547,900.99755859375,159.27435302734375,15.533647537231445,0.6965339183807373,75.64137268066406,40.31767272949219,95.64362335205078,6974.8076171875,65535.0
14212.769748092973,-111.1867904663086,898.8758544921875,185.2940216064453,21.546937942504883,-7.628827095031738,68.8473129272461,31.132047653198242,88.94116973876953,6951.14111328125,65535.0
14212.770148101603,-81.92790985107422,905.0223388671875,217.9626922607422,11.289938926696777,-6.737436771392822,70.18956756591797,31.349376678466797,92.34808349609375,6942.208984375,65535.0
14212.770548110233,-73.14927673339844,908.7747802734375,246.76760864257812,13.666939735412598,-9.798493385314941,67.7529525756836,30.874021530151367,86.8166275024414,6930.8056640625,65535.0
14212.770948118861,-62.44550323486328,907.255615234375,254.2400360107422,25.470043182373047,-2.149355888366699,74.14673614501953,37.1066780090332,91.98998260498047,6915.634765625,65535.0
14212.771348127491,-30.17252540588379,910.5032958984375,252.7315673828125,11.938440322875977,-3.623652219772339,75.69336700439453,36.405303955078125,90.86087036132812,6907.16162109375,65535.0
14212.771748136121,-14.676051139831543,908.6089477539062,207.48147583007812,8.014557838439941,-4.713069915771484,71.94353485107422,33.30148696899414,91.677978515625,6879.88818359375,65535.0
14212.772148144752,-1.7635201215744019,911.710693359375,179.44277954101562,2.279327154159546,6.443984031677246,85.61882781982422,46.35325622558594,105.5416259765625,6857.396484375,65535.0
14212.772548153382,-9.174893379211426,915.6276245117188,185.19139099121094,7.019073009490967,4.326225280761719,84.11045837402344,42.86739730834961,100.7887954711914,6843.7041015625,65535.0
14212.77294816201,-11.406726837158203,908.8443603515625,189.15476989746094,22.90789794921875,-2.250478982925415,81.49252319335938,33.82540512084961,94.21435546875,6831.44287109375,65535.0
14212.77334817064,-21.242521286010742,908.2977905273438,207.74624633789062,16.112001419067383,-2.4635589122772217,75.5287094116211,35.04542922973633,91.93144989013672,6826.91162109375,65535.0
14212.77374817927,-23.45857048034668,902.0753173828125,220.57420349121094,6.214514255523682,-1.4830305576324463,74.5400390625,36.01662826538086,94.30343627929688,6822.4462890625,65535.0
14212.774148187898,-36.10657501220703,904.484375,209.40162658691406,-5.477987766265869,-2.4617223739624023,74.41009521484375,38.6912956237793,95.73442840576172,6800.92041015625,65535.0
14212.774548196528,-45.47695541381836,899.9392700195312,201.424072265625,-7.091700077056885,-18.04993438720703,59.776092529296875,23.160913467407227,78.51074981689453,6786.9912109375,65535.0
14212.774948205159,-50.01390075683594,903.2160034179688,212.4029998779297,-17.863542556762695,-18.063003540039062,55.745304107666016,20.968196868896484,79.8829116821289,6766.98681640625,65535.0
14212.775348213789,-66.84054565429688,904.1688232421875,210.67466735839844,-22.104372024536133,-14.25997257232666,55.83279800415039,25.325761795043945,80.28177642822266,6749.64501953125,65535.0
14212.775748222417,-104.27299499511719,909.3665161132812,213.84915161132812,-18.92452049255371,-13.874456405639648,61.378299713134766,26.50758934020996,83.7713623046875,6752.28662109375,65535.0
14212.776148231047,-132.1580810546875,904.0333251953125,215.65411376953125,-23.829280853271484,-17.0765323638916,57.41343688964844,24.051992416381836,81.28893280029297,6744.091796875,65535.0
14212.776548239677,-155.04481506347656,903.9505004882812,213.09552001953125,-26.38389015197754,-18.45905113220215,49.54414749145508,19.22139549255371,77.4363021850586,6735.6962890625,65535.0
14212.776948248307,-162.04104614257812,914.786865234375,213.82920837402344,-26.777605056762695,-16.49260902404785,49.30031967163086,20.012836456298828,75.55310821533203,6725.18798828125,65535.0
14212.777348256936,-161.70677185058594,909.130615234375,234.3701171875,-37.369407653808594,-19.661527633666992,47.72779846191406,19.84221076965332,74.31939697265625,6702.7392578125,65535.0
14212.777748265566,-149.0829315185547,915.534912109375,254.80575561523438,-56.78811264038086,-22.550981521606445,46.040260314941406,21.10613441467285,76.68263244628906,6700.7802734375,65535.0
14212.778148274196,-110.8088607788086,911.156982421875,254.1652069091797,-72.56611633300781,-18.510623931884766,46.80080795288086,19.845216751098633,79.32536315917969,6679.5078125,65535.0
14212.778548282826,-110.5763931274414,907.8885498046875,243.7158966064453,-71.1512680053711,-18.553184509277344,45.72074890136719,20.491107940673828,79.6883316040039,6661.18701171875,65535.0
14212.778948291454,-115.8062973022461,913.1254272460938,236.46136474609375,-64.67754364013672,-23.302770614624023,40.55125045776367,16.88544464111328,71.36817169189453,6645.6279296875,65535.0
14212.779348300084,-134.0512237548828,896.7000732421875,236.4694366455078,-75.87250518798828,-18.307950973510742,46.77161407470703,20.894006729125977,80.06980895996094,6638.65234375,65535.0
14212.779748308714,-159.8671875,894.8035888671875,243.74456787109375,-74.16146850585938,-30.823837280273438,33.48016357421875,11.494338989257812,66.81671142578125,6619.59765625,65535.0
14212.780148317344,-144.0767822265625,903.0201416015625,243.6576385498047,-64.10443878173828,-23.820098876953125,33.36507034301758,15.622387886047363,71.71757507324219,6618.36962890625,65535.0
14212.780548325973,-128.18511962890625,903.9707641601562,232.67515563964844,-68.08374786376953,-25.557924270629883,38.39319610595703,18.09714126586914,73.9523696899414,6609.2236328125,65535.0
14212.780948334603,-103.50499725341797,900.2139892578125,220.1564178466797,-59.678802490234375,-20.517379760742188,39.60506820678711,18.68142318725586,75.53839874267578,6575.96435546875,65535.0
14212.781348343233,-97.88218688964844,898.9857177734375,205.1415557861328,-39.23298263549805,-23.395992279052734,35.74920654296875,17.4576416015625,73.23570251464844,6583.40478515625,65535.0
14212.781748351863,-104.26612854003906,897.1441040039062,182.71249389648438,-32.59650421142578,-24.049625396728516,32.32572555541992,15.273419380187988,69.82038116455078,6573.1669921875,65535.0
14212.782148360491,-116.18865203857422,901.452392578125,195.5183563232422,-32.12224578857422,-32.737003326416016,22.127655029296875,6.4852824211120605,62.99293518066406,6523.03515625,65535.0
14212.782548369121,-138.75592041015625,898.704345703125,197.78689575195312,-34.71038818359375,-28.066675186157227,29.196022033691406,13.847311973571777,70.4135971069336,6519.30078125,65535.0
14212.782948377751,-156.93414306640625,907.660400390625,192.3516387939453,-33.913326263427734,-29.368276596069336,26.94809341430664,9.439207077026367,68.42485809326172,6521.728515625,65535.0
14212.783348386381,-150.2746124267578,903.6227416992188,195.53053283691406,-30.138248443603516,-28.199735641479492,27.703763961791992,12.90632438659668,71.3384017944336,6502.83837890625,65535.0
14212.78374839501,-148.71080017089844,904.0509033203125,191.62356567382812,-31.256505966186523,-25.81130599975586,30.580564498901367,13.846724510192871,71.28132629394531,6476.5029296875,65535.0
14212.78414840364,-138.68524169921875,910.9912109375,178.89767456054688,-23.681625366210938,-26.22184944152832,33.27226638793945,16.495555877685547,71.77826690673828,6461.82275390625,65535.0
14212.78454841227,-132.42478942871094,903.7156982421875,168.70648193359375,-29.447185516357422,-21.121156692504883,38.761653900146484,18.120952606201172,75.80751037597656,6453.30126953125,65535.0
14212.7849484209,-164.5596160888672,913.9129638671875,160.0814971923828,-31.459184646606445,-36.41595458984375,26.648693084716797,4.9415178298950195,63.30564498901367,6428.05908203125,65535.0
14212.785348429528,-189.8121795654297,910.5017700195312,163.64686584472656,-18.78398895263672,-28.562454223632812,29.06080436706543,9.280941009521484,65.22665405273438,6409.79833984375,65535.0
14212.785748438158,-229.93472290039062,906.07861328125,176.12168884277344,-18.7656307220459,-20.536781311035156,38.444488525390625,15.567322731018066,74.11500549316406,6382.18798828125,65535.0
14212.786148446789,-251.65765380859375,912.4349365234375,188.97911071777344,-3.338698148727417,-27.572797775268555,34.94269561767578,8.24285888671875,68.74219512939453,6354.6142578125,65535.0
14212.786548455419,-226.85464477539062,919.9684448242188,204.55795288085938,11.160417556762695,-34.06058120727539,27.000158309936523,6.03259801864624,63.18264389038086,6346.93408203125,65535.0
14212.786948464047,-193.55307006835938,906.9791870117188,198.69784545898438,14.65974235534668,-31.287761688232422,30.05868911743164,6.685373783111572,64.27920532226562,6326.07177734375,65535.0
14212.787348472677,-147.0457305908203,908.2448120117188,191.46102905273438,6.901124954223633,-23.922897338867188,39.4446907043457,14.325167655944824,71.61466979980469,6312.013671875,65535.0
14212.787748481307,-92.90364837646484,915.1315307617188,188.19802856445312,14.224428176879883,-25.834592819213867,39.01387023925781,11.525132179260254,69.68038177490234,6297.52001953125,65535.0
14212.788148489937,-52.10552978515625,905.6858520507812,171.24099731445312,28.61241340637207,-34.14793014526367,32.3489990234375,3.927722215652466,60.14018249511719,6257.556640625,65535.0
14212.788548498565,-17.114957809448242,906.111572265625,173.8463897705078,23.43475914001465,-24.76903533935547,41.49108123779297,14.577003479003906,71.20245361328125,6243.76611328125,65535.0
14212.788948507196,5.206477165222168,908.53857421875,198.25851440429688,26.748445510864258,-27.294536590576172,43.75297927856445,16.89067840576172,73.02630615234375,6212.88427734375,65535.0
14212.789348515826,11.337420463562012,915.660888671875,206.64630126953125,23.002824783325195,-24.413240432739258,48.34231948852539,16.918214797973633,74.92953491210938,6204.5546875,65535.0
14212.789748524456,17.5770206451416,911.2608642578125,193.14894104003906,30.044292449951172,-17.07600975036621,57.031978607177734,21.22144317626953,83.36493682861328,6172.28173828125,65535.0
14212.790148533084,36.27336883544922,915.9400634765625,190.44688415527344,17.559907913208008,-14.66600513458252,59.5330924987793,22.143320083618164,81.3399429321289,6144.759765625,65535.0
14212.790548541714,75.02642822265625,915.2640380859375,195.6654510498047,10.070708274841309,-10.908068656921387,65.11966705322266,29.395246505737305,83.48107147216797,6130.9306640625,65535.0
14212.790948550344,102.89149475097656,908.8208618164062,188.71400451660156,3.558330774307251,-9.563478469848633,73.25556945800781,31.947874069213867,87.62146759033203,6091.6591796875,65535.0
14212.791348558974,136.26451110839844,914.5238647460938,178.94667053222656,-10.367968559265137,-7.327630043029785,72.72731018066406,31.746295928955078,88.90919494628906,6053.33203125,65535.0
14212.791748567603,157.43606567382812,906.7849731445312,169.55140686035156,-9.032880783081055,-8.394858360290527,71.38330841064453,30.46409034729004,87.49992370605469,6025.17236328125,65535.0
14212.792148576233,147.98313903808594,909.634521484375,168.10858154296875,-16.065322875976562,-1.0347182750701904,78.01331329345703,37.1463737487793,94.53547668457031,5993.8046875,65535.0
14212.792548584863,131.80686950683594,904.9939575195312,186.0051727294922,-34.75555419921875,-16.431480407714844,65.55732727050781,25.943452835083008,83.87735748291016,5967.28173828125,65535.0
14212.792948593493,136.71018981933594,912.7916870117188,201.23289489746094,-41.60789108276367,-16.468313217163086,57.01096725463867,21.683406829833984,77.33222961425781,5948.55419921875,65535.0
14212.793348602121,166.2404327392578,907.4617919921875,207.43601989746094,-21.521339416503906,-11.153519630432129,68.1318588256836,31.400299072265625,84.18934631347656,5915.50830078125,65535.0
14212.793748610751,199.11061096191406,907.6802978515625,246.7609405517578,-31.848526000976562,-10.037444114685059,66.73153686523438,29.340673446655273,86.75390625,5893.970703125,65535.0
14212.794148619381,225.61105346679688,916.489501953125,263.0160827636719,-46.09189224243164,-8.727888107299805,66.06351470947266,29.288602828979492,87.68683624267578,5852.0068359375,65535.0
14212.794548628011,243.46707153320312,912.0506591796875,253.66900634765625,-47.507240295410156,-8.837757110595703,66.04280853271484,28.172863006591797,87.1751708984375,5821.38916015625,65535.0
14212.79494863664,256.94854736328125,913.9556884765625,233.7469482421875,-39.3172492980957,-3.9429454803466797,71.9214096069336,35.29576873779297,96.30130004882812,5790.693359375,65535.0
14212.79534864527,249.86492919921875,908.52685546875,212.6682586669922,-43.655052185058594,-0.07358751446008682,75.77608489990234,38.03703308105469,97.7149658203125,5767.39892578125,65535.0
14212.7957486539,222.5553741455078,913.1823120117188,211.18516540527344,-50.28593063354492,-7.011325359344482,67.1258544921875,35.05310821533203,89.4449234008789,5737.06787109375,65535.0
14212.79614866253,207.4973907470703,919.462646484375,206.16873168945312,-40.37461853027344,-5.156308650970459,67.30655670166016,33.732810974121094,93.26236724853516,5701.9228515625,65535.0
14212.796548671158,194.27801513671875,910.0516967773438,212.62049865722656,-34.802669525146484,-11.217970848083496,59.68769073486328,29.216341018676758,86.72667694091797,5673.3818359375,65535.0
14212.796948679788,192.64576721191406,908.6497802734375,250.2093963623047,-40.56934356689453,-24.765748977661133,45.677162170410156,17.747177124023438,75.0757827758789,5634.767578125,65535.0
14212.797348688418,191.6457061767578,907.1366577148438,261.9736633300781,-37.0566291809082,-6.065820217132568,58.98493957519531,29.599578857421875,89.1811294555664,5600.48095703125,65535.0
14212.797748697049,188.37945556640625,906.63916015625,239.2647705078125,-33.933082580566406,-12.689343452453613,53.75653839111328,25.56856346130371,82.21784210205078,5557.9404296875,65535.0
14212.798148705677,199.1892852783203,916.5446166992188,244.4069366455078,-50.11452865600586,-10.769583702087402,52.69914627075195,26.16645622253418,84.15166473388672,5529.4833984375,65535.0
14212.798548714307,195.150146484375,917.5950317382812,239.5435333251953,-45.257652282714844,-11.304548263549805,55.86271667480469,27.56488800048828,86.1614990234375,5502.74951171875,65535.0
14212.798948722937,167.05752563476562,922.6883544921875,219.81048583984375,-48.18315124511719,-26.891979217529297,38.79193115234375,13.08823013305664,71.57626342773438,5463.93359375,65535.0
14212.799348731567,152.9799041748047,909.0966186523438,216.75869750976562,-43.68761444091797,-28.839876174926758,31.908611297607422,9.323960304260254,69.71543884277344,5415.0439453125,65535.0
14212.799748740195,146.62738037109375,914.3677368164062,211.96340942382812,-52.89455795288086,-18.72470474243164,41.435726165771484,19.875436782836914,77.45230865478516,5370.0400390625,65535.0
14212.800148748825,142.9964599609375,917.092041015625,199.91204833984375,-54.963687896728516,-12.696057319641113,47.05033874511719,23.35866355895996,83.61046600341797,5347.052734375,65535.0
14212.800548757456,152.4712371826172,923.5966186523438,195.2984161376953,-58.854896545410156,-6.215175628662109,53.7705078125,32.82014846801758,88.4954605102539,5327.26220703125,65535.0
14212.800948766086,152.91934204101562,923.2022094726562,186.63619995117188,-63.60222244262695,-8.290639877319336,51.6840934753418,30.81854248046875,88.28250122070312,5276.287109375,65535.0
14212.801348774714,136.50482177734375,914.226806640625,194.69549560546875,-64.98402404785156,-18.277238845825195,40.15647506713867,17.28321075439453,76.43904876708984,5252.40380859375,65535.0
14212.801748783344,149.968017578125,908.0020141601562,203.23866271972656,-54.10796356201172,-17.015689849853516,41.71786880493164,22.27273941040039,80.0979232788086,5210.4814453125,65535.0
14212.802148791974,157.90110778808594,919.7786254882812,201.98077392578125,-62.192832946777344,-7.829334735870361,52.941253662109375,30.040618896484375,90.02900695800781,5159.74462890625,65535.0
14212.802548800604,175.8253631591797,923.4102783203125,207.92501831054688,-58.50580596923828,-3.7546520233154297,56.43981170654297,31.5294189453125,90.7884750366211,5139.244140625,65535.0
14212.802948809232,196.03321838378906,915.3134155273438,219.22512817382812,-62.952144622802734,-14.915534019470215,42.13980484008789,23.646333694458008,83.58409118652344,5104.70947265625,65535.0
14212.803348817863,195.7755126953125,910.6986083984375,207.64804077148438,-47.269325256347656,-16.542957305908203,39.976688385009766,21.638593673706055,82.01825714111328,5058.51513671875,65535.0
14212.803748826493,175.57052612304688,916.5911865234375,185.96180725097656,-41.92510223388672,-13.329911231994629,46.265602111816406,25.5235652923584,84.3695068359375,5030.01025390625,65535.0
14212.804148835123,151.28958129882812,908.5214233398438,174.95924377441406,-41.9455680847168,-14.019190788269043,46.93723678588867,29.047353744506836,82.92723846435547,4991.64111328125,65535.0
14212.804548843751,125.27962493896484,904.909423828125,180.37705993652344,-39.055660247802734,-15.622509002685547,46.42184066772461,25.13394546508789,79.32555389404297,4959.560546875,65535.0
14212.804948852381,95.07675170898438,909.28857421875,174.8185272216797,-40.88373947143555,-9.318986892700195,50.18874740600586,27.772518157958984,85.08890533447266,4912.7197265625,65535.0
14212.805348861011,64.66130065917969,915.3057250976562,171.05174255371094,-38.08457946777344,-3.1136107444763184,62.53386688232422,36.022926330566406,95.90762329101562,4885.00146484375,65535.0
14212.80574886964,24.267261505126953,915.7500610351562,177.33755493164062,-29.731891632080078,3.5132737159729004,67.22052001953125,42.07314682006836,99.91146087646484,4847.30810546875,65535.0
14212.80614887827,11.635257720947266,902.5975952148438,170.9787139892578,-17.582555770874023,-3.750337839126587,62.28302001953125,35.32379150390625,94.94937896728516,4812.14794921875,65535.0
14212.8065488869,16.23134994506836,913.2181396484375,160.40907287597656,-18.033872604370117,-5.861355304718018,60.77670669555664,31.570476531982422,92.13893127441406,4782.15869140625,65535.0
14212.80694889553,-20.061128616333008,916.5294799804688,165.37611389160156,-16.20331573486328,-12.185088157653809,55.495811462402344,29.313756942749023,85.44316101074219,4745.06103515625,65535.0
14212.80734890416,-50.00740432739258,907.0619506835938,171.32200622558594,-14.930673599243164,-2.4004628658294678,62.62386703491211,34.48445510864258,93.42948150634766,4717.33544921875,65535.0
14212.807748912788,-68.61754608154297,907.8275756835938,173.70892333984375,-12.575566291809082,-4.70518159866333,63.047977447509766,34.106510162353516,90.08091735839844,4690.95166015625,65535.0
14212.808148921418,-96.42938232421875,904.2333374023438,175.43739318847656,2.9964866638183594,-11.032194137573242,58.747955322265625,29.346179962158203,85.25320434570312,4654.38671875,65535.0
14212.808548930048,-131.873779296875,901.9437866210938,164.0076446533203,-0.7531812191009521,-12.901219367980957,54.00783920288086,25.965829849243164,81.68427276611328,4623.7255859375,65535.0
14212.808948938677,-161.599609375,912.44140625,167.01797485351562,-5.32827615737915,-15.381346702575684,52.83815002441406,22.59967041015625,79.49614715576172,4580.92333984375,65535.0
14212.809348947307,-190.83323669433594,914.5919799804688,179.48036193847656,-5.988113880157471,-7.770271301269531,60.58610916137695,27.15166664123535,86.84370422363281,4535.154296875,65535.0
14212.809748955937,-211.5173797607422,918.6278686523438,191.6516876220703,-4.170411109924316,-8.406819343566895,62.434906005859375,30.521833419799805,86.57220458984375,4517.2470703125,65535.0
14212.810148964567,-221.74940490722656,912.7750854492188,186.8559112548828,3.3632335662841797,-4.394954204559326,68.10145568847656,33.18068313598633,92.20954895019531,4492.62841796875,65535.0
14212.810548973197,-227.3359832763672,917.9060668945312,185.84793090820312,6.907513618469238,-5.164445400238037,71.94693756103516,32.861785888671875,92.33975219726562,4441.83251953125,65535.0
14212.810948981825,-219.49893188476562,920.5979614257812,186.7493896484375,3.015882730484009,-1.8491185903549194,77.6971206665039,36.176395416259766,95.35989379882812,4404.44873046875,65535.0
14212.811348990455,-207.8948974609375,913.96826171875,187.74703979492188,0.5625340342521667,1.6130098104476929,81.69051361083984,38.559471130371094,96.87242126464844,4388.103515625,65535.0
14212.811748999085,-197.9382781982422,917.3276977539062,183.43948364257812,-3.05682110786438,-4.620018005371094,77.89237213134766,36.78081512451172,93.41365051269531,4351.72119140625,65535.0
14212.812149007714,-191.0253448486328,913.9849853515625,188.4001922607422,0.48159700632095337,2.759132146835327,82.81635284423828,42.18732452392578,100.1051025390625,4304.66796875,65535.0
14212.812549016344,-170.8634490966797,913.2838745117188,191.75624084472656,-2.1786437034606934,7.952166557312012,87.2150650024414,49.30891799926758,104.98116302490234,4285.84716796875,65535.0
14212.812949024974,-152.58692932128906,918.3030395507812,222.46681213378906,-4.472712993621826,4.145856857299805,81.37789916992188,44.079898834228516,100.07752990722656,4255.6943359375,65535.0
14212.813349033604,-138.73191833496094,923.0776977539062,231.06396484375,-4.076589107513428,1.7294697761535645,80.09367370605469,41.22566223144531,98.65776824951172,4225.07763671875,65535.0
14212.813749042234,-164.28250122070312,921.3587036132812,183.46360778808594,-17.729501724243164,10.912781715393066,90.7652587890625,51.17017364501953,109.29882049560547,4200.21435546875,65535.0
14212.814149050862,-194.1654815673828,902.9683227539062,168.0467987060547,-19.859458923339844,4.581928730010986,81.64602661132812,43.97616195678711,102.06745147705078,4173.77880859375,65535.0
14212.814549059492,-198.61692810058594,918.4370727539062,186.05474853515625,-16.073503494262695,-1.3188318014144897,73.13436889648438,36.49052810668945,92.55863189697266,4129.90576171875,65535.0
14212.814949068123,-206.7004852294922,918.8180541992188,205.64930725097656,-14.995759963989258,-6.648040294647217,70.43675231933594,35.43729782104492,92.31391906738281,4098.90283203125,65535.0
14212.81534907675,-203.0413360595703,914.3827514648438,249.09335327148438,-6.285210132598877,-4.458776950836182,68.09586334228516,33.09990310668945,93.05667877197266,4082.5712890625,65535.0
14212.815749085381,-181.6216583251953,914.1980590820312,252.46408081054688,-1.7737233638763428,0.5737727880477905,72.21102905273438,36.59758377075195,94.72325134277344,4036.83056640625,65535.0
14212.816149094011,-168.4396514892578,920.8178100585938,233.59521484375,-1.3951579332351685,0.9003721475601196,78.03667449951172,41.3701286315918,99.92378997802734,4004.559326171875,65535.0
14212.816549102641,-170.08438110351562,930.2738037109375,222.6294403076172,11.484057426452637,-5.503004550933838,65.71114349365234,33.0656623840332,90.14774322509766,3981.907470703125,65535.0
14212.81694911127,-179.2854766845703,933.1701049804688,219.08961486816406,-8.1987943649292,-11.1680908203125,59.14191818237305,28.765378952026367,84.2903060913086,3952.895751953125,65535.0
14212.8173491199,-169.7714385986328,925.9243774414062,204.54562377929688,2.809938430786133,-5.7635016441345215,66.9750747680664,35.9626579284668,92.0665512084961,3930.48388671875,65535.0
14212.81774912853,-127.71052551269531,937.8936157226562,199.20297241210938,10.714799880981445,-10.598861694335938,55.49739456176758,28.394052505493164,86.50613403320312,3897.25830078125,65535.0
14212.81814913716,-53.58391571044922,939.5263061523438,214.4969940185547,-2.3001158237457275,-6.361297607421875,58.55579376220703,34.0037727355957,89.18983459472656,3864.1162109375,65535.0
14212.818549145788,23.864904403686523,931.2562866210938,234.43191528320312,18.273958206176758,-6.490392208099365,63.500038146972656,32.983158111572266,89.58869934082031,3840.042236328125,65535.0
14212.818949154418,74.17189025878906,926.3636474609375,250.12921142578125,32.92367935180664,-4.720996856689453,62.19779968261719,36.05072784423828,91.79842376708984,3815.9765625,65535.0
14212.819349163048,120.03509521484375,928.8383178710938,220.79454040527344,16.175212860107422,-3.636566638946533,60.97935485839844,38.09453201293945,92.25558471679688,3798.5166015625,65535.0
14212.819749171678,142.82801818847656,932.1534423828125,188.59548950195312,6.575499534606934,-13.860918045043945,47.6785774230957,26.687131881713867,82.42454528808594,3772.618408203125,65535.0
14212.820149180307,145.45423889160156,933.3798217773438,193.461181640625,-11.809590339660645,-17.60502052307129,39.59101104736328,21.423742294311523,77.64299774169922,3736.41552734375,65535.0
14212.820549188937,135.27520751953125,923.4509887695312,201.32369995117188,-19.28298568725586,-6.142706394195557,54.416412353515625,33.371578216552734,92.52217864990234,3714.900146484375,65535.0
14212.820949197567,122.94186401367188,920.40673828125,203.44342041015625,8.811588287353516,-19.540128707885742,41.82646560668945,21.708715438842773,77.74205017089844,3684.746337890625,65535.0
14212.821349206197,119.88053894042969,921.1930541992188,209.90194702148438,30.189523696899414,-9.080012321472168,49.028167724609375,29.17949676513672,88.1767807006836,3666.669921875,65535.0
14212.821749214825,132.66119384765625,926.11328125,210.7928466796875,46.6517333984375,-7.520869731903076,51.848506927490234,31.976823806762695,87.88783264160156,3635.0478515625,65535.0
14212.822149223455,164.68994140625,926.0276489257812,185.33580017089844,53.56235885620117,-13.012652397155762,45.3365364074707,27.972686767578125,85.26004028320312,3614.303466796875,65535.0
14212.822549232085,176.95584106445312,918.9284057617188,170.73265075683594,53.31593322753906,-14.16015911102295,45.996822357177734,30.463298797607422,87.24256134033203,3587.551025390625,65535.0
14212.822949240715,183.58328247070312,918.455078125,178.78282165527344,58.956687927246094,-9.503522872924805,53.35786437988281,30.05645179748535,87.87039184570312,3558.2373046875,65535.0
14212.823349249344,188.8212127685547,922.3682861328125,184.68017578125,71.35218811035156,-12.566888809204102,47.657169342041016,28.209810256958008,86.76148223876953,3527.46728515625,65535.0
14212.823749257974,197.6779327392578,930.2288208007812,208.80184936523438,84.74699401855469,-16.81319808959961,41.876251220703125,24.018415451049805,81.40737915039062,3511.4033203125,65535.0
14212.824149266604,190.22105407714844,918.851318359375,212.05921936035156,80.55087280273438,-12.967742919921875,47.34627914428711,26.619945526123047,83.03765106201172,3492.797607421875,65535.0
14212.824549275234,148.43699645996094,918.2985229492188,204.52989196777344,47.67102813720703,-11.006794929504395,49.750946044921875,28.500852584838867,86.15055847167969,3467.037353515625,65535.0
14212.824949283862,129.30398559570312,930.9827880859375,204.1156005859375,24.245983123779297,-6.129027843475342,56.69743347167969,36.91682434082031,92.10811614990234,3436.66748046875,65535.0
14212.825349292492,129.67764282226562,920.4260864257812,219.36949157714844,20.44118881225586,-8.494848251342773,59.37487030029297,33.55491638183594,88.28020477294922,3416.6162109375,65535.0
14212.825749301122,117.46233367919922,917.947021484375,218.23353576660156,24.44294548034668,-1.9946109056472778,63.018882751464844,37.06427001953125,94.31016540527344,3394.66015625,65535.0
14212.826149309753,105.07366943359375,920.3975219726562,240.0888671875,17.485567092895508,-10.651162147521973,53.30911636352539,26.329492568969727,87.4661865234375,3360.823486328125,65535.0
14212.82654931838,105.88430786132812,926.3855590820312,270.7061767578125,20.160837173461914,-20.63393783569336,42.52241897583008,18.34746742248535,77.2861328125,3334.280517578125,65535.0
14212.82694932701,122.11426544189453,926.1563110351562,268.1788635253906,27.284574508666992,-16.09504508972168,47.34724426269531,24.804401397705078,80.33573150634766,3315.40576171875,65535.0
14212.827349335641,120.40323638916016,936.2593994140625,261.26165771484375,26.95764923095703,-13.391364097595215,54.140419006347656,28.525386810302734,82.91818237304688,3283.654296875,65535.0
14212.827749344271,91.08837890625,933.1015625,235.6450958251953,36.15693283081055,-12.664434432983398,57.32112503051758,27.44165802001953,87.47615051269531,3262.0703125,65535.0
14212.8281493529,66.2353515625,928.3225708007812,238.9243621826172,38.005897521972656,-12.235217094421387,59.67053985595703,28.690616607666016,87.82089233398438,3227.742431640625,65535.0
14212.82854936153,66.3467788696289,931.9696044921875,271.7362365722656,46.5759391784668,-16.353174209594727,54.04029846191406,26.74310302734375,82.63140869140625,3189.952880859375,65535.0
14212.82894937016,81.54469299316406,932.9781494140625,282.8051452636719,53.79582214355469,-9.037766456604004,64.82830047607422,31.511856079101562,89.5051498413086,3165.02685546875,65535.0
14212.82934937879,88.42469024658203,933.526611328125,256.0191650390625,53.51974105834961,-6.969540596008301,65.6365966796875,32.11827087402344,90.74282836914062,3128.097900390625,65535.0
14212.829749387418,70.67060852050781,921.1161499023438,241.2049102783203,67.73054504394531,4.886164665222168,81.30327606201172,43.33833694458008,101.4903793334961,3124.28173828125,65535.0
14212.830149396048,62.88114547729492,920.4037475585938,252.3945770263672,63.13921356201172,6.832026958465576,84.2118911743164,43.838523864746094,102.96255493164062,3089.15771484375,65535.0
14212.830549404678,60.57167434692383,921.667724609375,281.3076171875,73.97974395751953,2.4490036964416504,77.06820678710938,40.53239059448242,98.63687133789062,3049.385009765625,65535.0
14212.830949413308,79.52658081054688,918.8169555664062,298.6073913574219,90.34733581542969,8.98804759979248,88.93783569335938,47.351036071777344,105.89102172851562,3032.031494140625,65535.0
14212.831349421936,109.55985260009766,913.1607055664062,309.0184631347656,98.1107406616211,-3.691335916519165,76.25921630859375,35.610435485839844,94.2195053100586,3001.978515625,65535.0
14212.831749430567,126.0967025756836,922.4705200195312,316.7856140136719,118.0315933227539,8.858776092529297,87.81640625,47.446006774902344,105.03377532958984,2976.7705078125,65535.0
14212.832149439197,149.3895263671875,929.7636108398438,320.3619384765625,122.80872344970703,4.283125400543213,86.52872467041016,43.69334030151367,99.18550872802734,2934.467529296875,65535.0
14212.832549447827,162.71759033203125,926.795654296875,310.6289978027344,128.99449157714844,4.884171962738037,89.16605377197266,47.382904052734375,105.32051849365234,2888.019775390625,65535.0
14212.832949456455,167.59817504882812,928.718505859375,285.249267578125,123.56778717041016,7.577866554260254,87.21705627441406,48.08688735961914,104.03817749023438,2864.25341796875,65535.0
14212.833349465085,151.49630737304688,937.5419921875,272.0628356933594,100.14726257324219,9.08137035369873,90.16946411132812,48.5955696105957,105.92601013183594,2840.821533203125,65535.0
14212.833749473715,134.140625,931.8565063476562,267.2349548339844,61.81869125366211,5.685067176818848,86.40760040283203,46.57185745239258,103.71833801269531,2792.176025390625,65535.0
14212.834149482345,113.97297668457031,927.1660766601562,257.8233947753906,39.82633972167969,5.850705623626709,85.73190307617188,46.3026123046875,103.50507354736328,2749.177001953125,65535.0
14212.834549490974,101.60975646972656,929.4818725585938,260.84722900390625,30.27499008178711,4.114328861236572,79.8958740234375,42.66807174682617,99.66893768310547,2721.401123046875,65535.0
14212.834949499604,90.25466918945312,929.0048828125,255.6045684814453,20.485654830932617,1.715443730354309,78.39734649658203,41.260459899902344,98.63208770751953,2681.091796875,65535.0
14212.835349508234,86.6826171875,927.9893188476562,239.44320678710938,32.44813537597656,-10.663114547729492,65.72791290283203,28.580883026123047,85.7285385131836,2650.842041015625,65535.0
14212.835749516864,89.55392456054688,934.7055053710938,223.4078369140625,26.052648544311523,-13.505972862243652,57.872703552246094,23.539133071899414,80.75208282470703,2617.428955078125,65535.0
14212.836149525492,85.0951156616211,942.8758544921875,223.3550567626953,21.186582565307617,-7.081306457519531,64.1059799194336,33.93659210205078,88.59864044189453,2573.662841796875,65535.0
14212.836549534122,84.15773010253906,937.7745361328125,220.27232360839844,25.37299346923828,-0.8582295179367065,70.41507720947266,41.52305221557617,97.501708984375,2531.037841796875,65535.0
14212.836949542752,69.8822250366211,929.2928466796875,217.9998779296875,30.02831268310547,-10.614044189453125,64.25841522216797,36.30660629272461,91.39249420166016,2494.400634765625,65535.0
14212.837349551382,62.75627136230469,931.896728515625,221.3716583251953,18.941753387451172,-10.561287879943848,59.626007080078125,29.020597457885742,88.62942504882812,2441.523193359375,65535.0
14212.83774956001,44.72168731689453,929.9412841796875,227.99618530273438,-9.462066650390625,-14.062411308288574,50.97570037841797,24.26639175415039,82.86782836914062,2395.064453125,65535.0
14212.83814956864,20.436410903930664,929.6602172851562,225.3358612060547,-17.709712982177734,-22.52830696105957,42.06777572631836,18.9835147857666,76.95194244384766,2347.329833984375,65535.0
14212.83854957727,3.875282049179077,939.4556274414062,205.9745330810547,-39.802513122558594,-15.26810073852539,46.87856674194336,24.413923263549805,83.30619049072266,2313.818359375,65535.0
14212.838949585901,-19.6472110748291,947.7174682617188,205.9433135986328,-72.72539520263672,-8.878902435302734,54.250755310058594,30.77156639099121,90.2253646850586,2269.0234375,65535.0
14212.83934959453,-22.272043228149414,946.0095825195312,206.73052978515625,-75.48876953125,-19.449350357055664,47.72969436645508,23.616758346557617,80.71503448486328,2218.297119140625,65535.0
14212.83974960316,-21.444063186645508,939.0029907226562,197.26123046875,-71.68904113769531,-14.33907699584961,48.661617279052734,25.09994888305664,82.3997802734375,2163.9638671875,65535.0
14212.84014961179,-33.62043762207031,953.4191284179688,190.1552734375,-63.24656677246094,-9.965035438537598,51.338478088378906,28.240936279296875,85.28583526611328,2114.751708984375,65535.0
14212.84054962042,-48.65591812133789,948.0427856445312,175.8810577392578,-54.7093505859375,-13.329842567443848,45.85704040527344,25.92530059814453,79.11725616455078,2064.614013671875,65535.0
14212.840949629048,-26.198326110839844,946.03271484375,163.5323028564453,-42.81093978881836,-19.331981658935547,37.927833557128906,22.50411033630371,75.84192657470703,2008.195068359375,65535.0
14212.841349637678,-0.38731858134269714,945.0078125,166.7271270751953,-20.799203872680664,-20.974609375,34.351417541503906,16.99660301208496,73.20341491699219,1944.412841796875,65535.0
14212.841749646308,2.3245651721954346,939.72607421875,152.8069305419922,0.5779838562011719,-24.881454467773438,32.0294075012207,15.852083206176758,73.90457153320312,1889.3658447265625,65535.0
14212.842149654938,-2.2021241188049316,938.4284057617188,136.4556884765625,14.62513256072998,-20.083070755004883,36.16132736206055,19.794837951660156,78.76839447021484,1849.8426513671875,65535.0
14212.842549663566,16.35567283630371,941.832763671875,146.21035766601562,-8.201759338378906,-10.24276065826416,49.59364700317383,27.975297927856445,88.7435531616211,1784.4007568359375,65535.0
14212.842949672196,27.75258445739746,946.3277587890625,130.0147247314453,-32.5760498046875,-15.735151290893555,43.15398406982422,23.62856101989746,81.28636932373047,1708.3995361328125,65535.0
14212.843349680827,28.584501266479492,951.1459350585938,128.89279174804688,-41.081260681152344,-12.590453147888184,46.958492279052734,27.97576141357422,84.07276153564453,1652.8841552734375,65535.0
14212.843749689457,9.68012809753418,941.1751708984375,139.48284912109375,-52.98428726196289,-7.149688243865967,53.323219299316406,31.80616569519043,88.423828125,1582.14990234375,65535.0
14212.844149698085,-17.031932830810547,940.5392456054688,138.10137939453125,-39.749359130859375,-2.825493097305298,59.73943328857422,37.525489807128906,94.199951171875,1514.1026611328125,65535.0
14212.844549706715,-37.86378860473633,940.3282470703125,130.10450744628906,-28.810314178466797,-13.367447853088379,52.26551055908203,30.01207733154297,87.02560424804688,1447.9091796875,65535.0
14212.844949715345,-81.85245513916016,940.1122436523438,125.26107788085938,-25.035037994384766,-10.115185737609863,53.587703704833984,30.930408477783203,90.46434783935547,1405.803955078125,65535.0
14212.845349723975,-118.10038757324219,943.536376953125,102.2165298461914,-13.62961196899414,-16.05078125,44.466548919677734,22.683530807495117,81.28792572021484,1319.955810546875,65535.0
14212.845749732604,-130.98219299316406,941.5325927734375,91.89344024658203,-6.031320095062256,-27.87676239013672,31.021310806274414,10.83831787109375,70.33092498779297,1241.531005859375,65535.0
14212.846149741234,-123.71175384521484,946.8795166015625,82.14730834960938,7.984253406524658,-25.241943359375,35.66779708862305,13.461508750915527,73.6475830078125,1180.3546142578125,65535.0
14212.846549749864,-119.06719207763672,937.8788452148438,60.63136672973633,4.1443586349487305,-14.54374885559082,49.3726806640625,26.065073013305664,83.75894927978516,1106.9044189453125,65535.0
14212.846949758494,-119.67149353027344,940.31103515625,59.91164016723633,16.64576530456543,-9.1055269241333,56.444026947021484,31.384763717651367,87.33614349365234,1042.6383056640625,65535.0
14212.847349767122,-109.00262451171875,946.7724609375,77.45453643798828,24.90198516845703,-7.102079391479492,60.97123718261719,32.04475784301758,88.82815551757812,963.1110229492188,65535.0
14212.847749775752,-100.98974609375,942.77294921875,91.82128143310547,18.957780838012695,-2.942214012145996,63.663211822509766,34.0462646484375,91.02409362792969,878.3760986328125,65535.0
14212.848149784382,-103.43318176269531,941.4031372070312,98.61312103271484,4.808689117431641,-7.237592697143555,63.626304626464844,34.58894348144531,90.49130249023438,799.7361450195312,65535.0
14212.848549793012,-97.29912567138672,942.790283203125,94.44538879394531,4.378410339355469,-11.51773452758789,60.148006439208984,29.06256103515625,88.80443572998047,725.1841430664062,65535.0
14212.84894980164,-101.10530853271484,944.1195068359375,105.331298828125,8.59689998626709,-2.636871337890625,66.00724029541016,36.03221130371094,93.82978820800781,652.712890625,65535.0
14212.84934981027,-71.07085418701172,950.7088623046875,104.31024932861328,15.591465950012207,-8.434892654418945,63.78617858886719,32.74488830566406,87.14102935791016,561.71435546875,65535.0
14212.8497498189,-42.38686752319336,949.3171997070312,111.40967559814453,12.265101432800293,-4.7079339027404785,67.00566101074219,32.83476257324219,91.32743072509766,468.9031066894531,65535.0
14212.85014982753,-16.13561248779297,947.077392578125,130.3839569091797,25.261127471923828,-5.802860736846924,68.22740173339844,33.10615539550781,90.15638732910156,394.53375244140625,65535.0
14212.85054983616,11.051613807678223,946.673583984375,123.58956909179688,25.011333465576172,-5.0861406326293945,70.91482543945312,34.378501892089844,91.7236328125,313.36553955078125,65535.0
14212.85094984479,9.572698593139648,952.509521484375,116.7636947631836,10.56051254272461,0.36410075426101685,80.65875244140625,40.61898422241211,96.38379669189453,224.09190368652344,65535.0
14212.85134985342,21.255245208740234,948.45654296875,112.0317153930664,-8.487302780151367,4.613092422485352,84.75635528564453,42.8295783996582,101.01679229736328,122.20561981201172,65535.0
14212.85174986205,29.413047790527344,952.5441284179688,116.62882232666016,-4.740485191345215,-4.456887245178223,76.34135437011719,33.25825119018555,93.13208770751953,43.263755798339844,65535.0
14212.852149870678,44.650943756103516,948.1854858398438,125.61724853515625,7.100116729736328,-1.5578588247299194,77.1727523803711,37.48208236694336,94.65081787109375,-40.152156829833984,65535.0
14212.852549879308,63.704524993896484,953.812744140625,146.46295166015625,17.839826583862305,-3.83691143989563,74.12776947021484,37.25729751586914,91.34261322021484,-138.05535888671875,65535.0
14212.852949887938,64.8482894897461,961.9801025390625,151.89584350585938,23.851919174194336,2.323448657989502,78.65609741210938,37.950408935546875,99.62468719482422,-224.11766052246094,65535.0
14212.853349896566,46.01008605957031,955.7940673828125,166.76345825195312,22.135845184326172,3.832834005355835,83.00552368164062,45.160194396972656,98.91876983642578,-315.97271728515625,65535.0
14212.853749905196,31.55797576904297,948.283935546875,178.20654296875,12.45300579071045,-0.6740361452102661,78.62894439697266,40.6724967956543,97.131591796875,-404.6689758300781,65535.0
14212.854149913826,40.58487319946289,957.3424682617188,192.6502685546875,19.414379119873047,3.3230676651000977,80.0480728149414,42.241519927978516,99.32438659667969,-500.79986572265625,65535.0
14212.854549922456,30.8385066986084,960.5657348632812,180.64614868164062,36.381839752197266,0.8784607648849487,76.6622543334961,39.648643493652344,97.2520523071289,-589.7734375,65535.0
14212.854949931087,32.81145477294922,948.3707275390625,151.9886016845703,53.2254753112793,-6.641482353210449,68.11504364013672,32.54905700683594,87.7602767944336,-695.9834594726562,65535.0
14212.855349939715,44.327640533447266,951.6951293945312,142.78648376464844,53.36964797973633,-1.2099108695983887,74.3582763671875,40.49402618408203,95.41763305664062,-790.0225830078125,65535.0
14212.855749948345,62.27517318725586,951.2288818359375,142.0531463623047,40.327632904052734,-6.486685276031494,68.6401138305664,35.82170867919922,93.4443588256836,-876.8331298828125,65535.0
14212.856149956975,83.91817474365234,957.19482421875,150.49447631835938,27.09650421142578,-4.942300796508789,67.37078857421875,36.95941925048828,91.48290252685547,-972.0323486328125,65535.0
14212.856549965603,77.66938018798828,959.4258422851562,167.67166137695312,19.290950775146484,-9.857878684997559,60.7415885925293,31.835819244384766,88.87896728515625,-1080.162841796875,65535.0
14212.856949974233,63.88058090209961,963.2835693359375,178.0759735107422,19.091962814331055,-15.93090534210205,53.23879623413086,25.379329681396484,81.8682861328125,-1171.182861328125,65535.0
14212.857349982864,54.66371154785156,960.3828735351562,157.6268310546875,21.370763778686523,-5.3163533210754395,61.79551315307617,30.450191497802734,88.92647552490234,-1270.8250732421875,65535.0
14212.857749991494,33.2680778503418,960.7603149414062,150.49874877929688,19.650249481201172,-13.326178550720215,54.058204650878906,25.415992736816406,83.97124481201172,-1370.2802734375,65535.0
14212.858150000124,4.819798469543457,966.953125,146.83651733398438,18.47080421447754,-19.193151473999023,44.511653900146484,22.01941680908203,76.95126342773438,-1472.5167236328125,65535.0
14212.858550008752,-7.740289211273193,973.4865112304688,153.86415100097656,18.64179229736328,-12.811429023742676,52.722503662109375,29.300704956054688,84.69937133789062,-1569.564453125,65535.0
14212.858950017382,-11.728878021240234,972.1220703125,159.9382781982422,12.937152862548828,-18.476892471313477,48.2349853515625,24.787813186645508,81.65745544433594,-1663.9063720703125,65535.0
14212.859350026012,0.17635169625282288,970.9464111328125,182.1366729736328,6.060183048248291,-17.430152893066406,44.90152359008789,21.891250610351562,80.157958984375,-1783.9300537109375,65535.0
14212.85975003464,-2.650139570236206,971.121337890625,181.00926208496094,4.197061061859131,-23.147464752197266,35.69074630737305,14.58314323425293,72.97708129882812,-1895.958251953125,65535.0
14212.86015004327,-22.717954635620117,965.9072265625,176.66758728027344,10.103355407714844,-23.513731002807617,33.275455474853516,13.174756050109863,70.76177978515625,-1984.8192138671875,65535.0
14212.8605500519,-42.393733978271484,968.79248046875,162.6292724609375,-3.4764750003814697,-26.05319595336914,29.522506713867188,13.581289291381836,69.00617218017578,-2084.51513671875,65535.0
14212.86095006053,-37.373966217041016,971.1399536132812,160.25657653808594,-6.700429439544678,-30.27862548828125,28.18355941772461,13.222311973571777,71.2796630859375,-2194.990966796875,65535.0
14212.861350069159,-34.0189323425293,971.1619873046875,132.871826171875,-7.514455795288086,-23.714120864868164,36.44348907470703,15.949870109558105,74.5406723022461,-2288.794677734375,65535.0
14212.86175007779,-4.141602993011475,972.0825805664062,135.3252410888672,-0.26846012473106384,-26.66194725036621,30.47047996520996,12.1790189743042,69.30233001708984,-2404.49853515625,65535.0
14212.86215008642,26.038558959960938,964.986083984375,136.60621643066406,4.782043933868408,-17.44611358642578,36.66518020629883,21.494140625,77.6806869506836,-2491.271240234375,65535.0
14212.86255009505,49.354122161865234,977.4968872070312,140.79515075683594,-7.000003337860107,-17.41002655029297,38.0447998046875,19.624069213867188,78.51936340332031,-2587.634765625,65535.0
14212.862950103678,85.2031021118164,982.0411376953125,150.01670837402344,-36.815956115722656,-18.571975708007812,37.50118637084961,18.991350173950195,77.44236755371094,-2681.48681640625,65535.0
14212.863350112308,128.91943359375,981.7662963867188,151.67457580566406,-43.41875076293945,-24.36295509338379,32.603816986083984,16.7117862701416,73.63446807861328,-2790.38818359375,65535.0
14212.863750120938,151.33201599121094,974.6466674804688,148.7989044189453,-51.75614547729492,-18.34745216369629,41.2289924621582,20.4195556640625,77.27519226074219,-2895.856689453125,65535.0
14212.864150129568,152.47189331054688,964.8488159179688,158.5914764404297,-48.20140075683594,-21.775232315063477,36.32551193237305,16.39728355407715,75.19249725341797,-3001.41162109375,65535.0
14212.864550138196,158.77806091308594,958.5890502929688,157.66522216796875,-55.177040100097656,-22.1286563873291,34.49217224121094,13.470279693603516,72.84593200683594,-3111.15478515625,65535.0
14212.864950146826,154.67214965820312,961.0391235351562,159.4674835205078,-60.90165710449219,-20.15785026550293,40.71220397949219,20.60591697692871,78.1009292602539,-3219.5703125,65535.0
14212.865350155456,125.38919067382812,964.35546875,158.80018615722656,-71.40913391113281,-27.43106460571289,35.23011016845703,13.310967445373535,72.10790252685547,-3333.391357421875,65535.0
14212.865750164086,99.64085388183594,957.56591796875,152.4715118408203,-61.939857482910156,-26.39379119873047,35.9342155456543,14.672383308410645,73.75835418701172,-3421.1455078125,65535.0
14212.866150172715,76.32749938964844,952.8566284179688,137.06153869628906,-43.06142044067383,-13.04635238647461,48.21409606933594,27.619850158691406,81.7198486328125,-3526.536865234375,65535.0
14212.866550181345,48.58538818359375,954.3963012695312,134.17652893066406,-27.51589012145996,-17.101686477661133,46.62562942504883,22.526567459106445,79.9820327758789,-3610.82958984375,65535.0
14212.866950189975,34.533870697021484,956.1353149414062,136.2823944091797,-3.9754538536071777,-14.466285705566406,51.02860641479492,26.579402923583984,82.13623809814453,-3715.088134765625,65535.0
14212.867350198605,17.71185874938965,965.9661865234375,136.1821746826172,10.51114273071289,-15.464204788208008,50.7100830078125,24.18677520751953,79.95246124267578,-3806.84716796875,65535.0
14212.867750207233,16.051485061645508,960.993408203125,147.33995056152344,28.449674606323242,-11.969733238220215,54.77247619628906,28.799455642700195,87.22425842285156,-3918.917724609375,65535.0
14212.868150215863,20.6088809967041,950.5142211914062,149.34556579589844,28.500986099243164,-9.940779685974121,61.01536560058594,32.29868698120117,86.67860412597656,-4011.360595703125,65535.0
14212.868550224493,35.15616226196289,956.3849487304688,156.0113067626953,18.38967514038086,-12.716421127319336,59.83931350708008,29.540807723999023,84.70528411865234,-4100.806640625,65535.0
14212.868950233124,55.4010124206543,960.5313110351562,161.39840698242188,14.950920104980469,-9.89336109161377,62.3881950378418,29.225454330444336,86.37408447265625,-4209.76171875,65535.0
14212.869350241752,79.85789489746094,955.608154296875,157.80938720703125,32.83873748779297,-10.308828353881836,63.61151885986328,29.843523025512695,85.37610626220703,-4302.9453125,65535.0
14212.869750250382,58.43152618408203,950.6461791992188,149.12789916992188,49.53721237182617,-1.2503944635391235,73.05014038085938,37.07423782348633,94.87020874023438,-4408.88623046875,65535.0
14212.870150259012,50.41206359863281,957.1361083984375,141.60496520996094,61.759456634521484,-10.335923194885254,64.69519805908203,27.625347137451172,86.02508544921875,-4507.23974609375,65535.0
14212.870550267642,34.297569274902344,962.4757080078125,135.62022399902344,69.17405700683594,-3.875443696975708,67.6205062866211,33.54188919067383,91.0721435546875,-4600.96484375,65535.0
14212.87095027627,15.638982772827148,972.1602172851562,139.56324768066406,80.3729476928711,4.6479973793029785,79.589599609375,42.285621643066406,98.54381561279297,-4682.86279296875,65535.0
14212.8713502849,5.221156120300293,976.6736450195312,144.0393524169922,76.75360107421875,2.386246919631958,77.49858856201172,39.79066467285156,94.56759643554688,-4777.42041015625,65535.0
14212.87175029353,-13.477890014648438,977.071044921875,161.24208068847656,64.39517974853516,-7.605819225311279,71.46885681152344,34.6378288269043,89.99488830566406,-4893.283203125,65535.0
14212.87215030216,-42.274417877197266,967.1654052734375,194.5267791748047,55.96321487426758,-10.527912139892578,63.62804412841797,27.32423210144043,85.901611328125,-4967.19091796875,65535.0
14212.872550310789,-71.05765533447266,972.76513671875,181.761962890625,57.138126373291016,-7.697719097137451,69.87112426757812,33.718910217285156,91.14627838134766,-5048.36669921875,65535.0
14212.872950319419,-89.61742401123047,970.3789672851562,157.7689971923828,39.59647750854492,-1.6858181953430176,74.57049560546875,36.686710357666016,92.49256896972656,-5146.67822265625,65535.0
14212.87335032805,-87.0470199584961,974.7850341796875,160.38192749023438,27.75867462158203,-10.911209106445312,65.28915405273438,29.03150177001953,84.60356903076172,-5240.91650390625,65535.0
14212.87375033668,-102.63513946533203,979.8251953125,160.18240356445312,-1.4382423162460327,-11.701045036315918,63.37228012084961,26.10967254638672,83.56083679199219,-5335.9814453125,65535.0
14212.874150345307,-109.97808837890625,975.6777954101562,163.8043212890625,-39.58601379394531,-7.806077003479004,69.68909454345703,32.42094421386719,89.40580749511719,-5429.2861328125,65535.0
14212.874550353938,-110.8823013305664,969.8221435546875,182.67657470703125,-45.580257415771484,-15.508735656738281,54.085140228271484,24.2441349029541,80.46538543701172,-5499.57177734375,65535.0
14212.874950362568,-118.94178771972656,980.7484741210938,174.4893341064453,-49.38633728027344,-16.253931045532227,55.22543716430664,24.020204544067383,79.56936645507812,-5581.47119140625,65535.0
14212.875350371198,-125.99430084228516,976.4474487304688,179.0244140625,-57.45289611816406,-21.3043270111084,50.33144760131836,20.10918426513672,77.54660034179688,-5690.98828125,65535.0
14212.875750379826,-132.33558654785156,978.1432495117188,183.0625457763672,-71.61539459228516,-12.03708553314209,60.31813049316406,28.87497329711914,87.76429748535156,-5745.55712890625,65535.0
14212.876150388456,-146.5930633544922,991.0127563476562,157.72767639160156,-81.42312622070312,-12.779500961303711,57.06230545043945,26.634082794189453,85.99108123779297,-5836.33056640625,65535.0
14212.876550397086,-146.5501708984375,990.232666015625,151.6262969970703,-95.13320922851562,-21.78172492980957,48.005043029785156,19.120901107788086,76.5059585571289,-5929.81787109375,65535.0
14212.876950405716,-122.53662109375,981.0037841796875,151.3274383544922,-95.92138671875,-19.908437728881836,47.469268798828125,18.33670997619629,76.44288635253906,-5996.0810546875,65535.0
14212.877350414345,-99.60417938232422,982.261474609375,181.70809936523438,-77.12928009033203,-21.382335662841797,41.50188446044922,18.5445556640625,73.48130798339844,-6065.2099609375,65535.0
14212.877750422975,-78.0323257446289,966.0467529296875,200.80650329589844,-72.286376953125,-10.532512664794922,52.598167419433594,27.974382400512695,85.21068572998047,-6144.0830078125,65535.0
14212.878150431605,-49.824344635009766,981.7994384765625,212.87985229492188,-74.57122802734375,-18.020057678222656,47.96548843383789,23.65498924255371,79.94518280029297,-6223.95751953125,65535.0
14212.878550440235,-15.640719413757324,987.9404907226562,213.52230834960938,-80.94477844238281,-27.943199157714844,33.37600326538086,11.019917488098145,70.4256362915039,-6305.4873046875,65535.0
14212.878950448863,4.887648105621338,984.8975219726562,214.14027404785156,-84.53326416015625,-24.598793029785156,36.47548294067383,15.619973182678223,74.59452819824219,-6372.1669921875,65535.0
14212.879350457493,7.523390293121338,991.4476318359375,213.95286560058594,-93.15630340576172,-17.7808837890625,40.308963775634766,20.78882598876953,77.40914154052734,-6427.4326171875,65535.0
14212.879750466123,20.76668357849121,989.0197143554688,214.3653106689453,-74.53044128417969,-16.41819190979004,45.949180603027344,22.97488784790039,79.58235168457031,-6519.47021484375,65535.0
14212.880150474753,20.916051864624023,987.2796020507812,198.52059936523438,-66.68657684326172,-22.494646072387695,38.15697479248047,17.91485023498535,75.04620361328125,-6598.1845703125,65535.0
14212.880550483382,23.71673583984375,984.3826293945312,195.2718505859375,-48.05152130126953,-15.848950386047363,40.42409896850586,22.29216194152832,77.65190887451172,-6642.64453125,65535.0
14212.880950492012,28.39339828491211,993.0786743164062,206.2194366455078,-39.956748962402344,-21.7354736328125,37.85871887207031,18.213939666748047,74.9592056274414,-6729.4169921875,65535.0
14212.881350500642,22.552509307861328,991.5308227539062,229.4862060546875,-37.837547302246094,-22.88480567932129,32.24858474731445,18.070207595825195,75.21775817871094,-6795.02734375,65535.0
14212.881750509272,36.55954360961914,996.5870361328125,225.5102996826172,-31.015888214111328,-19.956703186035156,36.81855392456055,21.38372802734375,79.64857482910156,-6849.40185546875,65535.0
14212.8821505179,39.520023345947266,988.7611694335938,217.80487060546875,-26.139217376708984,-22.650470733642578,35.85951614379883,20.632322311401367,80.9056396484375,-6912.9140625,65535.0
14212.88255052653,42.111358642578125,987.22900390625,194.22555541992188,-6.391788005828857,-25.441516876220703,29.45895004272461,15.812450408935547,74.64237213134766,-6960.07421875,65535.0
14212.88295053516,49.42347717285156,990.5875244140625,179.40174865722656,-12.556427955627441,-28.754804611206055,28.778268814086914,11.181933403015137,67.692626953125,-7010.7041015625,65535.0
14212.88335054379,39.648765563964844,979.6951293945312,186.50759887695312,-20.245859146118164,-15.453303337097168,37.39085006713867,19.986061096191406,81.90846252441406,-7078.57666015625,65535.0
14212.883750552419,28.988521575927734,974.97705078125,190.81101989746094,3.012864589691162,-22.22406005859375,37.30140686035156,19.971214294433594,76.98551940917969,-7133.2255859375,65535.0
14212.884150561049,38.61040496826172,967.09521484375,192.58990478515625,25.637109756469727,-22.20514488220215,37.656063079833984,17.689411163330078,72.7747802734375,-7189.22509765625,65535.0
14212.884550569679,50.32260513305664,976.7196044921875,206.52976989746094,46.16349411010742,-15.31729507446289,43.4246940612793,24.45166015625,80.88143157958984,-7236.50537109375,65535.0
14212.88495057831,56.695438385009766,976.636962890625,211.3039093017578,51.689117431640625,-21.400339126586914,38.31972122192383,20.044353485107422,76.09831237792969,-7278.97216796875,65535.0
14212.885350586937,54.99321365356445,979.1463012695312,203.623779296875,52.0595817565918,-9.621617317199707,51.78430938720703,28.243528366088867,85.355712890625,-7321.60888671875,65535.0
14212.885750595568,57.413673400878906,970.5587768554688,209.26797485351562,25.837955474853516,-7.285067558288574,55.907257080078125,34.36467742919922,86.54729461669922,-7365.51318359375,65535.0
14212.886150604198,77.68681335449219,972.8748168945312,219.14657592773438,4.193034648895264,-14.513274192810059,49.750789642333984,26.68000030517578,84.25865173339844,-7414.576171875,65535.0
14212.886550612828,78.90433502197266,980.802001953125,220.79249572753906,-4.6541948318481445,-17.085477828979492,45.79054641723633,22.814674377441406,81.22833251953125,-7461.68408203125,65535.0
14212.886950621456,74.51626586914062,973.2215576171875,244.73825073242188,-16.54578399658203,-10.188834190368652,51.19951629638672,28.139915466308594,83.93167877197266,-7499.4189453125,65535.0
14212.887350630086,41.66863250732422,982.4268188476562,265.6164245605469,0.9800096154212952,1.7887582778930664,64.05534362792969,38.34428787231445,95.43468475341797,-7537.72119140625,65535.0
14212.887750638716,0.43240901827812195,987.2671508789062,296.178955078125,2.1701862812042236,-4.831027507781982,66.25165557861328,35.88587188720703,93.31260681152344,-7564.36376953125,65535.0
14212.888150647346,-7.313979625701904,984.2102661132812,313.6416015625,-2.7100777626037598,-4.974417686462402,63.661537170410156,37.9548225402832,93.2195053100586,-7599.869140625,65535.0
14212.888550655975,-13.3239107131958,971.2830200195312,319.9505920410156,-2.429063320159912,1.4110729694366455,70.11749267578125,38.66814422607422,96.1163558959961,-7656.2978515625,65535.0
14212.888950664605,-13.976343154907227,979.612548828125,322.2555236816406,5.337790489196777,-0.10372903943061829,71.8567886352539,36.567176818847656,94.76927185058594,-7672.14794921875,65535.0
14212.889350673235,-10.752419471740723,987.5795288085938,316.8848876953125,27.992679595947266,-2.9859158992767334,71.59545135498047,34.64418411254883,93.5156021118164,-7699.62109375,65535.0
14212.889750681865,-11.800054550170898,988.0074462890625,343.51068115234375,23.918657302856445,3.1812796592712402,77.91031646728516,41.39833450317383,99.37984466552734,-7739.11572265625,65535.0
14212.890150690493,-14.753914833068848,977.6546020507812,370.7560119628906,3.8503897190093994,12.738276481628418,90.94979858398438,52.89651107788086,107.89732360839844,-7741.71337890625,65535.0
14212.890550699123,-8.99642276763916,977.2945556640625,373.1556396484375,-6.488211154937744,-6.083212852478027,72.86241149902344,34.81282424926758,91.56773376464844,-7770.2509765625,65535.0
14212.890950707753,-4.03402042388916,976.1143188476562,387.53369140625,-6.024601459503174,-7.879332065582275,68.8973159790039,30.314355850219727,88.8969955444336,-7798.2236328125,65535.0
14212.891350716382,8.904203414916992,977.382080078125,389.0160827636719,-7.710415363311768,-12.273934364318848,65.42809295654297,29.227230072021484,85.43324279785156,-7812.4306640625,65535.0
14212.891750725012,1.2054446935653687,986.740478515625,375.6101989746094,2.9977145195007324,4.806905269622803,84.52193450927734,46.44667434692383,103.45345306396484,-7841.66259765625,65535.0
14212.892150733642,-33.934268951416016,998.5216064453125,358.07550048828125,0.929518461227417,3.103649854660034,82.00126647949219,43.16274642944336,99.25302124023438,-7858.9765625,65535.0
14212.892550742272,-62.84227752685547,990.8672485351562,325.2740173339844,12.118903160095215,0.8096593618392944,75.00379943847656,40.21919631958008,97.04534149169922,-7854.02197265625,65535.0
14212.892950750902,-70.44818115234375,987.4840087890625,296.9312744140625,20.941001892089844,-2.3082284927368164,74.1910171508789,37.31584167480469,90.8888931274414,-7860.376953125,65535.0
14212.89335075953,-114.36089324951172,987.803955078125,268.4340515136719,17.75324821472168,-7.941503047943115,69.39287567138672,31.52716064453125,90.44695281982422,-7876.1474609375,65535.0
14212.89375076816,-164.83421325683594,987.4453735351562,261.7434997558594,-4.659745216369629,-7.3315653800964355,68.83877563476562,32.06028366088867,89.24492645263672,-7879.150390625,65535.0
14212.89415077679,-229.01296997070312,990.7955932617188,241.10243225097656,-15.373982429504395,-12.049025535583496,65.05851745605469,27.281465530395508,86.88255310058594,-7884.80322265625,65535.0
14212.894550785419,-277.2030334472656,1006.0360717773438,194.53067016601562,-23.653833389282227,-5.983891487121582,68.08842468261719,33.756813049316406,93.95446014404297,-7885.6162109375,65535.0
14212.894950794049,-304.1923522949219,1006.5642700195312,186.15777587890625,-30.063674926757812,-10.270120620727539,62.76937484741211,29.60567283630371,87.1482162475586,-7887.31298828125,65535.0
14212.895350802679,-297.30755615234375,994.4765625,181.6146697998047,-40.42849349975586,-13.84129810333252,58.388423919677734,25.824560165405273,84.5093994140625,-7895.759765625,65535.0
14212.895750811309,-280.0321044921875,990.6679077148438,180.60391235351562,-31.183900833129883,-17.158756256103516,57.42094421386719,23.577342987060547,81.30416107177734,-7885.64697265625,65535.0
14212.896150819939,-262.0142517089844,990.3074340820312,177.1715850830078,-26.22900390625,-19.168392181396484,50.029624938964844,20.180095672607422,77.77259826660156,-7876.5400390625,65535.0
14212.896550828567,-236.72784423828125,992.291259765625,135.48492431640625,-23.99803352355957,-21.516069412231445,46.10284423828125,17.261472702026367,73.98893737792969,-7880.96240234375,65535.0
14212.896950837197,-218.80303955078125,985.1483154296875,90.73866271972656,-21.69357681274414,-17.156387329101562,51.88417434692383,22.598617553710938,78.81267547607422,-7876.3671875,65535.0
14212.897350845828,-214.3048858642578,997.632568359375,84.21682739257812,-35.16897201538086,-20.41584014892578,44.540245056152344,18.78723907470703,75.5649642944336,-7860.4365234375,65535.0
14212.897750854456,-201.91439819335938,1008.94677734375,82.54666900634766,-41.83637237548828,-26.488554000854492,34.940711975097656,10.263531684875488,69.33927154541016,-7863.75244140625,65535.0
14212.898150863086,-176.42169189453125,1008.6332397460938,103.03479766845703,-45.70048141479492,-28.266712188720703,32.47102737426758,9.6371488571167,70.29173278808594,-7835.36376953125,65535.0
14212.898550871716,-139.23272705078125,1003.0668334960938,109.05127716064453,-44.01896667480469,-24.22978973388672,39.54415512084961,16.70867347717285,73.32830810546875,-7803.0888671875,65535.0
14212.898950880346,-134.00515747070312,1000.7482299804688,101.3934555053711,-50.84247970581055,-22.18861198425293,40.09621810913086,16.173694610595703,72.83265686035156,-7802.0224609375,65535.0
14212.899350888976,-124.84188079833984,997.9115600585938,113.34691619873047,-44.26308822631836,-13.799239158630371,46.54228591918945,24.530824661254883,83.67182922363281,-7780.23583984375,65535.0
14212.899750897604,-100.28502655029297,1006.4993286132812,120.2467269897461,-14.709789276123047,-21.67531967163086,36.25921630859375,15.174332618713379,74.34929656982422,-7755.52001953125,65535.0
14212.900150906235,-89.75086212158203,997.760986328125,156.32090759277344,1.511581540107727,-22.368513107299805,35.05531311035156,16.067346572875977,73.94955444335938,-7737.72802734375,65535.0
14212.900550914865,-57.806724548339844,998.7503051757812,196.60108947753906,4.83229923248291,-17.201208114624023,41.166683197021484,22.183618545532227,80.98269653320312,-7716.8642578125,65535.0
14212.900950923493,-38.77397918701172,1005.4602661132812,229.4076385498047,10.765993118286133,-23.628053665161133,33.11052322387695,15.340222358703613,71.79374694824219,-7696.67919921875,65535.0
14212.901350932123,-25.840686798095703,1001.473388671875,220.06039428710938,11.893407821655273,-20.904560089111328,33.73097610473633,19.16578483581543,76.99384307861328,-7664.9912109375,65535.0
14212.901750940753,-4.715152740478516,1003.0888061523438,177.9931182861328,7.857790470123291,-23.28432273864746,34.16021728515625,16.626480102539062,73.02804565429688,-7633.90478515625,65535.0
14212.902150949383,20.518043518066406,999.7545776367188,155.55455017089844,12.63435173034668,-25.312286376953125,31.768892288208008,13.712176322937012,71.04741668701172,-7597.896484375,65535.0
14212.902550958011,26.335493087768555,1005.396728515625,162.0334014892578,17.938161849975586,-34.06871795654297,20.388879776000977,5.258766174316406,60.63468551635742,-7571.9794921875,65535.0
14212.902950966642,71.2959976196289,1001.0543823242188,172.64784240722656,18.636104583740234,-27.124591827392578,27.262475967407227,10.791433334350586,69.18521881103516,-7541.3427734375,65535.0
14212.903350975272,116.81407928466797,1000.3470458984375,164.41099548339844,34.492977142333984,-17.82461929321289,37.420719146728516,17.050514221191406,77.00534057617188,-7507.70654296875,65535.0
14212.903750983902,148.72312927246094,999.0056762695312,175.60244750976562,38.90785217285156,-19.943758010864258,37.96607971191406,17.87611961364746,74.8580551147461,-7464.404296875,65535.0
14212.90415099253,192.197021484375,995.697998046875,190.24114990234375,37.865821838378906,-19.59148597717285,35.436344146728516,16.445344924926758,75.3500747680664,-7430.6884765625,65535.0
14212.90455100116,231.46363830566406,1003.1915893554688,202.40521240234375,34.21952438354492,-22.117782592773438,38.35310363769531,15.005159378051758,73.93416595458984,-7410.0078125,65535.0
14212.90495100979,241.71022033691406,1004.0399169921875,198.54833984375,32.16673278808594,-20.64931297302246,38.75498962402344,20.608901977539062,76.24597930908203,-7364.00537109375,65535.0
14212.90535101842,234.0792236328125,1009.4025268554688,184.63661193847656,16.465126037597656,-18.094694137573242,40.79454040527344,22.662385940551758,80.61283874511719,-7329.5,65535.0
14212.905751027049,228.2794189453125,1005.687255859375,169.9113006591797,-5.8879780769348145,-13.26029109954834,47.730098724365234,25.993497848510742,84.50670623779297,-7287.64208984375,65535.0
14212.906151035679,195.66905212402344,997.2881469726562,154.1141815185547,-17.586681365966797,-8.742128372192383,55.00218963623047,32.45002746582031,87.98571014404297,-7238.16455078125,65535.0
14212.906551044309,158.0568389892578,999.033935546875,144.91607666015625,-11.368377685546875,-19.3693904876709,44.5089225769043,21.02211570739746,77.3161849975586,-7199.0205078125,65535.0
14212.906951052939,136.07264709472656,991.1513671875,112.83440399169922,-5.395594120025635,-18.93497657775879,44.11278533935547,18.056468963623047,76.47171020507812,-7149.26611328125,65535.0
14212.907351061567,117.34830474853516,994.2571411132812,93.81535339355469,-1.162850260734558,-12.596220970153809,55.314117431640625,28.687301635742188,84.06021881103516,-7102.91552734375,65535.0
14212.907751070197,104.5192642211914,995.3858032226562,82.66749572753906,6.985832691192627,-12.665665626525879,56.81304168701172,26.63599395751953,79.97234344482422,-7054.5927734375,65535.0
14212.908151078827,80.14337158203125,989.226318359375,71.341796875,23.27617645263672,-3.8059704303741455,64.99112701416016,34.961585998535156,93.24268341064453,-7022.34375,65535.0
14212.908551087457,38.744991302490234,978.6982421875,69.8153076171875,25.272008895874023,-16.95757293701172,54.045677185058594,23.02794075012207,81.01628875732422,-6972.1025390625,65535.0
14212.908951096086,24.85446548461914,991.8883666992188,62.474151611328125,17.887027740478516,-10.775298118591309,57.7923698425293,28.43431854248047,83.41051483154297,-6916.31396484375,65535.0
14212.909351104716,22.741147994995117,991.8173217773438,71.60096740722656,1.4299819469451904,-10.48474407196045,61.367218017578125,29.57948112487793,86.7187728881836,-6870.15869140625,65535.0
14212.909751113346,33.42366027832031,986.5172729492188,106.8064193725586,-5.156902313232422,-10.271347999572754,66.2205581665039,30.99759292602539,87.03636169433594,-6824.81103515625,65535.0
14212.910151121976,52.09695816040039,992.3768310546875,127.47415161132812,-13.350747108459473,-11.133927345275879,65.28590393066406,26.91291618347168,83.94038391113281,-6769.6884765625,65535.0
14212.910551130604,73.06269073486328,985.9789428710938,120.26866149902344,-35.02199172973633,-11.883049964904785,67.54662322998047,31.652170181274414,85.68474578857422,-6708.61474609375,65535.0
14212.910951139234,89.21890258789062,993.6441040039062,115.51763153076172,-68.8000259399414,-7.4405012130737305,69.55836486816406,31.24764060974121,86.64630889892578,-6673.5126953125,65535.0
14212.911351147864,81.0977554321289,989.6853637695312,117.11388397216797,-70.6135482788086,-1.4187175035476685,74.88710021972656,38.50856399536133,92.9285659790039,-6622.1298828125,65535.0
14212.911751156495,37.4755859375,987.891357421875,107.19790649414062,-76.73259735107422,-19.559139251708984,59.615970611572266,20.20069122314453,79.69868469238281,-6557.6796875,65535.0
14212.912151165123,-18.941360473632812,993.2001342773438,90.7562484741211,-73.93949890136719,-10.011465072631836,66.7835464477539,29.240859985351562,87.36698913574219,-6495.65625,65535.0
14212.912551173753,-75.23299407958984,995.5833129882812,84.94210052490234,-66.79572296142578,0.07949430495500565,79.54051208496094,41.984130859375,97.39449310302734,-6440.05810546875,65535.0
14212.912951182383,-106.96851348876953,997.0869750976562,84.73330688476562,-56.01439666748047,-12.63135814666748,68.9264144897461,28.131826400756836,85.09320068359375,-6406.57763671875,65535.0
14212.913351191013,-120.07112121582031,1005.6289672851562,69.12519073486328,-42.552040100097656,-16.16234588623047,60.33625411987305,21.577871322631836,80.16302490234375,-6347.85888671875,65535.0
14212.913751199641,-117.45645141601562,998.40087890625,70.63682556152344,-45.35496520996094,-6.542484283447266,71.63660430908203,33.380252838134766,91.19721984863281,-6284.541015625,65535.0
14212.914151208272,-110.7066879272461,1004.7835083007812,58.359642028808594,-45.4495735168457,-4.458728313446045,74.65340423583984,37.443450927734375,91.59180450439453,-6233.64306640625,65535.0
14212.914551216902,-99.97344970703125,1005.1567993164062,58.50701904296875,-29.542564392089844,-3.387401580810547,70.19927978515625,34.03179931640625,91.51094055175781,-6166.73779296875,65535.0
14212.914951225532,-106.34382629394531,994.4769897460938,61.029144287109375,-15.926273345947266,-11.000800132751465,60.59016036987305,24.92154312133789,81.56070709228516,-6105.2412109375,65535.0
14212.91535123416,-109.59793853759766,995.9466552734375,63.384559631347656,-29.58758544921875,-10.836747169494629,61.12328338623047,27.24693489074707,83.55716705322266,-6060.86181640625,65535.0
14212.91575124279,-91.74158477783203,994.0552368164062,67.00593566894531,-20.974924087524414,-15.389073371887207,55.7506103515625,25.108156204223633,79.57279205322266,-5994.05126953125,65535.0
14212.91615125142,-75.89351654052734,1001.16064453125,65.46380615234375,-33.06184387207031,-10.672942161560059,59.827083587646484,26.240352630615234,82.77132415771484,-5943.94921875,65535.0
14212.91655126005,-52.970821380615234,1002.7918701171875,80.70252227783203,-41.88574981689453,-4.506735324859619,67.53050994873047,33.735877990722656,88.41938018798828,-5885.44873046875,65535.0
