0,1,2,3,4,5,6,7,8,9,10
18838.97607157659,-547.5191040039062,141.0417938232422,-137.54086303710938,-306.54132080078125,-29.160696029663086,55.97850799560547,13.15283489227295,70.15957641601562,84.05208587646484,65535.0
18838.976471585145,-554.5689086914062,134.31922912597656,-131.25880432128906,-324.3533630371094,-31.173847198486328,55.316741943359375,11.64818286895752,67.20342254638672,79.66445922851562,65535.0
18838.9768715937,-571.0274047851562,120.1666259765625,-124.82833099365234,-336.36614990234375,-23.93923568725586,63.54966735839844,19.7673397064209,75.5589599609375,89.7808609008789,65535.0
18838.97727160225,-584.2005615234375,119.98600006103516,-128.84292602539062,-350.0635070800781,-23.12858772277832,65.89714050292969,21.351909637451172,76.01295471191406,87.00756072998047,65535.0
18838.977671610803,-580.4022827148438,126.59208679199219,-119.61243438720703,-403.37457275390625,-19.13169288635254,69.88866424560547,21.30809783935547,76.31058502197266,85.86380004882812,65535.0
18838.978071619356,-568.0595092773438,122.67433166503906,-111.68295288085938,-460.01702880859375,-18.710365295410156,69.3090591430664,20.68379783630371,78.1278305053711,89.5112075805664,65535.0
18838.978471627906,-548.0145874023438,129.83065795898438,-114.82080841064453,-487.44561767578125,-21.005231857299805,68.00585174560547,19.5048828125,79.93994140625,82.01053619384766,65535.0
18838.97887163646,-528.03125,133.78921508789062,-114.78617095947266,-485.415283203125,-14.955899238586426,76.1247787475586,26.48479461669922,87.1685562133789,87.21746826171875,65535.0
18838.979271645014,-522.7058715820312,126.97318267822266,-123.26724243164062,-476.59173583984375,-30.292720794677734,59.640953063964844,15.939334869384766,72.35640716552734,101.84449005126953,65535.0
18838.979671653567,-538.364013671875,139.84080505371094,-121.27943420410156,-477.5704345703125,-13.967939376831055,69.57971954345703,23.723562240600586,82.76262664794922,93.45350646972656,65535.0
18838.980071662118,-532.798583984375,138.81190490722656,-104.52425384521484,-461.6463623046875,-14.618363380432129,74.34913635253906,27.243701934814453,84.36019897460938,96.057861328125,65535.0
18838.98047167067,-504.2798156738281,140.87339782714844,-103.3781509399414,-429.7359619140625,-21.45036506652832,65.06200408935547,20.061573028564453,77.77254486083984,100.91779327392578,65535.0
18838.980871679225,-505.65625,143.6591033935547,-97.06231689453125,-397.64849853515625,-20.46988868713379,67.40496063232422,22.577985763549805,80.538818359375,86.7899169921875,65535.0
18838.981271687775,-530.8341674804688,139.09732055664062,-104.92686462402344,-382.2673645019531,-18.9477481842041,68.48575592041016,23.096864700317383,84.28707122802734,84.27930450439453,65535.0
18838.98167169633,-543.2284545898438,135.0050048828125,-115.5727310180664,-364.4783630371094,-21.87196159362793,63.74094772338867,19.08806610107422,76.70673370361328,85.70726776123047,65535.0
18838.982071704882,-549.714599609375,144.87667846679688,-117.32272338867188,-324.45404052734375,-20.448137283325195,61.454254150390625,19.981250762939453,79.93637084960938,92.3744125366211,65535.0
18838.982471713436,-551.5498046875,144.00274658203125,-119.06285858154297,-298.0542907714844,-18.931556701660156,66.97286224365234,20.974061965942383,81.84053802490234,91.87561798095703,65535.0
18838.982871721986,-543.9563598632812,132.45822143554688,-117.15123748779297,-266.77117919921875,-14.887941360473633,72.11111450195312,24.499984741210938,84.22370147705078,97.35352325439453,65535.0
18838.98327173054,-546.881591796875,141.87808227539062,-110.69783782958984,-238.11636352539062,-21.56835174560547,58.0830078125,19.83784294128418,74.54759979248047,91.74274444580078,65535.0
18838.983671739094,-535.9838256835938,139.30563354492188,-97.66729736328125,-220.12136840820312,-30.865938186645508,48.14210891723633,9.486311912536621,69.77485656738281,76.61132049560547,65535.0
18838.984071747644,-509.470947265625,135.30914306640625,-82.66143035888672,-216.16090393066406,-23.47260284423828,53.08534240722656,14.841512680053711,75.42095947265625,83.7947006225586,65535.0
18838.984471756197,-489.1521911621094,141.4736785888672,-84.0854263305664,-277.7271423339844,-29.603883743286133,46.701847076416016,10.504569053649902,70.08403015136719,84.16616821289062,65535.0
18838.98487176475,-479.6340637207031,148.90115356445312,-90.71379089355469,-379.5115051269531,-36.61029052734375,39.43729019165039,4.8232574462890625,65.39186096191406,84.89900970458984,65535.0
18838.985271773305,-474.47955322265625,145.62652587890625,-93.77654266357422,-438.3594055175781,-25.270647048950195,46.707454681396484,13.743782997131348,71.77310943603516,87.83057403564453,65535.0
18838.985671781855,-479.77001953125,145.35519409179688,-83.59899139404297,-492.26959228515625,-31.802433013916016,39.97090148925781,7.765745639801025,63.26231002807617,86.41409301757812,65535.0
18838.98607179041,-474.33026123046875,146.4534912109375,-83.95402526855469,-525.387451171875,-31.33380889892578,37.61896896362305,7.239781379699707,67.10135650634766,86.1438980102539,65535.0
18838.986471798962,-478.2369689941406,147.45579528808594,-85.35967254638672,-535.3286743164062,-33.403839111328125,40.61896896362305,8.989011764526367,70.11685180664062,89.5720443725586,65535.0
18838.986871807512,-481.84454345703125,152.1995849609375,-75.0030517578125,-527.4281616210938,-38.776580810546875,29.34454345703125,5.257739067077637,61.679412841796875,85.49592590332031,65535.0
18838.987271816066,-470.1275329589844,158.25889587402344,-88.02721405029297,-517.6146240234375,-36.98613739013672,27.180763244628906,2.443781852722168,61.789581298828125,84.79888153076172,65535.0
18838.98767182462,-481.9495544433594,146.25814819335938,-88.17266082763672,-522.7947998046875,-41.72962951660156,29.015329360961914,0.08884624391794205,59.70905685424805,84.49254608154297,65535.0
18838.988071833173,-500.67706298828125,136.70773315429688,-101.37406158447266,-515.1671752929688,-40.27596664428711,25.540666580200195,-0.704766571521759,56.66230773925781,75.87052917480469,65535.0
18838.988471841723,-517.8821411132812,141.19224548339844,-101.62140655517578,-436.1623840332031,-32.558204650878906,32.38972854614258,5.017689228057861,65.2677230834961,87.92866516113281,65535.0
18838.988871850277,-549.949462890625,130.974609375,-103.20054626464844,-373.4775390625,-30.5594482421875,37.8584098815918,10.212629318237305,67.13578033447266,83.49636840820312,65535.0
18838.98927185883,-571.2877197265625,120.05721282958984,-103.73820495605469,-370.6715087890625,-31.54777717590332,38.512664794921875,9.35165023803711,69.10160827636719,89.3120346069336,65535.0
18838.98967186738,-568.5772094726562,116.29727172851562,-110.98600769042969,-375.2002868652344,-33.074485778808594,37.06611633300781,5.3209075927734375,66.7092056274414,94.27345275878906,65535.0
18838.990071875935,-580.9454956054688,108.39958953857422,-88.92914581298828,-348.3509521484375,-27.783756256103516,43.629051208496094,15.083258628845215,73.7705078125,79.87069702148438,65535.0
18838.99047188449,-605.273193359375,120.28292083740234,-92.02320861816406,-323.7704162597656,-22.802175521850586,51.241233825683594,21.094329833984375,76.89966583251953,96.50521087646484,65535.0
18838.990871893042,-622.4048461914062,117.22128295898438,-111.72949981689453,-300.6914367675781,-29.35114860534668,40.406959533691406,12.663200378417969,67.31398010253906,96.54134368896484,65535.0
18838.991271901592,-614.17822265625,111.99258422851562,-114.9226303100586,-260.1463317871094,-29.996938705444336,40.76399230957031,14.394445419311523,71.98228454589844,99.74271392822266,65535.0
18838.991671910146,-598.6209716796875,115.58683776855469,-112.48493957519531,-242.79879760742188,-30.294116973876953,43.36358642578125,12.671906471252441,70.4625244140625,97.66893768310547,65535.0
18838.9920719187,-623.2196655273438,117.6293716430664,-102.7711410522461,-281.0374450683594,-32.56940841674805,33.843570709228516,6.185018539428711,63.44129180908203,84.77853393554688,65535.0
18838.99247192725,-643.9954833984375,117.96630859375,-106.84376525878906,-337.4426574707031,-24.67301368713379,50.10251235961914,15.215956687927246,72.69452667236328,94.8829116821289,65535.0
18838.992871935803,-631.6541137695312,116.37036895751953,-115.13412475585938,-369.7161560058594,-21.171762466430664,54.96492385864258,17.593957901000977,73.59648132324219,99.49683380126953,65535.0
18838.993271944357,-626.6406860351562,112.06147766113281,-119.67052459716797,-334.6163635253906,-29.20546531677246,43.83903884887695,12.688642501831055,72.11551666259766,81.1585922241211,65535.0
18838.99367195291,-621.010009765625,116.4761734008789,-123.46332550048828,-306.1669921875,-21.703502655029297,52.78724670410156,17.858015060424805,76.98400115966797,83.63684844970703,65535.0
18838.99407196146,-633.3859252929688,121.52542877197266,-125.37777709960938,-312.83001708984375,-19.740325927734375,61.64274597167969,21.73768424987793,80.58218383789062,98.13764953613281,65535.0
18838.994471970014,-649.000732421875,123.62962341308594,-126.55593872070312,-372.5696105957031,-27.228656768798828,56.245445251464844,15.800009727478027,74.20155334472656,91.597412109375,65535.0
18838.994871978568,-637.3690795898438,127.6164779663086,-123.2613525390625,-454.1561584472656,-29.148462295532227,53.33234786987305,14.799331665039062,72.21470642089844,90.20773315429688,65535.0
18838.995271987118,-617.4628295898438,118.75615692138672,-117.53099822998047,-484.54022216796875,-16.56084442138672,64.46937561035156,22.342100143432617,80.38862609863281,87.93263244628906,65535.0
18838.99567199567,-592.0218505859375,128.05865478515625,-119.51466369628906,-481.4471130371094,-20.762258529663086,65.78197479248047,20.994592666625977,75.04581451416016,92.38331604003906,65535.0
18838.996072004225,-589.4529418945312,117.13045501708984,-124.03083801269531,-441.39312744140625,-28.11246109008789,59.12119674682617,13.698822021484375,74.95560455322266,92.23896026611328,65535.0
18838.99647201278,-583.4299926757812,118.08647155761719,-120.81654357910156,-389.1505432128906,-18.00580596923828,66.56806945800781,20.6512393951416,81.31546020507812,99.58438110351562,65535.0
18838.99687202133,-574.1423950195312,125.17411041259766,-115.85360717773438,-317.8583068847656,-14.688972473144531,74.46798706054688,21.80059814453125,83.41987609863281,91.1435775756836,65535.0
18838.997272029883,-565.390869140625,121.38325500488281,-116.36980438232422,-271.91839599609375,-15.648343086242676,73.09268951416016,24.83898162841797,83.1396713256836,94.32264709472656,65535.0
18838.997672038437,-562.9182739257812,121.19937896728516,-119.61125183105469,-253.3115234375,-19.97544288635254,67.2550048828125,16.69982147216797,75.76634216308594,94.30229949951172,65535.0
18838.998072046987,-555.4432983398438,119.93206787109375,-111.44831085205078,-250.3349151611328,-27.34782600402832,62.436832427978516,13.449762344360352,74.9367446899414,101.02899932861328,65535.0
18838.99847205554,-547.8474731445312,123.55712127685547,-122.70285034179688,-264.02593994140625,-19.5449161529541,70.62518310546875,21.36008644104004,81.298095703125,110.64187622070312,65535.0
18838.998872064094,-547.1264038085938,131.35597229003906,-122.6957778930664,-267.33843994140625,-14.123810768127441,75.61590576171875,25.86543083190918,84.6439208984375,98.8746566772461,65535.0
18838.999272072648,-576.9558715820312,124.73211669921875,-123.40902709960938,-273.5480651855469,-13.998741149902344,76.13138580322266,24.350461959838867,84.5343246459961,101.1874771118164,65535.0
18838.999672081198,-603.9241333007812,127.35662841796875,-117.68602752685547,-273.691650390625,-26.22726821899414,63.93556213378906,18.306852340698242,74.72494506835938,100.36357116699219,65535.0
18839.00007208975,-593.837646484375,130.7745361328125,-115.71005249023438,-287.8576354980469,-19.931652069091797,69.63900756835938,22.3609561920166,78.10006713867188,75.86050415039062,65535.0
18839.000472098305,-574.09716796875,119.1451644897461,-116.24763488769531,-298.7309265136719,-12.757515907287598,76.23876190185547,27.597257614135742,86.62462615966797,70.09566497802734,65535.0
18839.000872106855,-554.6578369140625,123.31558227539062,-100.8572998046875,-290.7627868652344,-21.215194702148438,66.14591217041016,22.048809051513672,78.17425537109375,77.0695571899414,65535.0
18839.00127211541,-562.4872436523438,123.96390533447266,-117.5796127319336,-301.5946350097656,-23.70747947692871,62.04813766479492,17.803462982177734,74.61575317382812,93.5559310913086,65535.0
18839.001672123963,-575.8502197265625,126.8764877319336,-117.31021118164062,-316.0667419433594,-30.730937957763672,55.22361755371094,9.947004318237305,70.77086639404297,94.29792785644531,65535.0
18839.002072132516,-564.0047607421875,127.51754760742188,-104.14889526367188,-319.1612548828125,-27.82175636291504,51.542701721191406,10.765314102172852,71.22794342041016,93.77261352539062,65535.0
18839.002472141066,-572.03271484375,112.1163330078125,-100.896484375,-302.983642578125,-23.673471450805664,53.72686004638672,15.702877044677734,73.45533752441406,84.34950256347656,65535.0
18839.00287214962,-560.228515625,113.31326293945312,-109.18435668945312,-286.26312255859375,-36.094356536865234,41.03567123413086,3.3230135440826416,63.0830192565918,88.17478942871094,65535.0
18839.003272158174,-534.8026123046875,115.42565155029297,-104.99494171142578,-292.0041809082031,-32.33689880371094,43.32263946533203,9.186884880065918,67.34132385253906,87.27352142333984,65535.0
18839.003672166724,-532.5234375,119.26808166503906,-89.86082458496094,-335.3238220214844,-32.031158447265625,43.68368148803711,10.41853141784668,68.60173034667969,89.19642639160156,65535.0
18839.004072175278,-525.7142333984375,129.19631958007812,-106.04450988769531,-386.69610595703125,-30.941600799560547,46.562686920166016,11.986906051635742,69.03549194335938,82.55594635009766,65535.0
18839.00447218383,-521.6162719726562,126.21720886230469,-100.50679016113281,-383.0507507324219,-31.943134307861328,43.34823989868164,7.4827656745910645,67.03031921386719,75.21855926513672,65535.0
18839.004872192385,-503.4547424316406,128.31314086914062,-85.8299560546875,-380.2838134765625,-31.78773307800293,43.98365020751953,10.114270210266113,67.47709655761719,88.08950805664062,65535.0
18839.005272200935,-499.2039489746094,127.38518524169922,-93.91893005371094,-380.58221435546875,-39.794456481933594,31.636377334594727,0.8454260230064392,61.12343215942383,82.79792785644531,65535.0
18839.00567220949,-506.55767822265625,120.39983367919922,-93.31991577148438,-388.52288818359375,-40.99027633666992,28.27422332763672,2.084810256958008,57.78716278076172,88.01917266845703,65535.0
18839.006072218042,-517.7732543945312,132.91200256347656,-78.9870376586914,-390.6418762207031,-40.08008575439453,29.73590850830078,2.6911227703094482,58.283477783203125,89.4610595703125,65535.0
18839.006472226592,-534.4107055664062,133.92156982421875,-69.1368179321289,-383.9538879394531,-39.82484817504883,29.991178512573242,3.274793863296509,57.95130157470703,91.99119567871094,65535.0
18839.006872235146,-518.9803466796875,137.9195098876953,-88.05860137939453,-374.17779541015625,-42.33767318725586,25.401592254638672,-1.090344786643982,57.93914794921875,93.81563568115234,65535.0
18839.0072722437,-496.9082336425781,124.68892669677734,-94.74327087402344,-366.8652038574219,-36.81040954589844,30.69466781616211,4.223893165588379,61.527320861816406,101.43585205078125,65535.0
18839.007672252254,-479.423583984375,125.70914459228516,-101.85601043701172,-361.92510986328125,-47.63908004760742,18.302629470825195,-8.073745727539062,49.04756164550781,94.1744155883789,65535.0
18839.008072260804,-475.4642333984375,123.34517669677734,-103.7238998413086,-370.14019775390625,-43.58659744262695,19.731731414794922,-6.734013080596924,51.93687438964844,88.21759796142578,65535.0
18839.008472269357,-466.76226806640625,108.56231689453125,-104.1115951538086,-372.0794982910156,-42.25743865966797,22.451452255249023,-1.9376033544540405,54.373870849609375,93.25099182128906,65535.0
18839.00887227791,-457.35870361328125,113.4578857421875,-96.3514404296875,-371.83856201171875,-35.1215705871582,31.705223083496094,5.471712589263916,60.23514175415039,97.52896881103516,65535.0
18839.00927228646,-472.8486633300781,112.01490020751953,-106.19256591796875,-369.0558166503906,-27.734146118164062,42.02922058105469,12.598925590515137,70.13190460205078,86.81604766845703,65535.0
18839.009672295015,-500.49066162109375,111.80189514160156,-116.62701416015625,-373.3407897949219,-28.497669219970703,40.39488983154297,10.950485229492188,70.41888427734375,88.19117736816406,65535.0
18839.01007230357,-519.5973510742188,107.06300354003906,-105.41259002685547,-379.1428527832031,-33.089054107666016,37.20160675048828,7.3679938316345215,65.87005615234375,99.9370346069336,65535.0
18839.010472312122,-524.6061401367188,115.09933471679688,-119.22334289550781,-376.2173767089844,-33.125526428222656,37.66819381713867,6.723057746887207,66.69943237304688,86.74467468261719,65535.0
18839.010872320672,-523.0615234375,110.7128677368164,-118.47476196289062,-375.56231689453125,-33.17218780517578,38.50376892089844,9.239591598510742,68.86087799072266,98.65001678466797,65535.0
18839.011272329226,-525.7205810546875,102.07866668701172,-113.0904541015625,-376.4657287597656,-30.28738021850586,41.085304260253906,11.231310844421387,67.23661804199219,86.68476867675781,65535.0
18839.01167233778,-532.372314453125,99.07071685791016,-115.06622314453125,-380.6981201171875,-17.975191116333008,55.26890563964844,24.0854434967041,81.31160736083984,90.4219741821289,65535.0
18839.01207234633,-537.1384887695312,96.81766510009766,-111.84881591796875,-379.3373107910156,-21.60425567626953,57.547950744628906,21.23194122314453,78.06111907958984,99.16336059570312,65535.0
18839.012472354883,-543.9695434570312,104.89786529541016,-109.6788101196289,-390.0234375,-16.616559982299805,56.92316818237305,22.469728469848633,82.95281982421875,95.82612609863281,65535.0
18839.012872363437,-535.9336547851562,101.25365447998047,-114.03987884521484,-388.2629089355469,-20.966022491455078,55.944122314453125,21.169971466064453,76.3128433227539,98.19334411621094,65535.0
18839.01327237199,-539.6177978515625,96.52201843261719,-108.5113296508789,-385.0053405761719,-26.65766716003418,52.51329803466797,14.45022201538086,70.87199401855469,93.55595397949219,65535.0
18839.01367238054,-542.31103515625,102.16787719726562,-112.57503509521484,-383.2856140136719,-28.407058715820312,51.197025299072266,14.66484260559082,73.26395416259766,83.68094635009766,65535.0
18839.014072389095,-521.0965576171875,112.4293212890625,-107.49726867675781,-385.8260192871094,-24.09918785095215,58.313819885253906,18.329437255859375,77.45594024658203,96.16353607177734,65535.0
18839.01447239765,-497.2394714355469,104.55254364013672,-124.96910095214844,-386.5759582519531,-23.69441032409668,58.437965393066406,18.523860931396484,73.48372650146484,100.2071533203125,65535.0
18839.0148724062,-495.81585693359375,96.82103729248047,-120.76648712158203,-392.5116271972656,-26.76896095275879,55.63438415527344,13.704955101013184,73.19786071777344,85.28553009033203,65535.0
18839.015272414752,-501.5465393066406,101.79905700683594,-119.47154235839844,-391.64849853515625,-34.63361358642578,48.94366455078125,9.362815856933594,65.41191101074219,79.37293243408203,65535.0
18839.015672423306,-508.3323059082031,96.04707336425781,-131.3390655517578,-392.350830078125,-24.47420310974121,56.60905075073242,13.832600593566895,73.23958587646484,87.18724822998047,65535.0
18839.01607243186,-545.209228515625,87.57350158691406,-132.75709533691406,-398.5762634277344,-20.2445125579834,65.89668273925781,20.839130401611328,77.06041717529297,92.83143615722656,65535.0
18839.01647244041,-573.6154174804688,89.33311462402344,-136.60311889648438,-398.46197509765625,-27.71977424621582,59.19557189941406,12.312216758728027,72.2359619140625,98.53593444824219,65535.0
18839.016872448963,-582.5040893554688,91.01282501220703,-140.17649841308594,-409.1653137207031,-19.67005729675293,65.73896026611328,19.04446029663086,78.76409912109375,85.49256896972656,65535.0
18839.017272457517,-581.2694702148438,105.39937591552734,-128.79307556152344,-408.9946594238281,-16.873889923095703,74.46072387695312,25.509918212890625,80.958740234375,86.49092864990234,65535.0
18839.017672466067,-564.2286987304688,110.16508483886719,-128.02516174316406,-424.3564453125,-17.309236526489258,71.2402572631836,22.200037002563477,79.64656066894531,81.18811798095703,65535.0
18839.01807247462,-556.6170043945312,115.23081970214844,-127.08934783935547,-444.00738525390625,-18.306663513183594,70.37991333007812,22.96280860900879,81.95071411132812,87.01253509521484,65535.0
18839.018472483174,-563.1808471679688,121.48099517822266,-128.43145751953125,-464.14556884765625,-8.7867431640625,83.57678985595703,30.167394638061523,90.8520278930664,78.75286865234375,65535.0
18839.018872491728,-572.620849609375,121.55130004882812,-126.35704803466797,-473.24078369140625,-12.777592658996582,78.62890625,29.726621627807617,85.60752868652344,78.22830200195312,65535.0
18839.019272500278,-566.4694213867188,118.54174041748047,-119.72673034667969,-422.8377380371094,-9.992057800292969,81.8231430053711,33.59988021850586,90.11913299560547,89.32024383544922,65535.0
18839.01967250883,-589.446044921875,118.067138671875,-111.14674377441406,-381.8494873046875,-12.44851303100586,75.51243591308594,28.14665985107422,86.65360260009766,96.11490631103516,65535.0
18839.020072517385,-609.4970092773438,122.16343688964844,-120.95879364013672,-387.2506103515625,-7.481078147888184,80.04779815673828,32.269248962402344,91.23015594482422,96.92947387695312,65535.0
18839.020472525935,-596.4135131835938,128.0594940185547,-105.40721130371094,-392.5870361328125,-22.971071243286133,63.81584930419922,17.89458465576172,76.3219985961914,83.02574157714844,65535.0
18839.02087253449,-579.7841186523438,112.64488220214844,-112.62206268310547,-394.45703125,-14.119651794433594,68.02254486083984,27.05083465576172,84.19984436035156,84.27824401855469,65535.0
18839.021272543043,-570.984375,106.85832977294922,-124.43914794921875,-390.4197692871094,-4.473870754241943,81.47093200683594,35.1192626953125,93.31912231445312,89.08072662353516,65535.0
18839.021672551593,-562.1868896484375,111.86787414550781,-117.72933959960938,-375.0852966308594,-15.053574562072754,73.21910095214844,28.037080764770508,85.98271942138672,85.77975463867188,65535.0
18839.022072560147,-560.4324340820312,108.53063201904297,-124.1318130493164,-346.41070556640625,-10.510615348815918,71.41047668457031,28.778955459594727,88.08792114257812,92.42522430419922,65535.0
18839.0224725687,-575.0254516601562,107.15926361083984,-113.18048095703125,-320.59307861328125,-9.800727844238281,76.49385070800781,30.431873321533203,90.9061279296875,103.7514419555664,65535.0
18839.022872577254,-597.2496337890625,103.52710723876953,-119.13670349121094,-330.5327453613281,-9.374983787536621,71.06053924560547,29.98749351501465,85.9097900390625,82.86461639404297,65535.0
18839.023272585804,-607.680419921875,117.6845703125,-125.35796356201172,-333.94732666015625,-18.73948097229004,63.6250114440918,23.72008514404297,80.20895385742188,85.21971893310547,65535.0
18839.023672594358,-606.8402709960938,119.67867279052734,-112.46668243408203,-345.9012451171875,-21.855478286743164,56.016815185546875,19.994915008544922,79.52413940429688,85.72329711914062,65535.0
18839.02407260291,-595.1805419921875,111.5154800415039,-106.94634246826172,-367.42999267578125,-22.880876541137695,50.95982360839844,17.009185791015625,75.59052276611328,93.74444580078125,65535.0
18839.02447261146,-568.145751953125,122.52293395996094,-101.97339630126953,-375.3421936035156,-23.77078628540039,50.48949432373047,16.228548049926758,72.8604507446289,95.32939147949219,65535.0
18839.024872620015,-544.3650512695312,131.60166931152344,-104.51084899902344,-389.7814025878906,-12.067962646484375,61.336856842041016,26.405452728271484,82.99246978759766,102.34073638916016,65535.0
18839.02527262857,-535.032958984375,127.0611572265625,-100.06761169433594,-396.1542053222656,-16.42108154296875,56.7242317199707,22.76622772216797,82.51956176757812,100.16998291015625,65535.0
18839.025672637123,-540.9925537109375,129.6630096435547,-96.77406311035156,-365.8559875488281,-22.870410919189453,48.19145584106445,16.66497039794922,77.52179718017578,98.36935424804688,65535.0
18839.026072645673,-562.4747924804688,132.83319091796875,-100.76124572753906,-363.4341735839844,-19.90523910522461,54.60298156738281,23.528160095214844,81.49285888671875,92.26025390625,65535.0
18839.026472654226,-571.4666137695312,132.96827697753906,-100.74811553955078,-386.4231872558594,-26.360448837280273,46.861907958984375,16.33107566833496,73.67745971679688,94.92767333984375,65535.0
18839.02687266278,-577.1298828125,119.30946350097656,-91.27935791015625,-400.4409484863281,-29.376426696777344,36.380401611328125,8.756606101989746,69.4932632446289,86.98523712158203,65535.0
18839.02727267133,-563.262451171875,115.85275268554688,-99.00375366210938,-396.9293518066406,-33.5489501953125,35.44746780395508,11.234973907470703,69.57039642333984,97.47469329833984,65535.0
18839.027672679884,-538.4435424804688,113.45110321044922,-118.1224365234375,-372.1720275878906,-32.708648681640625,33.45865249633789,7.734533309936523,67.10321807861328,96.77733612060547,65535.0
18839.028072688438,-514.032470703125,110.18364715576172,-112.19586944580078,-359.7278137207031,-26.775671005249023,37.82391357421875,13.492551803588867,73.51396179199219,89.82360076904297,65535.0
18839.02847269699,-520.7177124023438,118.60672760009766,-114.97869110107422,-372.4964599609375,-25.40320587158203,45.14996337890625,16.788198471069336,78.43089294433594,81.68756103515625,65535.0
18839.02887270554,-515.408447265625,113.0611801147461,-119.95195007324219,-365.9146423339844,-35.45793533325195,29.34314727783203,0.6984518766403198,65.47138214111328,85.46484375,65535.0
18839.029272714095,-509.89788818359375,114.36543273925781,-130.9874725341797,-349.56549072265625,-22.91452407836914,43.868431091308594,15.856400489807129,75.76043701171875,98.93045806884766,65535.0
18839.02967272265,-502.68560791015625,111.59760284423828,-125.32324981689453,-361.3357238769531,-14.677578926086426,57.195343017578125,26.80797576904297,84.02119445800781,99.20011901855469,65535.0
18839.0300727312,-508.24365234375,112.8880615234375,-123.09918212890625,-369.48284912109375,-28.22212791442871,42.21284484863281,13.871526718139648,72.11185455322266,92.12122344970703,65535.0
18839.030472739752,-498.0908508300781,102.14069366455078,-126.80812072753906,-371.4652404785156,-29.2963924407959,42.763282775878906,12.767642974853516,71.111328125,90.97908782958984,65535.0
18839.030872748306,-483.4038391113281,106.38036346435547,-141.8511962890625,-359.2930603027344,-20.27869415283203,50.852561950683594,20.3076171875,76.12014770507812,83.51687622070312,65535.0
18839.03127275686,-460.72802734375,102.02550506591797,-132.92691040039062,-358.7488708496094,-22.51430320739746,49.12816619873047,18.664722442626953,75.60830688476562,77.61678314208984,65535.0
18839.03167276541,-452.09765625,101.55429077148438,-127.96410369873047,-364.1447448730469,-26.946548461914062,44.877803802490234,14.106431007385254,74.48176574707031,90.43509674072266,65535.0
18839.032072773964,-477.9715576171875,89.82662963867188,-145.60635375976562,-374.9209899902344,-27.191486358642578,43.986473083496094,12.465747833251953,71.8472900390625,91.80180358886719,65535.0
18839.032472782517,-501.9561767578125,85.07860565185547,-144.08644104003906,-385.9335632324219,-23.917831420898438,47.89597702026367,16.827350616455078,74.9254379272461,78.10003662109375,65535.0
18839.032872791067,-528.8012084960938,82.36493682861328,-141.3805694580078,-370.92950439453125,-33.18576431274414,42.264827728271484,11.821282386779785,65.9078598022461,82.20338439941406,65535.0
18839.03327279962,-545.296630859375,81.63240814208984,-148.75436401367188,-396.7158203125,-26.373159408569336,45.01826477050781,11.19434928894043,69.69913482666016,87.1061782836914,65535.0
18839.033672808175,-563.621337890625,87.39160919189453,-150.12179565429688,-435.7006530761719,-19.089750289916992,59.37657165527344,18.91958236694336,79.56743621826172,78.20616912841797,65535.0
18839.03407281673,-571.506591796875,94.95852661132812,-151.31439208984375,-417.7309875488281,-23.43147850036621,54.8262825012207,16.64516258239746,75.26303100585938,84.20124053955078,65535.0
18839.03447282528,-570.8717041015625,86.83916473388672,-158.16075134277344,-394.4334411621094,-27.289596557617188,52.9931640625,15.54188060760498,73.5073013305664,86.356689453125,65535.0
18839.034872833832,-577.3995361328125,94.60318756103516,-164.06939697265625,-401.1092224121094,-23.540372848510742,57.435272216796875,15.989879608154297,76.18621826171875,85.26704406738281,65535.0
18839.035272842386,-553.6417236328125,97.5395278930664,-157.17034912109375,-413.2273864746094,-25.84025001525879,56.82466506958008,15.288440704345703,74.36090850830078,93.8131103515625,65535.0
18839.035672850936,-525.8609619140625,99.13133239746094,-149.63388061523438,-426.0765075683594,-22.697059631347656,60.22147750854492,19.31108856201172,79.5163345336914,96.08014678955078,65535.0
18839.03607285949,-540.985595703125,101.23091888427734,-147.0027313232422,-433.6238098144531,-20.329275131225586,65.95654296875,23.95197296142578,81.19927978515625,80.9095687866211,65535.0
18839.036472868043,-535.8656005859375,99.0183334350586,-147.38198852539062,-423.1944885253906,-26.323020935058594,61.60829544067383,17.85426139831543,77.49150848388672,73.46063995361328,65535.0
18839.036872876597,-533.09912109375,105.33698272705078,-154.29824829101562,-398.1359558105469,-28.203584671020508,58.03875732421875,12.327169418334961,70.92469787597656,83.13379669189453,65535.0
18839.037272885147,-532.774658203125,111.19607543945312,-152.18287658691406,-369.36419677734375,-19.784015655517578,67.582275390625,21.4062442779541,79.7538833618164,84.23353576660156,65535.0
18839.0376728937,-529.1041870117188,117.86178588867188,-150.41912841796875,-366.5917053222656,-20.81488609313965,62.677032470703125,21.128156661987305,80.30875396728516,87.21294403076172,65535.0
18839.038072902254,-539.7037963867188,124.4163589477539,-137.04124450683594,-373.7601013183594,-25.20977783203125,57.967350006103516,14.214406967163086,73.33895111083984,77.42457580566406,65535.0
18839.038472910805,-544.5878295898438,131.8729705810547,-131.9922332763672,-363.6816711425781,-22.764039993286133,64.08897399902344,19.58517074584961,77.82996368408203,82.58061981201172,65535.0
18839.03887291936,-549.163330078125,133.51956176757812,-137.20701599121094,-380.64288330078125,-11.899249076843262,77.36116790771484,30.643707275390625,86.82918548583984,72.84618377685547,65535.0
18839.039272927912,-538.4564819335938,131.61251831054688,-138.13827514648438,-391.5584411621094,-20.108354568481445,69.12738037109375,20.440231323242188,78.3176498413086,75.20346069335938,65535.0
18839.039672936466,-531.5112915039062,127.37069702148438,-128.49282836914062,-354.2491455078125,-9.25829792022705,77.18678283691406,32.49640655517578,92.60897827148438,87.28605651855469,65535.0
18839.040072945016,-504.35498046875,133.70166015625,-122.49179077148438,-316.302001953125,-4.513203144073486,82.83805847167969,35.998809814453125,93.99884033203125,81.74934387207031,65535.0
18839.04047295357,-511.608154296875,121.0951919555664,-129.39071655273438,-289.5498046875,-6.313493251800537,79.1020278930664,32.050071716308594,91.11080169677734,78.84989166259766,65535.0
18839.040872962123,-524.9437866210938,119.54842376708984,-137.62469482421875,-304.7813720703125,-10.810123443603516,72.19979095458984,29.955413818359375,85.70684051513672,82.64659881591797,65535.0
18839.041272970673,-546.2402954101562,113.56639862060547,-128.25926208496094,-340.2413024902344,-12.317643165588379,67.72887420654297,28.042768478393555,84.48802947998047,80.84082794189453,65535.0
18839.041672979227,-555.7235107421875,115.9275894165039,-126.81039428710938,-366.75469970703125,-22.006994247436523,56.89619064331055,17.772300720214844,74.21219635009766,81.945556640625,65535.0
18839.04207298778,-545.035400390625,117.80191040039062,-120.1131591796875,-390.181884765625,-25.589155197143555,51.89812088012695,15.160379409790039,73.59187316894531,79.66930389404297,65535.0
18839.042472996334,-516.362060546875,112.14686584472656,-119.77217102050781,-411.8111572265625,-13.183016777038574,64.86443328857422,25.799596786499023,84.77290344238281,80.01702117919922,65535.0
18839.042873004884,-483.3756408691406,121.83464050292969,-123.04828643798828,-441.18231201171875,-19.900196075439453,59.68903350830078,21.555158615112305,80.15025329589844,80.63226318359375,65535.0
18839.043273013438,-471.77435302734375,127.07928466796875,-122.800537109375,-467.2452697753906,-24.15768051147461,54.5924186706543,19.93358612060547,77.67198944091797,79.23314666748047,65535.0
18839.04367302199,-491.4070129394531,135.26866149902344,-133.58383178710938,-474.0404968261719,-29.360916137695312,45.985599517822266,12.97700023651123,67.13789367675781,72.29412078857422,65535.0
18839.04407303054,-492.93804931640625,128.099853515625,-125.38636016845703,-492.2210998535156,-21.406776428222656,50.18849182128906,17.64544677734375,75.13246154785156,83.24308013916016,65535.0
18839.044473039095,-485.3180236816406,118.76618957519531,-122.21856689453125,-515.6144409179688,-26.145784378051758,49.198604583740234,16.4256534576416,78.750244140625,65.3229751586914,65535.0
18839.04487304765,-499.2130432128906,120.44598388671875,-130.6417999267578,-514.181884765625,-31.40941047668457,39.259342193603516,8.859931945800781,68.95646667480469,67.15557861328125,65535.0
18839.045273056203,-508.0114440917969,123.66506958007812,-129.29296875,-536.6034545898438,-25.25710678100586,41.842227935791016,11.433321952819824,73.02982330322266,90.102783203125,65535.0
18839.045673064753,-514.7349853515625,115.8891830444336,-128.1990509033203,-527.8917236328125,-27.09921646118164,40.67137145996094,12.78174877166748,71.35504150390625,80.73384857177734,65535.0
18839.046073073307,-521.1600952148438,112.02994537353516,-116.6681137084961,-508.3564147949219,-37.93243408203125,27.702272415161133,5.39335823059082,62.24137496948242,82.13908386230469,65535.0
18839.04647308186,-512.1619262695312,116.28410339355469,-116.3966293334961,-473.5407409667969,-36.78797912597656,27.972881317138672,4.465352535247803,65.01815795898438,77.58039855957031,65535.0
18839.04687309041,-519.4789428710938,119.16043090820312,-117.57373046875,-395.96630859375,-26.96573829650879,35.65797424316406,12.063508033752441,70.06620788574219,88.27018737792969,65535.0
18839.047273098964,-524.0781860351562,116.42416381835938,-119.47200775146484,-301.54718017578125,-31.771398544311523,32.50892639160156,9.140539169311523,66.13898468017578,80.81665802001953,65535.0
18839.047673107518,-516.6240234375,113.68049621582031,-119.79999542236328,-249.50393676757812,-29.96677589416504,33.623191833496094,12.151168823242188,70.46451568603516,79.10882568359375,65535.0
18839.04807311607,-509.8367004394531,120.20579528808594,-113.36045837402344,-226.42971801757812,-27.433513641357422,36.81951904296875,14.282766342163086,72.31736755371094,84.26433563232422,65535.0
18839.04847312462,-522.94580078125,121.05829620361328,-117.3150863647461,-195.48123168945312,-23.862051010131836,38.41252136230469,13.542189598083496,71.922119140625,74.25228881835938,65535.0
18839.048873133175,-535.53515625,119.14036560058594,-115.23200225830078,-187.00352478027344,-28.205577850341797,37.81830596923828,13.419846534729004,71.78764343261719,84.13472747802734,65535.0
18839.04927314173,-546.7418212890625,129.34420776367188,-128.22361755371094,-202.5843048095703,-28.27898597717285,38.49654006958008,16.733415603637695,73.01318359375,85.00223541259766,65535.0
18839.04967315028,-550.2405395507812,121.05644226074219,-129.42628479003906,-207.19439697265625,-19.339988708496094,42.91933822631836,19.16465187072754,77.5979232788086,78.27960968017578,65535.0
18839.050073158833,-558.0513916015625,130.29345703125,-128.73841857910156,-211.78907775878906,-24.00929832458496,41.46218490600586,15.87824821472168,75.11299896240234,79.71292877197266,65535.0
18839.050473167386,-551.9400024414062,130.7213134765625,-122.43603515625,-223.55467224121094,-28.76057243347168,40.297874450683594,12.691444396972656,69.31444549560547,83.08531951904297,65535.0
18839.05087317594,-544.1925048828125,125.23224639892578,-130.56004333496094,-217.7842254638672,-25.46608543395996,42.643035888671875,14.092785835266113,73.86042022705078,92.68594360351562,65535.0
18839.05127318449,-526.9292602539062,123.48170471191406,-136.49195861816406,-198.3706817626953,-23.708026885986328,41.82946014404297,13.938226699829102,73.71620178222656,88.33787536621094,65535.0
18839.051673193044,-496.89129638671875,133.80982971191406,-132.30630493164062,-181.84837341308594,-25.406339645385742,44.92422866821289,16.123291015625,72.85091400146484,84.86536407470703,65535.0
18839.052073201598,-492.8161315917969,139.9687042236328,-122.75721740722656,-180.9399871826172,-24.57505989074707,45.84999084472656,15.039016723632812,74.41732788085938,80.32656860351562,65535.0
18839.052473210148,-488.7369079589844,134.84896850585938,-123.55094909667969,-186.39883422851562,-26.085556030273438,47.08673095703125,17.035173416137695,73.89983367919922,87.03166961669922,65535.0
18839.0528732187,-499.00958251953125,125.64958953857422,-126.61150360107422,-225.9659423828125,-20.915908813476562,51.85091018676758,19.271596908569336,77.53340911865234,87.85574340820312,65535.0
18839.053273227255,-529.2246704101562,123.21525573730469,-127.9608383178711,-293.2218933105469,-17.93524742126465,55.170143127441406,23.046903610229492,80.440185546875,85.29586029052734,65535.0
18839.05367323581,-542.91845703125,128.48353576660156,-134.88388061523438,-333.0261535644531,-18.320392608642578,56.1843376159668,21.74226188659668,78.70526123046875,70.83848571777344,65535.0
18839.05407324436,-552.6433715820312,121.29580688476562,-133.77931213378906,-356.0209045410156,-24.78656005859375,50.48184585571289,16.549938201904297,71.99378204345703,70.50424194335938,65535.0
18839.054473252912,-570.9544067382812,120.7542724609375,-141.7237548828125,-360.90106201171875,-22.914833068847656,58.301918029785156,17.98809814453125,78.4317398071289,92.29156494140625,65535.0
18839.054873261466,-571.0337524414062,127.47223663330078,-132.7870635986328,-321.2582092285156,-22.77368927001953,54.979312896728516,20.056703567504883,77.77196502685547,91.52067565917969,65535.0
18839.055273270016,-575.623779296875,119.83040618896484,-132.31813049316406,-277.7184753417969,-19.081493377685547,61.317039489746094,23.404016494750977,78.3934555053711,76.99131774902344,65535.0
18839.05567327857,-583.6925048828125,123.02488708496094,-139.177978515625,-263.3219299316406,-9.951395988464355,72.73249053955078,34.53260803222656,87.37274169921875,90.77254486083984,65535.0
18839.056073287124,-599.9970092773438,130.19009399414062,-133.9905242919922,-265.060791015625,-4.617088317871094,76.91388702392578,36.42644500732422,93.95661926269531,93.28416442871094,65535.0
18839.056473295677,-596.0277709960938,127.46209716796875,-144.39999389648438,-297.9757995605469,-11.066863059997559,74.56697845458984,26.740983963012695,86.59945678710938,90.6141128540039,65535.0
18839.056873304227,-578.2322387695312,119.36541748046875,-146.80226135253906,-343.8916320800781,-27.458913803100586,55.53248596191406,13.916150093078613,69.82978057861328,88.51054382324219,65535.0
18839.05727331278,-556.46533203125,120.64334106445312,-128.88595581054688,-381.80328369140625,-12.623930931091309,71.69807434082031,29.319116592407227,85.02169799804688,87.12732696533203,65535.0
18839.057673321335,-550.7642211914062,126.79132843017578,-127.32426452636719,-419.9913635253906,-8.77279281616211,78.76416015625,33.26947784423828,90.57817077636719,80.95780181884766,65535.0
18839.058073329885,-545.3392333984375,124.41952514648438,-126.13409423828125,-440.6877746582031,-19.577299118041992,66.60838317871094,21.630556106567383,82.89715576171875,88.39059448242188,65535.0
18839.05847333844,-534.9716186523438,128.11825561523438,-122.7898178100586,-419.4698181152344,-18.205400466918945,64.44193267822266,22.05406379699707,80.55632019042969,80.67842102050781,65535.0
18839.058873346992,-543.061279296875,130.0022430419922,-120.85992431640625,-380.2049560546875,-12.821610450744629,71.72643280029297,28.924354553222656,86.20830535888672,84.00983428955078,65535.0
18839.059273355546,-553.3816528320312,134.51708984375,-116.94117736816406,-339.4015808105469,-11.906106948852539,72.64313507080078,27.795364379882812,86.59217071533203,78.35047912597656,65535.0
18839.059673364096,-566.3841552734375,141.93504333496094,-115.81748962402344,-303.14129638671875,-23.41938591003418,64.19745635986328,18.9277400970459,78.15873718261719,80.99849700927734,65535.0
18839.06007337265,-542.1502685546875,141.8024139404297,-107.38068389892578,-276.1356506347656,-28.735389709472656,56.03696060180664,12.61764144897461,72.29630279541016,100.73780822753906,65535.0
18839.060473381203,-520.1502685546875,143.02845764160156,-121.26232147216797,-281.2413635253906,-15.980894088745117,67.50265502929688,24.66724967956543,82.14200592041016,79.6857681274414,65535.0
18839.060873389753,-515.6499633789062,144.5433807373047,-112.90119934082031,-331.84979248046875,-13.247220993041992,67.94820404052734,27.512115478515625,83.77981567382812,78.83868408203125,65535.0
18839.061273398307,-505.4350891113281,144.73585510253906,-104.74906158447266,-396.4975280761719,-16.46349334716797,63.69749069213867,23.471567153930664,81.7183609008789,86.25568389892578,65535.0
18839.06167340686,-490.7662048339844,144.88351440429688,-119.43971252441406,-414.43487548828125,-20.163877487182617,62.573577880859375,19.96021842956543,79.51853942871094,82.78177642822266,65535.0
18839.062073415414,-479.2959289550781,146.39340209960938,-109.81019592285156,-398.94598388671875,-29.82405662536621,48.417640686035156,13.854491233825684,69.65702819824219,84.1565170288086,65535.0
18839.062473423965,-477.4431457519531,145.9428253173828,-108.72931671142578,-376.72576904296875,-18.927446365356445,58.31399154663086,19.626060485839844,79.9295425415039,75.84904479980469,65535.0
18839.06287343252,-474.4066162109375,140.96478271484375,-116.07330322265625,-358.3011474609375,-18.391345977783203,59.96223831176758,21.79356575012207,79.86695098876953,88.51571655273438,65535.0
18839.063273441072,-492.9656677246094,137.19815063476562,-104.02411651611328,-390.6311950683594,-21.149274826049805,58.14052200317383,22.302513122558594,81.75714111328125,88.26762390136719,65535.0
18839.063673449622,-515.6098022460938,137.25521850585938,-114.57472229003906,-432.93304443359375,-33.863826751708984,40.80704116821289,9.501080513000488,66.69335174560547,87.07649993896484,65535.0
18839.064073458176,-527.51123046875,143.8232879638672,-109.86272430419922,-438.9719543457031,-31.5174503326416,41.9680061340332,10.865504264831543,68.57624816894531,75.08927154541016,65535.0
18839.06447346673,-523.238525390625,136.5963897705078,-101.8060531616211,-406.19512939453125,-36.791236877441406,35.864166259765625,4.69286584854126,63.368900299072266,90.7401351928711,65535.0
18839.064873475283,-529.1505126953125,147.062744140625,-115.79190063476562,-359.9361572265625,-39.8978271484375,34.183563232421875,2.583498001098633,60.23252868652344,87.9742660522461,65535.0
18839.065273483833,-537.7523193359375,157.27223205566406,-111.04235076904297,-292.71240234375,-36.634796142578125,33.22996520996094,4.771111965179443,62.71503448486328,93.51480865478516,65535.0
18839.065673492387,-532.2696533203125,152.74795532226562,-104.72786712646484,-231.46963500976562,-33.62625503540039,34.92852020263672,7.420535564422607,62.20680236816406,92.28414154052734,65535.0
18839.06607350094,-533.8343505859375,145.87567138671875,-109.12434387207031,-186.1751251220703,-43.24174118041992,25.374826431274414,-1.7443634271621704,56.42161178588867,89.96621704101562,65535.0
18839.06647350949,-516.078125,153.63424682617188,-106.1843032836914,-180.11289978027344,-44.22891616821289,19.915098190307617,-3.7268190383911133,52.93598937988281,94.10435485839844,65535.0
18839.066873518044,-500.1611328125,159.0959014892578,-101.0789566040039,-191.0798797607422,-40.2020378112793,25.81838607788086,0.4627503454685211,59.57823181152344,95.05245208740234,65535.0
18839.067273526598,-486.4214782714844,147.75547790527344,-107.16463470458984,-209.52024841308594,-29.74321746826172,35.64311981201172,9.97616958618164,68.68631744384766,83.85946655273438,65535.0
18839.06767353515,-493.20196533203125,144.5700225830078,-119.11627197265625,-226.3888702392578,-33.1130485534668,31.828277587890625,10.841967582702637,66.69139862060547,93.0029067993164,65535.0
18839.0680735437,-496.2604064941406,142.6235809326172,-115.85330963134766,-218.66757202148438,-42.14261245727539,21.02703857421875,-0.5570725798606873,56.69434356689453,90.77140045166016,65535.0
18839.068473552255,-484.5460205078125,143.93919372558594,-124.13607788085938,-236.4185333251953,-46.434593200683594,17.334165573120117,-6.486536502838135,50.8963737487793,75.1835708618164,65535.0
18839.06887356081,-488.1394348144531,136.90908813476562,-119.08258819580078,-289.690185546875,-43.461822509765625,18.36393165588379,-0.9789209961891174,55.43841552734375,70.56759643554688,65535.0
18839.06927356936,-474.8609619140625,131.79884338378906,-123.48335266113281,-362.5194396972656,-50.44729995727539,11.045788764953613,-5.730650901794434,46.40366744995117,62.89878845214844,65535.0
18839.069673577913,-466.1210021972656,131.8542938232422,-137.3916015625,-423.76507568359375,-51.77962112426758,9.890191078186035,-11.388319969177246,49.09143829345703,84.1479721069336,65535.0
18839.070073586467,-440.6813049316406,121.18729400634766,-138.3300323486328,-458.3486328125,-49.950984954833984,13.690132141113281,-11.255784034729004,51.11417007446289,84.24854278564453,65535.0
18839.07047359502,-422.14337158203125,123.1400375366211,-138.60983276367188,-486.25830078125,-51.387508392333984,16.378049850463867,-6.898943901062012,47.763458251953125,74.87271881103516,65535.0
18839.07087360357,-424.32293701171875,114.20683288574219,-131.70506286621094,-473.7604675292969,-35.251285552978516,33.99732208251953,10.122757911682129,64.87456512451172,79.30592346191406,65535.0
18839.071273612124,-441.794921875,114.6221694946289,-120.39253997802734,-457.3808288574219,-35.27182388305664,32.30610275268555,4.109471321105957,60.92927169799805,93.3660888671875,65535.0
18839.071673620678,-466.7688293457031,112.7472152709961,-127.39311218261719,-453.5133361816406,-34.798377990722656,30.51796531677246,4.373188495635986,62.576210021972656,85.57937622070312,65535.0
18839.072073629228,-459.7825622558594,104.05475616455078,-124.13483428955078,-441.7359313964844,-40.33555603027344,28.613256454467773,4.547553062438965,60.20893478393555,86.48200988769531,65535.0
18839.07247363778,-467.1866760253906,107.96656799316406,-128.85494995117188,-418.5057067871094,-38.89788818359375,30.88812828063965,1.2188130617141724,59.02393341064453,82.55289459228516,65535.0
18839.072873646335,-508.0915222167969,114.95793151855469,-130.5806427001953,-390.4625244140625,-34.843502044677734,37.7523193359375,5.331990718841553,64.70722961425781,91.0948486328125,65535.0
18839.07327365489,-531.0299682617188,114.3016357421875,-131.72732543945312,-365.8732604980469,-31.96346092224121,37.54439163208008,6.6546502113342285,64.50788879394531,82.1196517944336,65535.0
18839.07367366344,-548.6715698242188,109.94357299804688,-125.8708267211914,-340.5471496582031,-23.303905487060547,51.55830764770508,15.39191722869873,76.16122436523438,91.95657348632812,65535.0
18839.074073671993,-555.197509765625,106.96784210205078,-122.27275085449219,-322.2144775390625,-24.802425384521484,52.61262893676758,13.50650691986084,74.83062744140625,92.57422637939453,65535.0
18839.074473680546,-547.0339965820312,99.33413696289062,-131.01641845703125,-326.604736328125,-34.19102096557617,42.699886322021484,6.083071231842041,63.80116271972656,88.13951110839844,65535.0
18839.074873689096,-552.30712890625,97.79704284667969,-123.89064025878906,-346.3134765625,-28.309814453125,50.1371955871582,13.722081184387207,72.66998291015625,90.30892944335938,65535.0
18839.07527369765,-554.0399780273438,106.63831329345703,-121.4085693359375,-343.2320861816406,-17.982913970947266,63.00716781616211,21.693897247314453,80.5478286743164,82.50236511230469,65535.0
18839.075673706204,-535.1390991210938,117.20602416992188,-132.74266052246094,-345.32342529296875,-18.537368774414062,65.9020767211914,21.285232543945312,79.44808197021484,86.65091705322266,65535.0
18839.076073714758,-511.634033203125,116.806396484375,-133.79856872558594,-356.9352111816406,-8.985730171203613,76.99962615966797,31.3248291015625,87.00914764404297,76.82365417480469,65535.0
18839.076473723308,-521.0101928710938,116.93282318115234,-123.90484619140625,-376.00531005859375,-13.157940864562988,75.98102569580078,30.245630264282227,89.05818176269531,77.11164093017578,65535.0
18839.07687373186,-540.5136108398438,118.24847412109375,-130.72364807128906,-386.32232666015625,-27.35692024230957,59.386295318603516,13.675511360168457,73.06682586669922,83.69391632080078,65535.0
18839.077273740415,-540.968017578125,125.44116973876953,-126.56771850585938,-386.015869140625,-16.574464797973633,71.8691177368164,24.181333541870117,84.22076416015625,89.59513854980469,65535.0
18839.077673748965,-529.04931640625,131.06292724609375,-123.72942352294922,-384.9558410644531,-5.720012664794922,82.80671691894531,33.96797180175781,90.56297302246094,79.08155822753906,65535.0
18839.07807375752,-531.1293334960938,135.87637329101562,-123.57635498046875,-376.9751281738281,-8.738055229187012,79.8587875366211,29.89361572265625,87.47509765625,88.08956909179688,65535.0
18839.078473766072,-536.2817993164062,137.2221221923828,-132.8594970703125,-372.2696533203125,-5.69018030166626,85.41357421875,36.58137893676758,94.3659439086914,88.81465148925781,65535.0
18839.078873774626,-536.9510498046875,137.15476989746094,-124.4603042602539,-379.6308898925781,-5.933587551116943,83.15026092529297,35.18435287475586,92.71585845947266,86.0702896118164,65535.0
18839.079273783176,-542.3515625,153.02220153808594,-123.69392395019531,-384.56158447265625,-16.051349639892578,75.00079345703125,27.791900634765625,84.99933624267578,72.43739318847656,65535.0
18839.07967379173,-549.111572265625,146.2052459716797,-135.3362274169922,-391.87237548828125,-9.212461471557617,77.75472259521484,28.939708709716797,88.6566162109375,75.23966979980469,65535.0
18839.080073800284,-564.50439453125,142.2353515625,-128.02537536621094,-386.541259765625,-8.9158935546875,79.50395965576172,33.0842399597168,88.71700286865234,98.1409912109375,65535.0
18839.080473808834,-569.9046020507812,145.59640502929688,-119.36478424072266,-382.7848815917969,-14.1398344039917,72.45919036865234,28.99085235595703,86.1624526977539,89.16759490966797,65535.0
18839.080873817387,-577.8718872070312,142.96923828125,-123.76648712158203,-404.4713439941406,-10.867889404296875,72.10231018066406,28.525312423706055,87.39537048339844,85.02066040039062,65535.0
18839.08127382594,-597.083984375,135.70884704589844,-122.90911102294922,-408.3428039550781,-18.22861671447754,64.74507904052734,26.144285202026367,81.24053955078125,88.60562133789062,65535.0
18839.081673834495,-614.5618896484375,127.38240814208984,-119.6597900390625,-380.0794372558594,-11.080984115600586,73.35012817382812,30.84846305847168,88.77750396728516,94.00525665283203,65535.0
18839.082073843045,-620.1185302734375,126.03693389892578,-114.26179504394531,-356.6806335449219,-12.81444263458252,73.78290557861328,29.575088500976562,88.31657409667969,81.5212173461914,65535.0
18839.0824738516,-614.427734375,122.80579376220703,-117.47157287597656,-340.95916748046875,-10.559098243713379,70.04285430908203,27.859277725219727,83.33920288085938,86.74005889892578,65535.0
18839.082873860152,-614.3193359375,119.4848403930664,-120.61387634277344,-349.1695251464844,-11.761171340942383,70.73323059082031,29.415708541870117,87.22537231445312,102.5407485961914,65535.0
18839.083273868702,-607.3494873046875,125.23291778564453,-119.40725708007812,-330.9826354980469,-16.49180030822754,62.71734619140625,23.534517288208008,81.83150482177734,108.61062622070312,65535.0
18839.083673877256,-604.8009643554688,131.18589782714844,-121.35509490966797,-311.5863952636719,-24.384098052978516,50.47644805908203,15.400777816772461,75.63273620605469,103.97409057617188,65535.0
18839.08407388581,-589.7315063476562,142.8305206298828,-125.2508544921875,-294.8866271972656,-24.02814483642578,55.29777908325195,16.17886734008789,75.81983184814453,97.23999786376953,65535.0
18839.084473894363,-579.5742797851562,141.12171936035156,-113.8858642578125,-316.70477294921875,-31.373409271240234,46.07267379760742,12.88205623626709,70.41104888916016,92.26240539550781,65535.0
18839.084873902913,-570.8471069335938,138.95591735839844,-115.4133529663086,-338.99676513671875,-23.668663024902344,48.72962951660156,17.19894027709961,78.3182601928711,91.9248046875,65535.0
18839.085273911467,-550.5747680664062,136.14627075195312,-116.91432189941406,-364.5254211425781,-29.83182144165039,40.600372314453125,10.458170890808105,68.01541900634766,91.5630874633789,65535.0
18839.08567392002,-542.3180541992188,136.79962158203125,-106.47264099121094,-380.3297119140625,-29.808042526245117,43.796512603759766,15.224272727966309,72.13961791992188,78.68553161621094,65535.0
18839.08607392857,-545.0465698242188,142.3896942138672,-106.63868713378906,-393.8446350097656,-28.725601196289062,41.25874328613281,12.709543228149414,71.54139709472656,81.61711883544922,65535.0
18839.086473937125,-543.0492553710938,138.71328735351562,-108.44192504882812,-393.43804931640625,-31.383529663085938,36.45520782470703,10.37441349029541,67.8575439453125,86.78043365478516,65535.0
18839.08687394568,-545.087158203125,141.36355590820312,-118.24690246582031,-378.0353698730469,-32.02516174316406,35.47394943237305,10.950751304626465,68.81127166748047,84.955810546875,65535.0
18839.087273954232,-564.2530517578125,128.79518127441406,-111.01888275146484,-373.21661376953125,-27.66196632385254,37.020408630371094,10.893190383911133,66.94839477539062,89.86334228515625,65535.0
18839.087673962782,-564.0845947265625,135.08421325683594,-116.50814819335938,-407.33856201171875,-34.52662658691406,29.05339813232422,4.868753910064697,63.904537200927734,87.38575744628906,65535.0
18839.088073971336,-562.7011108398438,124.17565155029297,-120.69448852539062,-423.6504821777344,-35.38043212890625,27.354881286621094,3.589481830596924,63.776283264160156,81.76786041259766,65535.0
18839.08847397989,-536.7973022460938,128.168701171875,-113.36881256103516,-418.03839111328125,-41.25153732299805,18.910917282104492,-0.8906323313713074,57.80555725097656,91.1495590209961,65535.0
18839.08887398844,-513.3436889648438,135.27020263671875,-120.74874114990234,-398.83819580078125,-47.583770751953125,13.217717170715332,-6.514371871948242,54.83295440673828,99.55805206298828,65535.0
18839.089273996993,-507.6838073730469,134.47097778320312,-121.74439239501953,-412.8937683105469,-36.600250244140625,26.225112915039062,3.646876096725464,63.38422775268555,102.95511627197266,65535.0
18839.089674005547,-493.35638427734375,125.59114074707031,-121.75888061523438,-437.83380126953125,-36.9527473449707,26.98128318786621,4.276724338531494,64.4117202758789,96.24331665039062,65535.0
18839.0900740141,-485.1194763183594,125.25357055664062,-133.5448455810547,-432.67950439453125,-30.683271408081055,35.09523391723633,10.537651062011719,71.16764831542969,92.4394760131836,65535.0
18839.09047402265,-484.789794921875,131.19686889648438,-123.1185302734375,-404.7319641113281,-23.72701072692871,44.46396255493164,15.416179656982422,76.62293243408203,90.5466079711914,65535.0
18839.090874031204,-482.43536376953125,126.5204086303711,-125.76502227783203,-381.5132751464844,-33.361602783203125,32.60561752319336,6.953466892242432,65.11438751220703,87.07095336914062,65535.0
18839.091274039758,-477.11407470703125,117.94044494628906,-128.74569702148438,-374.3226623535156,-35.21742630004883,27.699289321899414,2.7942559719085693,60.906307220458984,98.35953521728516,65535.0
18839.091674048308,-482.8869934082031,115.35419464111328,-120.94865417480469,-406.7232360839844,-46.391700744628906,21.99158477783203,-8.056211471557617,51.550331115722656,83.10734558105469,65535.0
18839.09207405686,-488.35308837890625,106.97027587890625,-126.9366683959961,-428.2462463378906,-43.912410736083984,25.284557342529297,0.32280033826828003,59.59475326538086,68.63265991210938,65535.0
18839.092474065415,-484.416259765625,110.03617095947266,-128.61575317382812,-439.1004638671875,-32.396522521972656,35.9106559753418,7.96475076675415,65.79474639892578,91.48932647705078,65535.0
18839.09287407397,-500.1854248046875,112.16069030761719,-125.64796447753906,-424.7744445800781,-37.02153396606445,35.47323989868164,6.073796272277832,64.73604583740234,80.62028503417969,65535.0
18839.09327408252,-505.6577453613281,100.19989776611328,-120.24432373046875,-408.73638916015625,-30.208179473876953,39.14310073852539,6.235205173492432,66.67182159423828,84.72508239746094,65535.0
18839.093674091073,-516.7434692382812,99.40198516845703,-128.3503875732422,-392.4741516113281,-27.64231300354004,45.80923843383789,11.933300971984863,68.69645690917969,86.6395034790039,65535.0
18839.094074099627,-521.922119140625,104.62908935546875,-131.5371551513672,-331.6315612792969,-33.053592681884766,41.033607482910156,8.204251289367676,67.18734741210938,85.00550079345703,65535.0
18839.094474108177,-527.3672485351562,113.46065521240234,-130.99998474121094,-270.40521240234375,-30.779333114624023,46.52948760986328,9.512048721313477,69.63456726074219,97.66280364990234,65535.0
18839.09487411673,-531.4503173828125,109.03907012939453,-136.687744140625,-223.6720428466797,-9.304391860961914,70.77404022216797,29.84724998474121,87.85472106933594,80.31919860839844,65535.0
18839.095274125284,-538.1834716796875,110.17481994628906,-141.17771911621094,-218.20545959472656,-17.338891983032227,65.78720092773438,22.31049346923828,81.29540252685547,81.7676773071289,65535.0
18839.095674133838,-547.982666015625,117.7574234008789,-135.4876251220703,-254.90748596191406,-22.49245834350586,59.980995178222656,19.107030868530273,76.38275909423828,88.69754791259766,65535.0
18839.096074142388,-536.4343872070312,114.74541473388672,-134.60916137695312,-303.14093017578125,-21.64459991455078,63.35446548461914,21.91228485107422,80.5912857055664,98.25480651855469,65535.0
18839.09647415094,-536.4076538085938,121.70161437988281,-134.9506378173828,-358.7341003417969,-15.466379165649414,67.90779876708984,26.985904693603516,80.73960876464844,84.38404083251953,65535.0
18839.096874159495,-531.9761962890625,122.63681030273438,-141.54151916503906,-389.8778076171875,-14.761720657348633,72.53250885009766,25.154138565063477,81.70448303222656,89.54119110107422,65535.0
18839.097274168045,-542.1542358398438,123.22108459472656,-133.4173126220703,-422.9934387207031,-19.403240203857422,69.9979476928711,25.041568756103516,81.14641571044922,110.32025146484375,65535.0
18839.0976741766,-542.1612548828125,122.02440643310547,-136.8275909423828,-490.0971984863281,-19.255859375,69.62454986572266,22.9842472076416,80.09577178955078,95.03263854980469,65535.0
18839.098074185153,-536.8285522460938,110.87617492675781,-145.21575927734375,-479.99169921875,-24.31084442138672,62.14425277709961,13.27509880065918,73.47074890136719,81.96289825439453,65535.0
18839.098474193706,-528.0078125,119.49700927734375,-126.93421936035156,-414.63531494140625,-13.135421752929688,74.78720092773438,26.79592514038086,87.5323715209961,95.75535583496094,65535.0
18839.098874202256,-504.6876220703125,110.78192138671875,-121.00054931640625,-340.92913818359375,-11.65733528137207,76.74214935302734,30.432327270507812,88.25838470458984,88.4771499633789,65535.0
18839.09927421081,-506.1964111328125,101.61146545410156,-119.0758285522461,-295.4998779296875,-8.261695861816406,76.17786407470703,32.88895797729492,89.24414825439453,93.5583267211914,65535.0
18839.099674219364,-489.4722900390625,107.86893463134766,-118.51264190673828,-264.3200988769531,-5.678828716278076,82.226806640625,35.43598937988281,94.37986755371094,99.63848876953125,65535.0
18839.100074227914,-488.1218566894531,116.48171997070312,-121.78375244140625,-226.62139892578125,-2.0303914546966553,87.13941192626953,38.676849365234375,101.18563079833984,91.02334594726562,65535.0
18839.100474236468,-512.847900390625,123.07942199707031,-117.53443145751953,-233.0540008544922,-12.221131324768066,74.71766662597656,30.834482192993164,86.14800262451172,89.3230209350586,65535.0
18839.10087424502,-531.05419921875,115.95408630371094,-124.1744613647461,-254.88206481933594,-8.101436614990234,76.14639282226562,30.60738182067871,89.12883758544922,95.577392578125,65535.0
18839.101274253575,-545.0,120.81791687011719,-127.62384796142578,-317.0653991699219,-14.960548400878906,73.2195816040039,28.667186737060547,86.5049057006836,93.86750030517578,65535.0
18839.101674262125,-544.8286743164062,133.11529541015625,-123.15933990478516,-394.211669921875,-15.113142967224121,71.48625183105469,28.088306427001953,85.14027404785156,91.22917175292969,65535.0
18839.10207427068,-509.3770751953125,129.17579650878906,-116.45219421386719,-443.21875,-17.284683227539062,64.7597427368164,23.862424850463867,78.76895141601562,95.68458557128906,65535.0
18839.102474279232,-496.1061096191406,124.52603149414062,-115.84169006347656,-417.74127197265625,-22.53400230407715,62.02192687988281,20.930282592773438,79.64026641845703,96.30826568603516,65535.0
18839.102874287782,-515.093505859375,132.1533660888672,-125.05194854736328,-360.98162841796875,-18.15634536743164,61.55940246582031,23.7037353515625,81.0667953491211,100.37139129638672,65535.0
18839.103274296336,-534.0173950195312,137.13238525390625,-118.27387237548828,-320.89129638671875,-21.860685348510742,57.186519622802734,16.681339263916016,79.13874816894531,99.88030242919922,65535.0
18839.10367430489,-529.187255859375,138.68678283691406,-113.06400299072266,-332.6566162109375,-29.925161361694336,46.113582611083984,11.036737442016602,69.60514068603516,104.92037200927734,65535.0
18839.104074313444,-535.5664672851562,148.4014434814453,-115.17545318603516,-350.3373107910156,-28.393674850463867,47.00916290283203,12.850115776062012,71.87135314941406,103.95578002929688,65535.0
18839.104474321994,-521.46630859375,147.9559783935547,-102.17942810058594,-353.2060546875,-30.775604248046875,44.556434631347656,11.119632720947266,68.06871032714844,92.0708999633789,65535.0
18839.104874330547,-528.3867797851562,150.32977294921875,-122.93006134033203,-349.3037414550781,-27.153505325317383,48.2056770324707,15.129382133483887,74.16625213623047,76.4437026977539,65535.0
18839.1052743391,-528.1288452148438,147.99044799804688,-123.48133087158203,-350.3532409667969,-26.264785766601562,48.50117874145508,17.58871078491211,74.71171569824219,88.47517395019531,65535.0
18839.10567434765,-522.06298828125,142.01841735839844,-111.42866516113281,-330.196044921875,-27.762378692626953,45.59750747680664,15.122464179992676,70.15270233154297,78.74604034423828,65535.0
18839.106074356205,-509.4403076171875,140.86231994628906,-121.25331115722656,-333.8974304199219,-24.98530387878418,46.49875259399414,17.762649536132812,76.93521881103516,74.38310241699219,65535.0
18839.10647436476,-483.9337158203125,148.94297790527344,-119.26250457763672,-332.9120178222656,-31.88986587524414,38.23627471923828,11.44982624053955,69.13465881347656,88.63583374023438,65535.0
18839.106874373312,-484.29852294921875,139.69656372070312,-118.98204803466797,-331.84698486328125,-33.28828811645508,33.755489349365234,8.556957244873047,65.50172424316406,92.24723052978516,65535.0
18839.107274381862,-472.1226806640625,144.45721435546875,-116.91674041748047,-343.8795471191406,-43.833648681640625,24.124696731567383,1.12288236618042,57.450889587402344,90.79417419433594,65535.0
18839.107674390416,-452.55682373046875,142.51556396484375,-118.47244262695312,-362.32733154296875,-39.131996154785156,27.304595947265625,2.9380524158477783,61.74341583251953,82.96575927734375,65535.0
18839.10807439897,-429.1753845214844,139.61888122558594,-118.07755279541016,-362.3603210449219,-42.85783004760742,23.30144691467285,-3.6951394081115723,56.14152908325195,71.1926040649414,65535.0
18839.10847440752,-383.1037292480469,121.9227523803711,-132.51321411132812,-352.91668701171875,-40.843658447265625,21.30789566040039,-1.2432503700256348,58.169273376464844,78.81073760986328,65535.0
18839.108874416073,-374.8564758300781,120.53993225097656,-120.6449966430664,-332.441650390625,-37.17790603637695,25.86421775817871,1.9513375759124756,59.770565032958984,103.33352661132812,65535.0
18839.109274424627,-414.652587890625,110.82070922851562,-121.83919525146484,-339.2745666503906,-34.613746643066406,33.3193473815918,6.56683874130249,65.88151550292969,73.75733947753906,65535.0
18839.10967443318,-454.1856689453125,108.12846374511719,-128.47122192382812,-332.624267578125,-31.144102096557617,34.3480224609375,8.465827941894531,67.44880676269531,66.44329071044922,65535.0
18839.11007444173,-505.71697998046875,110.27367401123047,-131.8459014892578,-324.5236511230469,-42.58053970336914,23.20785140991211,-0.6276013851165771,57.537227630615234,91.1601333618164,65535.0
18839.110474450285,-542.6082763671875,113.23219299316406,-139.55101013183594,-339.43402099609375,-44.29279708862305,23.069725036621094,-1.018218994140625,56.883522033691406,95.1307601928711,65535.0
18839.11087445884,-534.6011962890625,111.59648132324219,-126.431640625,-365.9710693359375,-40.92362976074219,25.848602294921875,1.754520058631897,60.75785827636719,95.9905014038086,65535.0
18839.11127446739,-500.2509460449219,117.20731353759766,-135.09202575683594,-363.4290771484375,-45.2409553527832,21.823833465576172,-3.0647597312927246,54.49091720581055,88.7391586303711,65535.0
18839.111674475942,-476.5091247558594,110.3090591430664,-137.6505584716797,-361.9248352050781,-39.13248062133789,29.383907318115234,3.374075174331665,60.925445556640625,82.03324890136719,65535.0
18839.112074484496,-471.7846984863281,114.03120422363281,-131.11724853515625,-376.9198303222656,-34.12044906616211,35.314151763916016,6.997567653656006,64.0857162475586,91.0556869506836,65535.0
18839.11247449305,-487.4331970214844,112.93347930908203,-132.26214599609375,-366.6813659667969,-32.09977722167969,40.878414154052734,7.287296295166016,65.89592742919922,93.865966796875,65535.0
18839.1128745016,-524.2249755859375,113.11036682128906,-130.89627075195312,-354.4603271484375,-37.51242446899414,35.635353088378906,5.330049991607666,63.16471481323242,81.45063018798828,65535.0
18839.113274510153,-547.6207275390625,111.91996002197266,-130.1613006591797,-362.66107177734375,-39.27755355834961,34.922725677490234,2.6705570220947266,62.88923263549805,88.65532684326172,65535.0
18839.113674518707,-545.9754028320312,114.6312255859375,-129.5643768310547,-366.6624755859375,-26.804771423339844,47.1943359375,14.153448104858398,72.70421600341797,92.19960021972656,65535.0
18839.114074527257,-551.5206909179688,110.90596008300781,-142.83656311035156,-359.1304626464844,-18.446420669555664,61.442848205566406,20.983680725097656,80.1314697265625,83.95953369140625,65535.0
18839.11447453581,-550.3887329101562,112.86788177490234,-139.74671936035156,-336.0715637207031,-26.792678833007812,55.64052200317383,14.643409729003906,71.1390609741211,83.51761627197266,65535.0
18839.114874544364,-556.906494140625,117.60669708251953,-134.32017517089844,-299.0736999511719,-21.78864288330078,59.65571975708008,18.28805160522461,76.76441955566406,86.7244873046875,65535.0
18839.115274552918,-553.166748046875,111.553466796875,-140.41397094726562,-233.93328857421875,-19.253814697265625,63.73326873779297,23.09889030456543,79.81964111328125,99.19122314453125,65535.0
18839.115674561468,-554.0927124023438,104.59217834472656,-137.90206909179688,-182.45748901367188,-26.83408546447754,58.22707748413086,17.323955535888672,72.13610076904297,91.68932342529297,65535.0
18839.11607457002,-559.3289794921875,108.79373931884766,-138.1693572998047,-181.71336364746094,-20.92374038696289,68.18917083740234,18.978845596313477,78.87735748291016,91.18051147460938,65535.0
18839.116474578575,-532.0736083984375,107.71622467041016,-142.3426055908203,-221.6306610107422,-23.08489227294922,62.42262268066406,16.917560577392578,73.9206771850586,89.87554168701172,65535.0
18839.116874587125,-514.3062133789062,98.6455307006836,-145.68447875976562,-249.20626831054688,-24.059175491333008,60.40357971191406,15.163338661193848,75.31401062011719,86.84357452392578,65535.0
18839.11727459568,-509.9822082519531,103.53079223632812,-126.96883392333984,-253.82945251464844,-16.772912979125977,74.89779663085938,24.95390510559082,83.94338989257812,78.46295928955078,65535.0
18839.117674604233,-505.30718994140625,97.87824249267578,-131.0569610595703,-261.5329284667969,-21.455142974853516,68.1756820678711,21.244916915893555,79.1403579711914,77.11894226074219,65535.0
18839.118074612787,-496.7118225097656,107.2068862915039,-142.2008514404297,-256.5734558105469,-14.72282600402832,72.8754653930664,25.056726455688477,84.64057159423828,71.97342681884766,65535.0
18839.118474621337,-486.94140625,115.17102813720703,-130.8280029296875,-241.98199462890625,-13.812829971313477,72.6747817993164,25.487316131591797,82.40808868408203,89.97628784179688,65535.0
18839.11887462989,-488.2059020996094,114.4337387084961,-133.80662536621094,-238.65496826171875,-16.237136840820312,74.92383575439453,26.433307647705078,84.61701965332031,96.86714172363281,65535.0
18839.119274638444,-492.83551025390625,119.79601287841797,-129.04527282714844,-227.98046875,-10.049395561218262,77.54036712646484,29.376724243164062,87.81490325927734,87.06317901611328,65535.0
18839.119674646994,-505.28021240234375,128.17218017578125,-118.70883178710938,-234.5524139404297,-13.399110794067383,76.0713882446289,27.508621215820312,83.67607879638672,85.89998626708984,65535.0
18839.120074655548,-510.5450439453125,136.89732360839844,-122.98435974121094,-303.5429992675781,-15.941264152526855,72.60557556152344,25.453990936279297,83.78858184814453,79.27576446533203,65535.0
18839.1204746641,-514.6038208007812,141.3560028076172,-120.61713409423828,-366.1504211425781,-14.116897583007812,73.87176513671875,24.322216033935547,84.5502700805664,86.14810180664062,65535.0
18839.120874672655,-515.3353271484375,139.5509796142578,-123.42137145996094,-362.6091003417969,-12.395691871643066,73.67430877685547,26.821916580200195,86.13483428955078,95.24903106689453,65535.0
18839.121274681205,-522.6592407226562,133.72946166992188,-129.16542053222656,-329.4667663574219,-16.23383331298828,69.03418731689453,27.949119567871094,84.47346496582031,72.97673034667969,65535.0
18839.12167468976,-506.230712890625,129.16732788085938,-135.5247344970703,-303.4894714355469,-19.350536346435547,67.570068359375,22.29460334777832,82.38618469238281,97.03736114501953,65535.0
18839.122074698313,-498.5971984863281,123.07889556884766,-130.91619873046875,-253.79551696777344,-25.19487762451172,61.038368225097656,18.367456436157227,75.58306884765625,100.46829223632812,65535.0
18839.122474706863,-478.3919982910156,125.6468505859375,-136.74830627441406,-223.39248657226562,-27.408496856689453,58.794742584228516,15.802716255187988,74.16012573242188,88.11278533935547,65535.0
18839.122874715416,-456.42352294921875,133.00730895996094,-129.2330322265625,-232.22373962402344,-23.905973434448242,60.44877624511719,17.478544235229492,77.74512481689453,91.62307739257812,65535.0
18839.12327472397,-460.34100341796875,125.49610900878906,-122.06439971923828,-232.4427032470703,-17.499555587768555,62.99253463745117,22.4045352935791,81.48294067382812,85.86626434326172,65535.0
18839.123674732524,-489.6559143066406,126.63096618652344,-117.91278839111328,-242.31399536132812,-21.79303550720215,56.643638610839844,18.617164611816406,78.04471588134766,80.73574829101562,65535.0
18839.124074741074,-532.8380737304688,139.5720672607422,-118.09815216064453,-248.07675170898438,-21.789318084716797,58.29005813598633,20.281023025512695,81.86424255371094,83.10639953613281,65535.0
18839.124474749628,-560.686767578125,136.8308868408203,-109.49876403808594,-246.00479125976562,-13.45408821105957,64.17375946044922,26.17742347717285,84.58460998535156,93.13024139404297,65535.0
18839.12487475818,-572.818359375,140.69943237304688,-104.4461669921875,-236.380126953125,-20.657835006713867,56.4178352355957,19.264060974121094,76.22673034667969,95.96803283691406,65535.0
18839.12527476673,-571.864990234375,141.30850219726562,-103.84661102294922,-235.8894500732422,-23.957971572875977,51.03639602661133,19.519020080566406,73.33403778076172,94.57415771484375,65535.0
18839.125674775285,-577.1258544921875,140.44757080078125,-108.16498565673828,-270.4146728515625,-22.979106903076172,52.345420837402344,19.140914916992188,76.51661682128906,98.05106353759766,65535.0
18839.12607478384,-553.9361572265625,145.29541015625,-115.07696533203125,-300.32525634765625,-31.87592887878418,40.617244720458984,10.232081413269043,67.55143737792969,83.43472290039062,65535.0
18839.126474792392,-530.4625244140625,147.66563415527344,-116.20317077636719,-330.2789611816406,-28.323923110961914,43.33418655395508,12.936086654663086,71.37059020996094,84.95467376708984,65535.0
18839.126874800942,-505.8858642578125,142.29359436035156,-123.18707275390625,-331.20843505859375,-26.868833541870117,40.31621551513672,13.349382400512695,71.26433563232422,82.75907897949219,65535.0
18839.127274809496,-492.5062561035156,133.36721801757812,-119.39067840576172,-303.5618896484375,-35.48176956176758,32.58107376098633,7.061384677886963,66.07691192626953,91.6791000366211,65535.0
18839.12767481805,-509.27105712890625,124.2090835571289,-131.15553283691406,-315.4316101074219,-31.580148696899414,35.0107421875,10.112800598144531,67.97455596923828,88.03022003173828,65535.0
18839.1280748266,-516.3834838867188,105.0730209350586,-131.2891082763672,-359.2368469238281,-29.411645889282227,38.23324203491211,13.071457862854004,70.5893783569336,94.6126937866211,65535.0
18839.128474835154,-505.0491027832031,105.93001556396484,-118.14956665039062,-417.33074951171875,-33.789180755615234,32.90578079223633,10.301997184753418,66.66695404052734,85.77799987792969,65535.0
18839.128874843707,-505.6876525878906,113.6016616821289,-111.10477447509766,-415.1208190917969,-39.96736145019531,26.977020263671875,3.6395609378814697,58.7461051940918,84.7226791381836,65535.0
18839.12927485226,-503.8007507324219,110.7414321899414,-110.7775650024414,-412.57159423828125,-43.420413970947266,24.599504470825195,-1.3781057596206665,54.175846099853516,88.86784362792969,65535.0
18839.12967486081,-514.0308837890625,112.75594329833984,-115.77447509765625,-433.7962951660156,-33.55551528930664,35.8236198425293,9.088797569274902,67.70768737792969,90.38795471191406,65535.0
18839.130074869365,-541.6842651367188,104.5073471069336,-110.10344696044922,-439.4186096191406,-36.45916748046875,33.095829010009766,5.986338138580322,63.53679656982422,83.79769134521484,65535.0
18839.13047487792,-575.1753540039062,107.81241607666016,-117.41378021240234,-438.2928161621094,-32.89111328125,35.81464767456055,7.104010105133057,65.0079116821289,97.32649230957031,65535.0
18839.13087488647,-602.21826171875,119.02152252197266,-117.94634246826172,-404.47357177734375,-25.44471549987793,45.74811553955078,16.455724716186523,75.26687622070312,86.44568634033203,65535.0
18839.131274895022,-583.5401611328125,108.73738098144531,-116.64810180664062,-356.69781494140625,-37.86540222167969,33.28105545043945,1.974007487297058,61.78358840942383,90.70046997070312,65535.0
18839.131674903576,-556.1720581054688,104.28778839111328,-114.4535140991211,-332.6398620605469,-36.217384338378906,34.18798065185547,7.095885276794434,63.59123611450195,83.82173156738281,65535.0
18839.13207491213,-555.88330078125,110.45101165771484,-112.53878784179688,-334.4480895996094,-23.89818000793457,46.511505126953125,15.923327445983887,75.46341705322266,85.2402572631836,65535.0
18839.13247492068,-564.1546630859375,111.658935546875,-113.89561462402344,-336.61199951171875,-25.9625301361084,48.815673828125,15.64738941192627,71.87356567382812,91.39785766601562,65535.0
18839.132874929233,-574.0852661132812,120.46453857421875,-117.59577941894531,-325.5818786621094,-33.36280059814453,41.61134719848633,8.409669876098633,65.40889739990234,97.69538879394531,65535.0
18839.133274937787,-590.7109375,107.35504913330078,-121.93162536621094,-288.1922912597656,-24.352474212646484,48.76551818847656,16.238704681396484,72.92211151123047,88.67379760742188,65535.0
18839.133674946337,-596.1956176757812,117.26585388183594,-124.33203887939453,-261.1874084472656,-27.59867286682129,49.65666580200195,12.091875076293945,71.0921630859375,89.29644012451172,65535.0
18839.13407495489,-597.2753295898438,112.1975326538086,-119.11861419677734,-271.08013916015625,-28.552213668823242,50.37124252319336,12.918560981750488,71.98023986816406,93.1682357788086,65535.0
18839.134474963445,-578.6780395507812,107.454833984375,-120.08084869384766,-294.67620849609375,-23.501789093017578,53.453704833984375,17.08642578125,75.12391662597656,80.713623046875,65535.0
18839.134874972,-569.6868286132812,110.58043670654297,-127.94039154052734,-312.5716552734375,-28.95842933654785,50.92354202270508,12.175422668457031,68.19906616210938,92.42753601074219,65535.0
18839.13527498055,-540.5059814453125,101.53453063964844,-129.41763305664062,-333.6370544433594,-22.86969757080078,60.326576232910156,19.71004867553711,75.7172622680664,96.93706512451172,65535.0
18839.135674989102,-511.47021484375,96.85858917236328,-137.05088806152344,-337.2478332519531,-7.711705207824707,81.3121109008789,34.48755645751953,91.56007385253906,78.2203140258789,65535.0
18839.136074997656,-519.2899780273438,97.27647399902344,-134.27169799804688,-323.2799987792969,-13.33645248413086,71.25139617919922,27.460399627685547,84.34748840332031,89.96649932861328,65535.0
18839.136475006206,-532.2814331054688,100.24107360839844,-132.5033721923828,-298.6051025390625,-21.744218826293945,66.65970611572266,20.452964782714844,76.81319427490234,87.08101654052734,65535.0
18839.13687501476,-546.725341796875,105.20536041259766,-130.1932373046875,-271.8861999511719,-8.669464111328125,82.20697021484375,32.48936462402344,89.86682891845703,89.92142486572266,65535.0
18839.137275023313,-550.62548828125,115.53358459472656,-123.00476837158203,-248.44200134277344,-11.008899688720703,79.97669982910156,27.662235260009766,88.13037109375,90.99117279052734,65535.0
18839.137675031867,-547.3718872070312,124.3058090209961,-123.52757263183594,-230.80628967285156,-7.721017360687256,85.18505096435547,34.81211471557617,91.301513671875,100.77400970458984,65535.0
18839.138075040417,-560.884033203125,124.36051177978516,-128.00326538085938,-229.88577270507812,-17.98674201965332,70.12371826171875,21.16210174560547,80.85840606689453,99.99221801757812,65535.0
18839.13847504897,-560.0678100585938,125.7787094116211,-128.7318878173828,-243.76513671875,-17.348766326904297,68.97164916992188,19.821659088134766,82.96955871582031,83.49376678466797,65535.0
18839.138875057524,-570.6870727539062,128.2886505126953,-119.93678283691406,-240.38270568847656,0.5108018517494202,94.92064666748047,45.70117950439453,100.40050506591797,86.05337524414062,65535.0
18839.139275066074,-569.6903076171875,120.62226867675781,-131.3619384765625,-230.5625762939453,-15.322246551513672,79.10909271240234,27.013294219970703,83.88720703125,101.12501525878906,65535.0
18839.139675074628,-565.0515747070312,122.74933624267578,-119.45841979980469,-228.93060302734375,-19.325349807739258,70.38761901855469,20.971298217773438,79.0264892578125,88.154052734375,65535.0
18839.14007508318,-567.8671264648438,128.19944763183594,-115.82081604003906,-226.57093811035156,-6.6709885597229,84.30215454101562,34.129051208496094,92.63287353515625,84.91355895996094,65535.0
18839.140475091735,-568.051025390625,122.7408218383789,-113.9391860961914,-244.9665985107422,-10.591144561767578,77.10557556152344,30.633543014526367,88.22148132324219,90.36835479736328,65535.0
18839.140875100285,-562.1461181640625,123.3277816772461,-121.75848388671875,-285.1026611328125,-6.8148088455200195,82.5977783203125,36.92447280883789,93.58114624023438,76.49116516113281,65535.0
18839.14127510884,-555.767822265625,120.20156860351562,-118.14237976074219,-322.5850830078125,0.40896105766296387,90.75106811523438,40.767333984375,97.39327239990234,76.9676742553711,65535.0
18839.141675117393,-547.2120971679688,114.1855697631836,-115.26628112792969,-390.5663757324219,-0.3423774242401123,88.65684509277344,39.68709182739258,98.65335083007812,80.30914306640625,65535.0
18839.142075125943,-557.8568725585938,113.9858627319336,-127.2666015625,-431.8462219238281,-14.999565124511719,71.93063354492188,26.041181564331055,84.0098648071289,92.97335052490234,65535.0
18839.142475134497,-578.619384765625,113.14851379394531,-121.5269775390625,-434.76483154296875,-21.561511993408203,59.085445404052734,18.034149169921875,74.3065414428711,84.85272216796875,65535.0
18839.14287514305,-558.6178588867188,108.59324645996094,-112.52452850341797,-404.787109375,-17.252578735351562,68.28778076171875,24.707000732421875,81.93439483642578,89.88472747802734,65535.0
18839.1432751516,-533.6030883789062,111.3971939086914,-120.57081604003906,-366.39794921875,-27.270498275756836,52.340511322021484,12.874541282653809,70.15545654296875,89.83133697509766,65535.0
18839.143675160154,-515.5628051757812,123.36217498779297,-117.10780334472656,-364.1557922363281,-23.124120712280273,53.01499938964844,14.847623825073242,74.25093841552734,86.52059936523438,65535.0
18839.144075168708,-493.165283203125,127.8196029663086,-124.1382064819336,-407.0289611816406,-19.345367431640625,62.023746490478516,23.159595489501953,81.51424407958984,86.65931701660156,65535.0
18839.14447517726,-469.2654724121094,134.8181610107422,-111.855224609375,-437.1421813964844,-16.021503448486328,63.320430755615234,25.03129768371582,84.87823486328125,85.2107162475586,65535.0
18839.14487518581,-475.6462097167969,137.45782470703125,-106.02227783203125,-408.4754943847656,-23.219167709350586,51.651546478271484,16.424671173095703,76.55569458007812,95.74763488769531,65535.0
18839.145275194365,-483.7893981933594,147.3427276611328,-109.99452209472656,-327.64459228515625,-25.759048461914062,47.33036804199219,16.270227432250977,75.1504135131836,84.69175720214844,65535.0
18839.14567520292,-493.2626953125,141.17498779296875,-111.6832275390625,-278.2100830078125,-20.121889114379883,53.4323616027832,18.84065055847168,76.46087646484375,89.526123046875,65535.0
18839.14607521147,-486.3876037597656,141.81491088867188,-112.47407531738281,-253.58602905273438,-30.36212158203125,44.734588623046875,11.979898452758789,67.81021118164062,95.66633605957031,65535.0
18839.146475220023,-479.6224060058594,147.52777099609375,-115.83193969726562,-263.6859130859375,-28.260560989379883,42.927734375,14.116734504699707,72.14065551757812,101.86959075927734,65535.0
18839.146875228576,-486.93084716796875,143.24130249023438,-118.87005615234375,-284.039794921875,-23.986114501953125,45.31843948364258,19.875978469848633,73.3000259399414,87.68844604492188,65535.0
18839.14727523713,-477.9870300292969,143.78671264648438,-113.94595336914062,-273.6931457519531,-27.5950927734375,42.82933044433594,15.925323486328125,72.81861114501953,80.7052993774414,65535.0
18839.14767524568,-467.51751708984375,152.81539916992188,-127.80867767333984,-267.7497863769531,-25.958423614501953,41.7958984375,15.495433807373047,73.57463836669922,93.12047576904297,65535.0
18839.148075254234,-479.8288269042969,137.72903442382812,-130.6029052734375,-296.24761962890625,-30.242115020751953,37.1113395690918,11.067697525024414,67.6053466796875,96.38212585449219,65535.0
18839.148475262788,-499.5199890136719,151.923583984375,-125.13508605957031,-346.5055847167969,-36.12962341308594,34.254032135009766,8.132171630859375,65.74571990966797,97.34471893310547,65535.0
18839.148875271338,-532.0005493164062,146.647216796875,-114.73509216308594,-390.92852783203125,-26.600679397583008,42.9035530090332,16.424819946289062,72.56685638427734,82.6328125,65535.0
18839.14927527989,-555.67919921875,146.98782348632812,-123.82658386230469,-388.83514404296875,-33.688594818115234,32.75996017456055,3.827606678009033,64.30474090576172,93.3207778930664,65535.0
18839.149675288445,-585.0599975585938,135.9710693359375,-115.67387390136719,-375.8688049316406,-32.775299072265625,34.154090881347656,7.120937824249268,66.84507751464844,95.12330627441406,65535.0
18839.150075297,-596.63916015625,127.26251220703125,-121.05598449707031,-379.0384216308594,-24.891077041625977,40.4481315612793,12.74779224395752,72.72211456298828,103.89791870117188,65535.0
18839.15047530555,-588.572265625,134.67762756347656,-124.90809631347656,-376.792236328125,-29.273103713989258,38.39652633666992,10.396044731140137,70.52987670898438,93.30245208740234,65535.0
18839.150875314102,-561.1782836914062,127.88056945800781,-125.84679412841797,-391.2314758300781,-27.567731857299805,41.416481018066406,16.773860931396484,75.04673767089844,85.52837371826172,65535.0
18839.151275322656,-556.6497192382812,129.80946350097656,-120.68798828125,-398.2785339355469,-22.957536697387695,46.666866302490234,19.97027587890625,74.49586486816406,92.77589416503906,65535.0
18839.151675331206,-551.4050903320312,127.01705169677734,-111.99510192871094,-396.60809326171875,-29.324899673461914,41.286827087402344,12.551937103271484,70.0511703491211,103.70600128173828,65535.0
18839.15207533976,-545.924072265625,129.84373474121094,-123.5539779663086,-400.779052734375,-28.150577545166016,41.6152229309082,13.304698944091797,70.95594787597656,92.56209564208984,65535.0
18839.152475348314,-554.9332275390625,126.45793914794922,-130.7235107421875,-411.76690673828125,-24.978759765625,46.27716064453125,13.13394546508789,73.57401275634766,80.24868774414062,65535.0
18839.152875356867,-557.1209106445312,113.80545806884766,-127.91564178466797,-429.1917419433594,-19.172697067260742,53.78173065185547,18.39440155029297,80.28713989257812,92.24340057373047,65535.0
18839.153275365417,-539.0,113.21136474609375,-138.81080627441406,-429.5909118652344,-26.872650146484375,50.22850036621094,16.749101638793945,74.58694458007812,95.32650756835938,65535.0
18839.15367537397,-540.0496215820312,115.83057403564453,-138.71231079101562,-391.1153259277344,-21.61890983581543,52.84305953979492,16.302011489868164,75.78267669677734,92.86174011230469,65535.0
18839.154075382525,-558.3599853515625,124.4406967163086,-134.07167053222656,-353.8114013671875,-24.47843360900879,52.64674758911133,14.589629173278809,75.2320556640625,96.9426040649414,65535.0
18839.154475391075,-590.3267211914062,122.07395935058594,-131.6902313232422,-331.6335144042969,-25.062406539916992,54.361759185791016,16.702600479125977,74.78710174560547,94.20050048828125,65535.0
18839.15487539963,-629.6358642578125,117.98936462402344,-131.57350158691406,-331.8155517578125,-27.725025177001953,52.710689544677734,13.475815773010254,73.15811920166016,90.14530181884766,65535.0
18839.155275408182,-641.4073486328125,114.16543579101562,-141.05899047851562,-347.4542541503906,-24.28514289855957,57.699493408203125,17.149234771728516,75.258056640625,100.62480163574219,65535.0
18839.155675416736,-634.17236328125,110.44432830810547,-141.3622283935547,-382.46002197265625,-21.227039337158203,64.74720764160156,18.7040958404541,78.69651794433594,108.82389831542969,65535.0
18839.156075425286,-635.7973022460938,119.79350280761719,-132.85797119140625,-402.7003479003906,-29.73995018005371,53.11805725097656,11.91930103302002,68.83451843261719,95.3193588256836,65535.0
18839.15647543384,-647.2511596679688,113.34062957763672,-135.68594360351562,-388.42059326171875,-19.688705444335938,63.56182098388672,20.827327728271484,77.67145538330078,79.38664245605469,65535.0
18839.156875442393,-612.60302734375,108.88981628417969,-136.0890655517578,-376.14697265625,-19.1591739654541,68.02237701416016,20.192888259887695,79.51296997070312,87.06437683105469,65535.0
18839.157275450943,-586.9965209960938,112.13964080810547,-139.74082946777344,-384.3009338378906,-19.200010299682617,67.31480407714844,23.1529483795166,82.26315307617188,85.4353256225586,65535.0
18839.157675459497,-578.7673950195312,115.01909637451172,-123.44176483154297,-398.1938171386719,-21.518705368041992,68.8821029663086,21.295120239257812,79.94386291503906,84.39778900146484,65535.0
18839.15807546805,-589.863037109375,126.12882232666016,-120.03164672851562,-419.99273681640625,-22.20009994506836,66.07967376708984,18.788272857666016,77.97270202636719,99.56841278076172,65535.0
18839.158475476605,-583.923095703125,118.2868423461914,-122.24127197265625,-432.2190856933594,-31.94695281982422,57.806068420410156,13.74699878692627,72.09349822998047,91.22052001953125,65535.0
18839.158875485155,-582.7944946289062,125.249267578125,-123.46863555908203,-403.4762268066406,-30.806320190429688,56.89254379272461,12.075492858886719,70.31089782714844,83.59807586669922,65535.0
18839.15927549371,-572.5921630859375,130.0458221435547,-124.44905090332031,-364.2880859375,-13.422688484191895,71.61032104492188,25.13108253479004,84.81082153320312,88.94511413574219,65535.0
18839.159675502262,-570.3619995117188,130.77879333496094,-118.86983489990234,-341.9051208496094,-15.9667387008667,74.18586730957031,27.069828033447266,84.14043426513672,91.89398956298828,65535.0
18839.160075510812,-568.8195190429688,135.49484252929688,-108.20886993408203,-322.8197326660156,-24.20721435546875,63.611671447753906,17.12603187561035,77.05062866210938,86.3542251586914,65535.0
18839.160475519366,-561.02392578125,140.6837615966797,-112.81399536132812,-327.71002197265625,-12.958670616149902,69.1832275390625,24.06025505065918,82.29487609863281,88.23625183105469,65535.0
18839.16087552792,-561.4380493164062,147.4123992919922,-121.25836944580078,-335.4276123046875,-18.23580551147461,64.15650939941406,22.657665252685547,81.8163070678711,82.67120361328125,65535.0
18839.161275536473,-549.0883178710938,149.4987030029297,-118.1681137084961,-348.6791687011719,-27.24306869506836,56.604618072509766,11.81699275970459,74.68690490722656,81.01961517333984,65535.0
18839.161675545023,-555.1347045898438,135.4998016357422,-119.34165954589844,-353.65716552734375,-26.533674240112305,55.417789459228516,13.871221542358398,71.44710540771484,97.70008850097656,65535.0
18839.162075553577,-548.4605712890625,131.77442932128906,-117.2376708984375,-345.6542663574219,-25.614282608032227,55.261959075927734,17.943279266357422,75.29930877685547,107.03136444091797,65535.0
18839.16247556213,-546.9722290039062,135.1253662109375,-111.88553619384766,-340.5606384277344,-17.086856842041016,63.889461517333984,23.916378021240234,83.02644348144531,100.23392486572266,65535.0
18839.16287557068,-552.1917724609375,128.4241180419922,-112.68450164794922,-335.727783203125,-23.26433563232422,56.2619514465332,15.735572814941406,75.848388671875,92.25444030761719,65535.0
18839.163275579234,-551.2305908203125,131.8846893310547,-113.40084838867188,-337.8086242675781,-28.234588623046875,51.2061767578125,12.129972457885742,74.69112396240234,79.48399353027344,65535.0
18839.163675587788,-553.1671752929688,124.71995544433594,-113.0372543334961,-364.1636657714844,-22.96706771850586,54.573707580566406,18.950389862060547,77.071044921875,82.09576416015625,65535.0
18839.16407559634,-552.1232299804688,135.07435607910156,-106.99930572509766,-395.58905029296875,-29.48630714416504,45.14192581176758,13.977458000183105,66.86341094970703,95.28941345214844,65535.0
18839.16447560489,-550.2532348632812,141.7749786376953,-105.09842681884766,-404.9437561035156,-24.828420639038086,50.15461349487305,17.724929809570312,74.54554748535156,84.26072692871094,65535.0
18839.164875613445,-548.6550903320312,138.49339294433594,-116.52666473388672,-404.0335693359375,-31.413789749145508,44.7298469543457,13.039976119995117,69.15037536621094,95.9063491821289,65535.0
18839.165275622,-547.154296875,137.2815399169922,-106.01676940917969,-381.0103759765625,-32.901123046875,39.14902877807617,8.732608795166016,65.91114044189453,90.57176971435547,65535.0
18839.16567563055,-543.4995727539062,133.99534606933594,-109.45986938476562,-347.87744140625,-22.85616111755371,51.01266098022461,17.594371795654297,76.06661224365234,92.7067642211914,65535.0
18839.166075639103,-547.9251708984375,138.67555236816406,-106.5584945678711,-292.4212646484375,-22.077566146850586,52.51314163208008,18.99988555908203,76.84563446044922,93.14056396484375,65535.0
18839.166475647657,-548.7052001953125,134.03115844726562,-99.95222473144531,-261.0155029296875,-32.678932189941406,41.731971740722656,8.678199768066406,69.43778228759766,93.85059356689453,65535.0
18839.16687565621,-543.297607421875,135.30911254882812,-103.24778747558594,-246.88824462890625,-34.03865432739258,35.40625762939453,10.24979305267334,66.12523651123047,95.10102844238281,65535.0
18839.16727566476,-540.2123413085938,135.33737182617188,-105.2081527709961,-260.18536376953125,-45.781593322753906,19.906192779541016,-1.6162281036376953,52.63642883300781,94.20729064941406,65535.0
18839.167675673314,-550.9132690429688,133.53585815429688,-103.7344970703125,-271.9616394042969,-49.16089630126953,16.214792251586914,-8.455182075500488,50.62714767456055,91.210693359375,65535.0
18839.168075681868,-548.0399169921875,137.51620483398438,-98.44007873535156,-289.0177001953125,-38.84552764892578,22.580951690673828,2.223670244216919,58.97637939453125,85.32605743408203,65535.0
18839.168475690418,-514.765869140625,126.34146881103516,-95.6963882446289,-308.1732177734375,-41.94611740112305,24.27518653869629,-0.5353965759277344,58.67760467529297,90.71279907226562,65535.0
18839.16887569897,-497.3644714355469,121.59718322753906,-98.9228286743164,-315.26953125,-44.8150520324707,19.5460262298584,-3.8212943077087402,53.5766716003418,94.37345886230469,65535.0
18839.169275707525,-493.68072509765625,131.67201232910156,-109.05198669433594,-335.8127136230469,-35.33616256713867,29.796396255493164,5.223340034484863,60.447509765625,88.20991516113281,65535.0
18839.16967571608,-485.1273193359375,135.82015991210938,-117.06668853759766,-344.5433654785156,-36.94091033935547,34.92135238647461,5.780611991882324,63.302005767822266,83.57525634765625,65535.0
18839.17007572463,-491.6607971191406,128.4610595703125,-106.65287780761719,-330.291748046875,-36.272308349609375,32.60489273071289,3.432529926300049,63.154815673828125,88.0600814819336,65535.0
18839.170475733183,-501.0805969238281,133.2819061279297,-107.47636413574219,-315.27056884765625,-36.215965270996094,30.87872314453125,2.3809115886688232,60.49942398071289,86.12830352783203,65535.0
18839.170875741736,-495.1605224609375,131.86373901367188,-110.31837463378906,-319.6795654296875,-25.451448440551758,46.66728591918945,14.044713973999023,75.26451110839844,82.51702117919922,65535.0
18839.171275750286,-491.2204895019531,128.65867614746094,-113.13532257080078,-320.8240661621094,-25.787153244018555,48.44236373901367,16.4022159576416,72.4923095703125,102.17965698242188,65535.0
18839.17167575884,-477.22686767578125,126.06463623046875,-107.68171691894531,-328.0043640136719,-40.618831634521484,30.262413024902344,-1.0787720680236816,57.876953125,92.50730895996094,65535.0
18839.172075767394,-476.8565368652344,127.81491088867188,-113.60291290283203,-324.7304382324219,-30.404338836669922,42.590110778808594,11.5735445022583,71.67182159423828,81.66846466064453,65535.0
18839.172475775948,-459.5954284667969,134.69830322265625,-122.26555633544922,-323.37689208984375,-29.615928649902344,47.0411491394043,10.906754493713379,68.51709747314453,84.2426986694336,65535.0
18839.172875784498,-444.4380187988281,123.9261474609375,-114.83147430419922,-341.2527160644531,-24.838850021362305,50.229129791259766,16.59096336364746,72.25209045410156,79.4206314086914,65535.0
18839.17327579305,-441.86712646484375,126.02136993408203,-114.59005737304688,-344.4464111328125,-18.78335952758789,60.690216064453125,24.109251022338867,81.79737091064453,90.67648315429688,65535.0
18839.173675801605,-449.12066650390625,122.87410736083984,-120.89016723632812,-361.4428405761719,-18.30744743347168,64.05474090576172,22.44841957092285,82.07527160644531,99.7695083618164,65535.0
18839.174075810155,-451.44708251953125,118.7877197265625,-129.18309020996094,-373.36053466796875,-21.097511291503906,60.81250762939453,21.24039077758789,79.53170776367188,97.67850494384766,65535.0
18839.17447581871,-448.47760009765625,117.18077850341797,-132.39816284179688,-367.7347412109375,-18.53420639038086,63.91740417480469,22.843875885009766,79.069091796875,87.68265533447266,65535.0
18839.174875827262,-474.95166015625,121.06670379638672,-124.99671936035156,-341.8796691894531,-13.911064147949219,73.3578872680664,27.79416275024414,87.40137481689453,84.25468444824219,65535.0
18839.175275835816,-482.8380126953125,123.47301483154297,-121.69880676269531,-322.0334167480469,-15.748882293701172,73.7081069946289,26.021839141845703,85.50305938720703,80.72006225585938,65535.0
18839.175675844366,-494.56640625,113.45130920410156,-123.46611022949219,-322.6315002441406,-18.025230407714844,70.81586456298828,23.803552627563477,83.02197265625,85.87887573242188,65535.0
18839.17607585292,-517.8406372070312,118.75483703613281,-123.94719696044922,-332.4288635253906,-6.472044467926025,85.46603393554688,35.5687370300293,95.06482696533203,89.21144104003906,65535.0
18839.176475861474,-533.9697265625,112.0855941772461,-130.1107635498047,-352.9272155761719,-2.2122695446014404,88.12162780761719,35.611541748046875,95.09886169433594,90.21808624267578,65535.0
18839.176875870024,-535.7904052734375,106.54192352294922,-130.71995544433594,-368.6074523925781,-4.874124050140381,86.32709503173828,34.453155517578125,94.39249420166016,112.42176818847656,65535.0
18839.177275878577,-528.14990234375,117.92786407470703,-130.60328674316406,-387.8349304199219,-3.6079518795013428,89.27037048339844,35.768951416015625,95.41791534423828,90.0312728881836,65535.0
18839.17767588713,-515.87646484375,108.83387756347656,-119.1175765991211,-388.456787109375,-9.916027069091797,81.46051025390625,29.583295822143555,89.95301055908203,76.70114135742188,65535.0
18839.178075895685,-501.4088134765625,115.69825744628906,-112.91847229003906,-401.03125,-24.53704261779785,62.89027786254883,15.518857955932617,74.45250701904297,80.5544662475586,65535.0
18839.178475904235,-491.9658508300781,120.45923614501953,-111.93061828613281,-407.1384582519531,-14.034202575683594,73.34049987792969,24.114774703979492,83.97368621826172,88.65848541259766,65535.0
18839.17887591279,-483.57489013671875,112.06083679199219,-114.38972473144531,-381.5861511230469,-18.477405548095703,73.53897094726562,23.558792114257812,81.77568817138672,87.23670959472656,65535.0
18839.179275921342,-466.42791748046875,119.3394546508789,-110.50446319580078,-335.04925537109375,-23.627689361572266,68.72209930419922,20.47963523864746,76.74796295166016,80.62879180908203,65535.0
18839.179675929892,-467.30511474609375,113.56871795654297,-109.26641082763672,-314.4368896484375,-17.87105941772461,71.6483154296875,25.14084243774414,85.79948425292969,98.4482650756836,65535.0
18839.180075938446,-440.598388671875,113.41138458251953,-113.21600341796875,-333.21881103515625,-9.13245964050293,82.70159912109375,33.12431335449219,91.75174713134766,97.05970001220703,65535.0
18839.180475947,-431.7960510253906,120.95271301269531,-108.375244140625,-349.5011901855469,-17.449630737304688,70.17474365234375,24.51549530029297,82.94659423828125,95.76639556884766,65535.0
18839.180875955553,-440.0972900390625,119.43611145019531,-111.53319549560547,-394.4656066894531,-11.096343994140625,76.12287139892578,30.1170597076416,89.0885238647461,84.57524108886719,65535.0
18839.181275964103,-464.2923889160156,115.55445861816406,-115.72781372070312,-421.8388366699219,-15.892671585083008,66.1355972290039,26.568452835083008,82.76305389404297,82.82306671142578,65535.0
18839.181675972657,-463.15863037109375,115.39348602294922,-101.51469421386719,-408.7385559082031,-10.872688293457031,75.96046447753906,32.82686233520508,93.05860137939453,81.0965805053711,65535.0
18839.18207598121,-451.8597717285156,123.7670669555664,-106.51022338867188,-403.3310852050781,-11.067131996154785,77.4033203125,32.506988525390625,91.17414093017578,92.70264434814453,65535.0
18839.18247598976,-446.75640869140625,127.96243286132812,-108.88876342773438,-390.3124694824219,-22.09588050842285,62.7667236328125,19.218751907348633,78.49456024169922,87.33789825439453,65535.0
18839.182875998315,-436.18646240234375,131.4223175048828,-107.2504653930664,-387.68731689453125,-32.371742248535156,48.53042984008789,9.965035438537598,66.84667205810547,76.0216064453125,65535.0
18839.18327600687,-431.4101867675781,132.97650146484375,-106.26960754394531,-398.85443115234375,-26.338064193725586,51.273372650146484,12.794032096862793,72.16500091552734,65.7693099975586,65535.0
18839.183676015422,-427.7054748535156,133.3914794921875,-110.5443344116211,-408.59112548828125,-25.08314323425293,52.77058029174805,16.112537384033203,74.15118408203125,90.92131042480469,65535.0
18839.184076023972,-420.0136413574219,125.48663330078125,-97.29756164550781,-429.4147644042969,-12.585149765014648,63.53239822387695,25.68845558166504,85.56661987304688,88.21857452392578,65535.0
18839.184476032526,-411.5202941894531,135.4492645263672,-100.50697326660156,-437.9707336425781,-21.760648727416992,59.29243850708008,21.795122146606445,79.17769622802734,82.28399658203125,65535.0
18839.18487604108,-398.8807373046875,130.0963592529297,-111.88206481933594,-430.546630859375,-23.21107292175293,54.324562072753906,20.5118408203125,77.76858520507812,78.24617004394531,65535.0
18839.18527604963,-400.6734924316406,130.74911499023438,-104.47982025146484,-417.7041015625,-27.91608428955078,47.71872329711914,13.703155517578125,73.25584411621094,83.01384735107422,65535.0
18839.185676058183,-402.58453369140625,138.70997619628906,-106.16265106201172,-393.646484375,-20.74432373046875,51.64791488647461,20.319719314575195,79.96003723144531,82.78555297851562,65535.0
18839.186076066737,-422.577880859375,132.55963134765625,-114.90464782714844,-393.4105224609375,-23.448293685913086,50.133331298828125,17.768455505371094,72.87196350097656,90.52840423583984,65535.0
18839.18647607529,-446.918212890625,132.2604217529297,-114.09907531738281,-362.7288818359375,-28.140506744384766,41.156951904296875,11.125007629394531,70.20317077636719,81.56873321533203,65535.0
18839.18687608384,-448.4513854980469,139.83154296875,-110.86004638671875,-329.06787109375,-35.29716873168945,31.961658477783203,3.2953994274139404,63.60203170776367,86.23918151855469,65535.0
18839.187276092394,-438.2349548339844,135.8259735107422,-115.87571716308594,-326.8566589355469,-40.41605758666992,24.804330825805664,1.5965458154678345,62.0084342956543,95.79601287841797,65535.0
18839.187676100948,-431.6785888671875,131.72714233398438,-122.50318908691406,-351.82464599609375,-34.81211471557617,33.72879409790039,8.345596313476562,66.51930236816406,83.84831237792969,65535.0
18839.188076109498,-438.8179626464844,135.09512329101562,-119.76345825195312,-366.6058044433594,-28.307605743408203,37.92928695678711,12.198582649230957,70.03113555908203,94.77462768554688,65535.0
18839.18847611805,-436.58917236328125,131.66192626953125,-108.22460174560547,-368.24298095703125,-29.579668045043945,37.27716064453125,10.3763427734375,67.88823699951172,94.2798080444336,65535.0
18839.188876126605,-433.7428283691406,118.35896301269531,-106.70513916015625,-384.88818359375,-41.002601623535156,26.65155792236328,0.8641873002052307,58.973995208740234,90.97754669189453,65535.0
18839.18927613516,-441.404541015625,125.20030975341797,-118.63300323486328,-421.9780578613281,-35.25653839111328,29.668703079223633,6.628111839294434,63.785335540771484,85.0668716430664,65535.0
18839.18967614371,-449.08587646484375,112.25888061523438,-120.93811798095703,-458.49847412109375,-37.2449951171875,30.055110931396484,6.192974090576172,64.21946716308594,81.9722900390625,65535.0
18839.190076152263,-465.8160095214844,113.48860931396484,-123.40679168701172,-463.00030517578125,-37.30925750732422,29.269634246826172,5.305689334869385,61.15535354614258,86.86641693115234,65535.0
18839.190476160817,-487.4519348144531,121.96630096435547,-119.44622039794922,-432.8085021972656,-25.750368118286133,43.10084533691406,16.22435760498047,74.45684051513672,83.59733581542969,65535.0
18839.190876169367,-491.51910400390625,119.74998474121094,-121.45792388916016,-382.26593017578125,-27.580121994018555,45.81882858276367,13.320887565612793,73.8295669555664,80.88179016113281,65535.0
18839.19127617792,-458.72491455078125,122.87909698486328,-112.59019470214844,-334.1993408203125,-31.74306297302246,38.765953063964844,10.172733306884766,67.68817138671875,75.7863540649414,65535.0
18839.191676186474,-441.93731689453125,134.0063018798828,-113.33836364746094,-310.38433837890625,-23.697580337524414,50.47190475463867,19.150753021240234,76.5807876586914,72.96018981933594,65535.0
18839.192076195028,-465.9945983886719,136.58688354492188,-125.16751861572266,-280.7583312988281,-33.41743469238281,41.057334899902344,8.303937911987305,66.52762603759766,69.30448913574219,65535.0
18839.192476203578,-478.39019775390625,134.3520050048828,-126.9308853149414,-256.82452392578125,-27.832128524780273,42.050323486328125,13.409419059753418,68.44044494628906,69.08503723144531,65535.0
18839.19287621213,-479.7405090332031,133.93585205078125,-123.72200012207031,-288.8413391113281,-28.111316680908203,47.15892028808594,11.818181037902832,71.44408416748047,74.12397003173828,65535.0
18839.193276220685,-499.4869689941406,129.81614685058594,-120.8785629272461,-333.0403747558594,-25.109262466430664,52.122406005859375,14.768693923950195,75.98074340820312,76.91653442382812,65535.0
18839.193676229235,-506.90631103515625,123.51390838623047,-127.10930633544922,-366.8681640625,-21.323625564575195,55.88745880126953,18.053937911987305,79.59380340576172,94.84900665283203,65535.0
18839.19407623779,-522.145751953125,117.39346313476562,-121.78791046142578,-370.3274841308594,-28.200265884399414,49.16067886352539,10.138875961303711,73.43714141845703,90.82270812988281,65535.0
18839.194476246343,-534.8477783203125,120.87972259521484,-114.45977020263672,-334.2847595214844,-20.330408096313477,61.35467529296875,20.88147735595703,80.20840454101562,83.69835662841797,65535.0
18839.194876254896,-521.5657348632812,116.18290710449219,-120.7559585571289,-306.9916076660156,-19.1547908782959,63.68289566040039,20.673542022705078,77.9322509765625,76.30043029785156,65535.0
18839.195276263446,-488.1295471191406,102.14215850830078,-126.0372543334961,-296.6710510253906,-11.83527946472168,72.34418487548828,25.352741241455078,86.5287857055664,70.9288558959961,65535.0
18839.195676272,-456.59808349609375,108.78372192382812,-117.2400131225586,-272.5370788574219,-16.985797882080078,71.63423156738281,25.101415634155273,83.85259246826172,81.96797943115234,65535.0
18839.196076280554,-444.8050537109375,106.25189208984375,-119.33423614501953,-241.20562744140625,-16.66025733947754,72.67207336425781,26.309537887573242,87.27885437011719,79.1333236694336,65535.0
18839.196476289104,-459.24285888671875,102.98756408691406,-122.14495086669922,-218.77891540527344,-6.494453430175781,83.0281753540039,34.730918884277344,93.68862915039062,87.65739440917969,65535.0
18839.196876297658,-470.40570068359375,106.36295318603516,-116.14786529541016,-223.15675354003906,-14.492968559265137,76.67932891845703,30.335905075073242,85.6742935180664,97.82898712158203,65535.0
18839.19727630621,-495.2109680175781,109.22026824951172,-114.4287338256836,-239.4082794189453,-21.824493408203125,67.82444763183594,20.235624313354492,76.5061264038086,95.34840393066406,65535.0
18839.197676314765,-522.4302978515625,117.62406921386719,-111.53733825683594,-251.75901794433594,-14.82804012298584,74.3011245727539,23.476839065551758,82.85189056396484,78.93570709228516,65535.0
18839.198076323315,-524.0496826171875,120.47573852539062,-112.45037841796875,-262.789306640625,-15.670284271240234,76.1769790649414,28.375225067138672,84.08145141601562,86.29431915283203,65535.0
18839.19847633187,-530.3048095703125,126.06376647949219,-103.36487579345703,-254.22601318359375,-5.541922092437744,81.01455688476562,31.166275024414062,91.8291244506836,83.74577331542969,65535.0
18839.198876340422,-557.41015625,135.06671142578125,-102.81798553466797,-273.2908630371094,-13.903119087219238,73.97150421142578,24.69679832458496,84.43258666992188,70.9666976928711,65535.0
18839.199276348972,-610.55078125,134.98460388183594,-107.322509765625,-299.0904235839844,-19.91252899169922,72.53797149658203,22.12527084350586,79.47379302978516,85.59295654296875,65535.0
18839.199676357526,-613.0029907226562,129.63894653320312,-100.9099349975586,-291.4582214355469,-17.033048629760742,73.54058837890625,24.464120864868164,82.02114868164062,82.94938659667969,65535.0
18839.20007636608,-584.9688110351562,125.1518783569336,-102.87397766113281,-257.7507629394531,-14.671156883239746,73.4618911743164,27.90744400024414,84.01829528808594,79.52964782714844,65535.0
18839.200476374634,-536.6854248046875,136.47735595703125,-115.29557800292969,-231.5589141845703,-16.10381507873535,72.0230484008789,25.090116500854492,83.93968200683594,83.00947570800781,65535.0
18839.200876383184,-494.68841552734375,138.5241241455078,-120.70560455322266,-214.90234375,-18.701026916503906,67.5848388671875,20.384275436401367,81.58710479736328,85.00634765625,65535.0
18839.201276391737,-480.34552001953125,137.91722106933594,-112.52556610107422,-202.17405700683594,-13.602025032043457,72.47669982910156,27.376060485839844,87.3914566040039,85.92426300048828,65535.0
18839.20167640029,-498.1898193359375,140.02040100097656,-114.88038635253906,-216.4326171875,-17.942106246948242,67.37024688720703,21.743989944458008,81.76018524169922,79.50736236572266,65535.0
18839.20207640884,-536.021728515625,142.64111328125,-110.45178985595703,-238.30776977539062,-16.522830963134766,69.35009765625,24.0403995513916,84.05628967285156,88.07266998291016,65535.0
18839.202476417395,-566.483642578125,140.46890258789062,-111.21088409423828,-242.18569946289062,-11.1978759765625,72.3910140991211,30.585914611816406,89.5235595703125,85.81526184082031,65535.0
18839.20287642595,-578.2352905273438,157.87100219726562,-109.97234344482422,-264.834228515625,-18.79373550415039,61.6015739440918,20.021615982055664,78.72949981689453,85.49536895751953,65535.0
18839.203276434502,-577.0772705078125,156.5478057861328,-101.55715942382812,-326.16986083984375,-24.658227920532227,53.729042053222656,14.086451530456543,73.3909683227539,83.41641998291016,65535.0
18839.203676443052,-578.6578979492188,149.0666046142578,-106.21233367919922,-383.710693359375,-26.068557739257812,51.975868225097656,14.229414939880371,70.96758270263672,78.71981811523438,65535.0
18839.204076451606,-564.6778564453125,148.50735473632812,-102.77338409423828,-421.75958251953125,-29.862215042114258,47.60454559326172,12.270679473876953,70.76808166503906,94.0440902709961,65535.0
18839.20447646016,-550.5137939453125,147.04441833496094,-93.9833984375,-411.0581359863281,-23.51869773864746,47.95145034790039,14.041852951049805,71.64057922363281,90.59290313720703,65535.0
18839.20487646871,-540.8832397460938,155.37506103515625,-96.06855773925781,-385.93011474609375,-27.949617385864258,45.042747497558594,11.57079792022705,71.15686798095703,78.11627960205078,65535.0
18839.205276477263,-531.29052734375,164.89138793945312,-96.9771957397461,-374.64093017578125,-18.07040023803711,55.284488677978516,23.337331771850586,80.46578979492188,72.13501739501953,65535.0
18839.205676485817,-546.81640625,169.12832641601562,-99.59684753417969,-364.0528869628906,-31.80982780456543,44.09032440185547,13.124000549316406,72.14564514160156,90.74860382080078,65535.0
18839.20607649437,-542.0346069335938,168.1800079345703,-93.76634979248047,-340.7085266113281,-36.5630989074707,33.66573715209961,2.7680492401123047,62.03035354614258,80.07682037353516,65535.0
18839.20647650292,-537.3511352539062,164.69033813476562,-86.96044921875,-336.8944091796875,-29.87844467163086,37.949642181396484,11.763846397399902,67.15523529052734,83.56674194335938,65535.0
18839.206876511475,-553.3770141601562,157.5383758544922,-95.7703857421875,-322.6673583984375,-37.012939453125,28.403400421142578,5.769642353057861,59.010799407958984,85.7528076171875,65535.0
18839.20727652003,-574.0375366210938,139.63137817382812,-94.06087493896484,-310.9015808105469,-44.353614807128906,22.003210067749023,-3.3562405109405518,55.8868408203125,84.44677734375,65535.0
18839.20767652858,-575.6927490234375,143.49986267089844,-94.4285659790039,-303.8209533691406,-30.647287368774414,34.58769989013672,7.127981662750244,65.85060119628906,86.9814224243164,65535.0
18839.208076537132,-566.7858276367188,142.78565979003906,-97.56405639648438,-286.2999267578125,-34.663814544677734,34.698265075683594,8.600973129272461,65.10774993896484,70.64297485351562,65535.0
18839.208476545686,-562.7590942382812,147.79559326171875,-105.85865020751953,-275.2173156738281,-36.74969482421875,28.82975196838379,4.820374011993408,64.21289825439453,81.17718505859375,65535.0
18839.20887655424,-564.626708984375,142.9277801513672,-103.603515625,-268.0508117675781,-37.00536346435547,27.121986389160156,3.9461920261383057,59.97578811645508,91.22727966308594,65535.0
18839.20927656279,-549.9837646484375,149.05224609375,-94.0086898803711,-265.5172119140625,-27.530698776245117,37.74374771118164,15.0565767288208,72.44175720214844,86.36750030517578,65535.0
18839.209676571343,-533.419921875,148.2501678466797,-101.44762420654297,-268.88446044921875,-27.864511489868164,39.81515121459961,14.715577125549316,72.4878921508789,77.84153747558594,65535.0
18839.210076579897,-507.6868591308594,145.68223571777344,-99.38877868652344,-281.23828125,-41.37022018432617,29.42473602294922,0.7431012988090515,58.927913665771484,88.07073974609375,65535.0
18839.210476588447,-487.90716552734375,145.19456481933594,-98.25750732421875,-303.4429016113281,-35.355709075927734,37.287960052490234,7.197081089019775,65.68377685546875,78.79141998291016,65535.0
18839.210876597,-489.62127685546875,137.64642333984375,-102.29566955566406,-298.1183776855469,-23.008636474609375,46.60646438598633,15.0112943649292,73.42558288574219,78.24829864501953,65535.0
18839.211276605554,-472.9903869628906,139.15298461914062,-101.72449493408203,-285.9656066894531,-29.946901321411133,41.921287536621094,8.904411315917969,67.96006774902344,92.181396484375,65535.0
18839.211676614108,-472.71368408203125,140.4921112060547,-114.65760040283203,-263.8219909667969,-41.94522476196289,31.3869571685791,1.4571795463562012,58.43526840209961,80.9679946899414,65535.0
18839.212076622658,-483.5865783691406,150.07012939453125,-107.78893280029297,-246.1600341796875,-29.626270294189453,39.58104705810547,13.25690746307373,69.70557403564453,78.1009521484375,65535.0
18839.21247663121,-484.1053161621094,145.3893585205078,-104.49369049072266,-258.8218078613281,-20.321250915527344,51.307376861572266,17.902042388916016,74.98509216308594,71.39168548583984,65535.0
18839.212876639765,-472.2084045410156,128.50692749023438,-114.18545532226562,-285.86065673828125,-25.100828170776367,50.74753189086914,16.17066192626953,73.2430648803711,74.98138427734375,65535.0
18839.213276648316,-471.925537109375,136.30517578125,-109.98115539550781,-308.7288818359375,-29.7888126373291,48.17010498046875,12.156495094299316,70.21368408203125,83.20244598388672,65535.0
18839.21367665687,-471.47735595703125,138.56723022460938,-106.39947509765625,-299.8219909667969,-27.340728759765625,48.266929626464844,10.644550323486328,68.77189636230469,72.00717163085938,65535.0
18839.214076665423,-469.94488525390625,133.1924285888672,-109.64215850830078,-267.7458190917969,-20.454559326171875,58.05014419555664,19.835987091064453,78.01900482177734,76.97045135498047,65535.0
18839.214476673977,-465.43194580078125,133.44839477539062,-129.811767578125,-243.349365234375,-29.062271118164062,52.59657669067383,14.429869651794434,71.57826232910156,73.04224395751953,65535.0
18839.214876682527,-469.97100830078125,129.0904083251953,-130.6416015625,-239.42210388183594,-32.42055892944336,46.7607421875,8.097532272338867,64.29608154296875,79.08363342285156,65535.0
18839.21527669108,-462.5482482910156,137.25384521484375,-132.37794494628906,-205.56201171875,-34.886470794677734,42.85852813720703,5.559525012969971,62.789302825927734,76.34927368164062,65535.0
18839.215676699634,-461.224853515625,143.2974853515625,-134.4008331298828,-176.33958435058594,-23.605281829833984,57.79196548461914,19.84915542602539,77.10462951660156,84.74456024169922,65535.0
18839.216076708184,-473.61083984375,130.8262176513672,-136.58201599121094,-161.64389038085938,-14.101740837097168,70.84230041503906,27.834558486938477,84.19277954101562,73.34344482421875,65535.0
18839.216476716738,-483.81060791015625,131.89002990722656,-129.1443328857422,-159.3935546875,-25.539108276367188,60.57466125488281,14.668855667114258,72.23298645019531,68.99618530273438,65535.0
18839.21687672529,-492.11627197265625,129.28773498535156,-125.06045532226562,-169.0582275390625,-15.78769302368164,73.13204193115234,24.22836685180664,83.66777801513672,83.5491714477539,65535.0
18839.217276733845,-504.065185546875,140.27915954589844,-124.35454559326172,-192.05535888671875,-22.887941360473633,65.29124450683594,15.75602912902832,73.81212615966797,87.49143981933594,65535.0
18839.217676742395,-506.5509033203125,136.65509033203125,-131.89739990234375,-197.12030029296875,-17.883115768432617,74.2464370727539,24.883541107177734,86.11493682861328,81.987060546875,65535.0
18839.21807675095,-496.80810546875,132.02392578125,-123.36029815673828,-240.96890258789062,-8.289024353027344,83.35233306884766,33.347511291503906,91.9488754272461,74.65460205078125,65535.0
18839.218476759503,-519.983642578125,142.4093017578125,-114.55108642578125,-292.5353698730469,-17.298959732055664,74.60313415527344,24.923974990844727,83.79486846923828,77.22418975830078,65535.0
18839.218876768053,-548.3521728515625,148.6829071044922,-112.22927856445312,-310.91802978515625,-15.968764305114746,75.48435974121094,27.951311111450195,84.17474365234375,72.62869262695312,65535.0
18839.219276776606,-578.356689453125,140.30862426757812,-123.1079330444336,-280.3674011230469,-13.991369247436523,77.00721740722656,29.09587287902832,88.1820297241211,85.00154113769531,65535.0
18839.21967678516,-603.0018310546875,139.68751525878906,-105.08036041259766,-222.65980529785156,-14.378565788269043,76.61666870117188,25.07479476928711,84.67484283447266,102.51911926269531,65535.0
18839.220076793714,-619.0325317382812,151.94012451171875,-112.63846588134766,-189.77926635742188,-14.704357147216797,73.83912658691406,25.827049255371094,84.94148254394531,93.127197265625,65535.0
18839.220476802264,-624.5086059570312,146.4597930908203,-117.93286895751953,-182.0648956298828,-23.519559860229492,62.40277862548828,17.457242965698242,75.24905395507812,89.24755859375,65535.0
18839.220876810818,-607.0734252929688,139.6176300048828,-113.96854400634766,-182.59893798828125,-15.799874305725098,72.29102325439453,26.709869384765625,85.89034271240234,76.49053192138672,65535.0
18839.22127681937,-596.6160278320312,142.66064453125,-113.36455535888672,-187.29286193847656,-15.34939193725586,69.5740966796875,26.990869522094727,86.66036987304688,79.97442626953125,65535.0
18839.22167682792,-598.2689208984375,142.16514587402344,-114.69061279296875,-224.8188018798828,-22.139387130737305,66.86378479003906,22.299560546875,79.92765808105469,81.07069396972656,65535.0
18839.222076836475,-606.1505126953125,140.83291625976562,-117.8282241821289,-241.41773986816406,-8.170360565185547,75.68892669677734,32.37538146972656,89.71885681152344,65.92840576171875,65535.0
18839.22247684503,-575.0323486328125,143.34176635742188,-109.1008071899414,-284.7890625,-4.994236946105957,78.19287872314453,34.30569839477539,93.8970718383789,81.04006958007812,65535.0
