0,1,2,3,4,5,6,7,8,9,10
13990.450551862208,305.4034118652344,427.2406311035156,-3.003678560256958,-559.5457763671875,-26.68431854248047,40.42598342895508,18.65631103515625,74.92638397216797,16383.5,65535.0
13990.450951870838,365.8412170410156,423.932373046875,37.863834381103516,-571.2122802734375,-26.67445182800293,40.9832763671875,17.08624839782715,74.02350616455078,16383.5,65535.0
13990.451351879468,510.8967590332031,421.966796875,35.140899658203125,-574.0479736328125,-23.388036727905273,43.360294342041016,21.046728134155273,76.46939086914062,16383.5,65535.0
13990.451751888097,618.8748779296875,423.2266540527344,33.714168548583984,-570.4420776367188,-22.974815368652344,43.01376724243164,21.189729690551758,76.01637268066406,16383.5,65535.0
13990.452151896727,600.7572631835938,415.5224914550781,30.80775260925293,-582.0917358398438,-20.09453582763672,48.66948699951172,24.804054260253906,84.11482238769531,16383.5,65535.0
13990.452551905357,556.5921020507812,414.8265075683594,17.158796310424805,-593.0770874023438,-19.23430633544922,52.58488464355469,27.681743621826172,84.50690460205078,16383.5,65535.0
13990.452951913987,538.9312744140625,420.92425537109375,23.449186325073242,-582.8936767578125,-24.19921875,44.68818283081055,19.293256759643555,72.39466857910156,16383.5,65535.0
13990.453351922615,519.090087890625,412.2239074707031,15.875953674316406,-573.4581909179688,-25.969032287597656,45.952186584472656,16.833070755004883,71.64252471923828,16383.5,65535.0
13990.453751931245,514.346435546875,414.93878173828125,19.033742904663086,-572.0162353515625,-19.6413631439209,53.76951217651367,26.651819229125977,79.68955993652344,16383.5,65535.0
13990.454151939875,527.8529663085938,410.51214599609375,32.702362060546875,-561.6808471679688,-15.407394409179688,59.19730758666992,27.73162078857422,81.00031280517578,16383.5,65535.0
13990.454551948505,519.3903198242188,412.0513610839844,27.953298568725586,-556.0559692382812,-24.94430160522461,50.27742385864258,17.562925338745117,72.59109497070312,16383.5,65535.0
13990.454951957134,501.6802062988281,409.05804443359375,29.48772430419922,-554.5175170898438,-24.536911010742188,52.565711975097656,19.379640579223633,76.25257873535156,16383.5,65535.0
13990.455351965764,500.0001220703125,411.87744140625,38.27070236206055,-540.5223388671875,-19.14116096496582,58.02699279785156,21.634265899658203,79.62353515625,16383.5,65535.0
13990.455751974394,522.0039672851562,411.982421875,35.80404281616211,-528.9920043945312,-26.94969940185547,54.25305938720703,18.294795989990234,75.84355163574219,16383.5,65535.0
13990.456151983024,536.4957885742188,410.99298095703125,45.28712463378906,-529.75048828125,-15.118402481079102,66.79368591308594,29.531238555908203,85.71135711669922,16383.5,65535.0
13990.456551991652,540.8992309570312,410.08306884765625,58.59082794189453,-526.8125,-15.248188018798828,71.27519989013672,32.05259323120117,85.6785659790039,16383.5,65535.0
13990.456952000282,545.501708984375,410.44757080078125,71.5787124633789,-525.3230590820312,-10.667340278625488,73.39369201660156,32.03768539428711,86.18472290039062,16383.5,65535.0
13990.457352008912,537.2055053710938,412.2365417480469,65.97734069824219,-523.7830200195312,-11.619500160217285,70.72699737548828,32.158267974853516,87.35690307617188,16383.5,65535.0
13990.457752017543,528.4376831054688,405.6780700683594,57.05868148803711,-515.1572265625,-10.047688484191895,74.77178192138672,33.83299255371094,88.45353698730469,16383.5,65535.0
13990.45815202617,537.2407836914062,408.9272766113281,46.52189636230469,-506.9272766113281,-12.850675582885742,75.36481475830078,30.79726219177246,86.30421447753906,16383.5,65535.0
13990.458552034801,567.8976440429688,411.54644775390625,55.32682418823242,-516.6691284179688,-3.22806453704834,86.65679931640625,41.63730239868164,96.59627532958984,16383.5,65535.0
13990.458952043431,595.2626342773438,412.7720031738281,69.00955200195312,-519.8352661132812,8.933565139770508,101.13298797607422,53.74436950683594,106.63116455078125,16383.5,65535.0
13990.459352052061,660.51416015625,405.8233642578125,68.87139129638672,-520.5869140625,3.9151668548583984,95.26206970214844,47.230934143066406,103.58126831054688,16383.5,65535.0
13990.45975206069,723.3734741210938,399.4542236328125,63.818145751953125,-541.7451782226562,0.3674786388874054,90.30170440673828,45.09877014160156,102.17581939697266,16383.5,65535.0
13990.46015206932,748.6068725585938,409.1185302734375,67.70540618896484,-533.7189331054688,9.05908489227295,99.93492889404297,52.478858947753906,109.6235580444336,16383.5,65535.0
13990.46055207795,735.1375122070312,410.5373229980469,67.64115142822266,-513.183837890625,1.6949074268341064,92.76924896240234,45.683738708496094,100.88926696777344,16383.5,65535.0
13990.46095208658,671.6634521484375,415.0393981933594,44.899147033691406,-520.795654296875,9.220545768737793,97.7635726928711,52.14861297607422,106.85505676269531,16383.5,65535.0
13990.461352095208,629.8587036132812,414.34552001953125,47.56133270263672,-531.3272094726562,15.727276802062988,106.34645080566406,60.592742919921875,116.78826904296875,16383.5,65535.0
13990.461752103838,591.2526245117188,410.79266357421875,31.167490005493164,-535.418701171875,6.014067649841309,98.61006927490234,53.365779876708984,109.05597686767578,16383.5,65535.0
13990.462152112468,562.5436401367188,419.2412414550781,16.2271671295166,-536.588623046875,-3.0902435779571533,84.67171478271484,42.470523834228516,98.65020751953125,16383.5,65535.0
13990.462552121098,549.7769165039062,417.2320556640625,8.5798921585083,-531.5084228515625,-10.167797088623047,75.39278411865234,34.77536392211914,91.820556640625,16383.5,65535.0
13990.462952129727,576.022705078125,410.9638366699219,9.254523277282715,-530.672119140625,-4.540267467498779,82.5408935546875,42.95466613769531,98.7635726928711,16383.5,65535.0
13990.463352138357,587.6886596679688,412.0421142578125,6.71628999710083,-524.6627807617188,-1.3330928087234497,85.89059448242188,45.87605285644531,100.45348358154297,16383.5,65535.0
13990.463752146987,604.7656860351562,403.8987121582031,26.434106826782227,-524.4689331054688,-7.759476184844971,77.74880981445312,36.96804428100586,93.58540344238281,16383.5,65535.0
13990.464152155617,604.3013916015625,411.1041564941406,34.36029815673828,-525.4957275390625,-15.55103874206543,65.70629119873047,25.609678268432617,84.01634979248047,16383.5,65535.0
13990.464552164245,590.3869018554688,415.4855041503906,22.457773208618164,-524.535888671875,-13.78687858581543,67.8631820678711,30.86969566345215,88.35987091064453,16383.5,65535.0
13990.464952172875,558.5038452148438,411.8039855957031,19.868900299072266,-522.6857299804688,-5.678126811981201,69.94758605957031,38.94289016723633,93.43327331542969,16383.5,65535.0
13990.465352181505,486.4645690917969,418.06707763671875,50.3525276184082,-531.4942016601562,-3.9415128231048584,73.09761810302734,40.72928237915039,94.96875762939453,16383.5,65535.0
13990.465752190135,410.00372314453125,412.755859375,36.00081253051758,-557.8457641601562,-5.021517753601074,74.52365112304688,40.522220611572266,97.49623107910156,16383.5,65535.0
13990.466152198764,368.3250427246094,418.4085693359375,12.087664604187012,-593.2711791992188,-12.574423789978027,61.965084075927734,32.49105453491211,87.01836395263672,16383.5,65535.0
13990.466552207394,335.9173889160156,414.28717041015625,-15.449026107788086,-612.0482177734375,-23.011232376098633,49.89272689819336,19.957433700561523,74.93736267089844,16383.5,65535.0
13990.466952216024,309.3578796386719,414.41925048828125,-42.277320861816406,-610.0365600585938,-20.392980575561523,52.14238739013672,25.235673904418945,80.62432861328125,16383.5,65535.0
13990.467352224654,296.4147644042969,410.92138671875,-63.97158432006836,-622.1070556640625,-20.41071891784668,50.65814208984375,25.441192626953125,78.76424407958984,16383.5,65535.0
13990.467752233282,283.7564697265625,406.9670715332031,-41.336910247802734,-620.2846069335938,-23.65947914123535,43.569068908691406,20.929702758789062,75.0991439819336,16383.5,65535.0
13990.468152241912,280.5490417480469,413.80023193359375,-33.1629638671875,-605.4495239257812,-19.32121467590332,46.62104034423828,24.1785831451416,78.84056854248047,16383.5,65535.0
13990.468552250542,262.3330078125,408.949462890625,-43.882720947265625,-591.0949096679688,-22.585697174072266,46.886653900146484,19.08664894104004,76.15191650390625,16383.5,65535.0
13990.468952259173,180.87957763671875,412.7161865234375,-36.176727294921875,-591.2366943359375,-34.28081130981445,35.18975067138672,10.18815803527832,67.30406188964844,16383.5,65535.0
13990.4693522678,74.8944320678711,409.0412902832031,-13.776620864868164,-581.4702758789062,-36.255428314208984,30.227191925048828,8.836291313171387,64.75537109375,16383.5,65535.0
13990.46975227643,42.31829833984375,399.549072265625,-5.871609687805176,-568.347900390625,-29.151710510253906,38.9478645324707,14.467188835144043,71.16752624511719,16383.5,65535.0
13990.470152285061,69.27684783935547,409.19622802734375,-31.65275001525879,-555.00244140625,-28.337730407714844,36.13288879394531,13.263710975646973,70.20967864990234,16383.5,65535.0
13990.470552293691,131.76930236816406,421.7035217285156,-57.04556655883789,-560.4339599609375,-30.81206512451172,34.11942672729492,11.600143432617188,69.08030700683594,16383.5,65535.0
13990.47095230232,207.4628143310547,408.8871154785156,-68.0469741821289,-553.3847045898438,-27.103822708129883,38.29665756225586,18.307117462158203,71.25680541992188,16383.5,65535.0
13990.47135231095,289.1379699707031,415.6051330566406,-41.42970657348633,-554.1869506835938,-19.038494110107422,48.2918815612793,24.31121063232422,78.25990295410156,16383.5,65535.0
13990.47175231958,343.7851257324219,419.2313537597656,-15.108448028564453,-550.382568359375,-18.955514907836914,52.6357307434082,24.045255661010742,77.4601058959961,16383.5,65535.0
13990.47215232821,339.5418395996094,412.8902587890625,-20.134296417236328,-549.650634765625,-23.57162094116211,47.090023040771484,20.265682220458984,75.8482894897461,16383.5,65535.0
13990.472552336838,303.6848449707031,417.2207946777344,-38.97300338745117,-535.3837890625,-20.4903621673584,50.894195556640625,24.45665168762207,79.85997772216797,16383.5,65535.0
13990.472952345468,284.8417053222656,413.1148376464844,-38.51431655883789,-530.226806640625,-24.85427474975586,49.536766052246094,19.487606048583984,76.8982925415039,16383.5,65535.0
13990.473352354098,327.6617126464844,413.5488586425781,-11.37590217590332,-538.3272094726562,-23.13190269470215,48.74690628051758,20.787612915039062,78.29478454589844,16383.5,65535.0
13990.473752362726,387.4590759277344,415.9849853515625,11.508028984069824,-543.0459594726562,-11.991291046142578,61.20379638671875,31.036636352539062,87.76124572753906,16383.5,65535.0
13990.474152371356,428.0592041015625,411.0013732910156,23.10829734802246,-538.4646606445312,-15.687891006469727,64.54093933105469,28.177797317504883,86.65202331542969,16383.5,65535.0
13990.474552379987,458.10125732421875,405.93756103515625,7.089110374450684,-534.905517578125,-11.265746116638184,70.17858123779297,33.709007263183594,89.04352569580078,16383.5,65535.0
13990.474952388617,487.0525817871094,405.16839599609375,-11.520827293395996,-528.80810546875,-12.631185531616211,65.22618103027344,30.364059448242188,86.73302459716797,16383.5,65535.0
13990.475352397247,523.681396484375,405.3956604003906,-17.95545196533203,-516.4732666015625,-9.837547302246094,70.42718505859375,35.15900421142578,92.93424987792969,16383.5,65535.0
13990.475752405875,561.2454833984375,410.0288391113281,-5.12494421005249,-515.2684326171875,-13.80344295501709,65.84584045410156,30.609167098999023,86.7396240234375,16383.5,65535.0
13990.476152414505,600.4752807617188,404.9696350097656,16.308181762695312,-494.00640869140625,1.6484946012496948,81.12297821044922,40.30755615234375,97.14138793945312,16383.5,65535.0
13990.476552423135,625.5358276367188,408.5918884277344,30.66164207458496,-488.4507751464844,2.115373373031616,90.03057098388672,47.25798797607422,103.227783203125,16383.5,65535.0
13990.476952431763,683.07470703125,408.8238220214844,57.90786361694336,-494.0575256347656,0.4002707600593567,85.96707153320312,44.05409240722656,100.13129425048828,16383.5,65535.0
13990.477352440394,705.0166625976562,414.956298828125,70.06962585449219,-482.1187744140625,0.8778262138366699,88.72613525390625,45.48939514160156,103.56208801269531,16383.5,65535.0
13990.477752449024,702.4854125976562,413.74609375,66.52543640136719,-470.72265625,2.438553810119629,93.14427947998047,49.3858642578125,106.54205322265625,16383.5,65535.0
13990.478152457654,686.192138671875,415.6055908203125,81.34839630126953,-467.9815673828125,0.6246116161346436,87.6489486694336,42.58781051635742,97.65036010742188,16383.5,65535.0
13990.478552466284,670.14697265625,408.38812255859375,91.0734634399414,-471.3409729003906,6.554513931274414,93.04773712158203,48.517112731933594,103.94947052001953,16383.5,65535.0
13990.478952474912,651.139404296875,410.3515930175781,82.25698852539062,-476.8001708984375,2.9775686264038086,93.00875854492188,47.472496032714844,104.37391662597656,16383.5,65535.0
13990.479352483542,661.4067993164062,422.55987548828125,84.0934829711914,-487.5447082519531,6.733870029449463,95.76957702636719,49.8521842956543,105.69799041748047,16383.5,65535.0
13990.479752492172,678.2171020507812,422.2366638183594,91.46283721923828,-521.7044677734375,9.403585433959961,97.81812286376953,52.95369338989258,107.218017578125,16383.5,65535.0
13990.4801525008,678.876953125,424.3833312988281,101.64637756347656,-534.5231323242188,3.079829216003418,91.30024719238281,47.23448944091797,101.0132827758789,16383.5,65535.0
13990.48055250943,669.7161865234375,417.1183776855469,115.97920227050781,-530.0759887695312,2.2164840698242188,88.32743835449219,43.967262268066406,100.70762634277344,16383.5,65535.0
13990.48095251806,645.9351806640625,423.4103088378906,107.04490661621094,-522.0130004882812,1.7714585065841675,90.01659393310547,45.00236129760742,100.89065551757812,16383.5,65535.0
13990.48135252669,616.2250366210938,434.4934997558594,82.41969299316406,-520.4794311523438,-5.804245948791504,79.4034423828125,39.06756591796875,95.29013061523438,16383.5,65535.0
13990.481752535321,582.85693359375,422.61834716796875,76.50093841552734,-510.9315490722656,-1.50807785987854,85.18882751464844,43.196128845214844,99.56936645507812,16383.5,65535.0
13990.48215254395,556.5689697265625,419.5813903808594,76.57882690429688,-489.40252685546875,-6.1778645515441895,78.47904968261719,37.55093002319336,91.81424713134766,16383.5,65535.0
13990.48255255258,515.1205444335938,416.54022216796875,75.48417663574219,-484.1640930175781,-8.498639106750488,75.49673461914062,37.695430755615234,92.48197937011719,16383.5,65535.0
13990.48295256121,468.2718811035156,409.62408447265625,67.13876342773438,-500.0850524902344,-9.935297012329102,71.67899322509766,35.28208923339844,87.60076904296875,16383.5,65535.0
13990.483352569838,427.50201416015625,415.09375,49.26630401611328,-526.1945190429688,-14.078930854797363,64.72989654541016,29.99547576904297,88.56402587890625,16383.5,65535.0
13990.483752578468,395.6579895019531,410.6505432128906,31.427974700927734,-552.025390625,-14.884499549865723,62.87384796142578,25.4617977142334,85.9112319946289,16383.5,65535.0
13990.484152587098,364.19720458984375,406.6517639160156,21.410184860229492,-561.6992797851562,-19.282712936401367,56.8504753112793,23.76491928100586,81.9339599609375,16383.5,65535.0
13990.484552595728,343.0395202636719,413.6062316894531,18.668855667114258,-578.6135864257812,-2.203939437866211,73.28827667236328,36.91625213623047,95.79199981689453,16383.5,65535.0
13990.484952604356,337.296142578125,411.3004150390625,22.894500732421875,-588.1917114257812,-6.815203666687012,70.3759536743164,36.63136672973633,92.56990051269531,16383.5,65535.0
13990.485352612986,337.830810546875,411.7826843261719,27.832775115966797,-590.032958984375,-11.980317115783691,60.65166473388672,30.3323974609375,87.97769927978516,16383.5,65535.0
13990.485752621616,345.74322509765625,418.8283386230469,30.949289321899414,-580.4525146484375,-8.071830749511719,65.44825744628906,35.08641815185547,91.82583618164062,16383.5,65535.0
13990.486152630247,353.29638671875,422.5339660644531,32.05118942260742,-591.5643920898438,-16.15505027770996,56.14592361450195,28.949312210083008,81.3239517211914,16383.5,65535.0
13990.486552638875,351.23504638671875,414.9239196777344,28.933496475219727,-594.3744506835938,-16.239063262939453,55.300376892089844,29.366071701049805,82.33448028564453,16383.5,65535.0
13990.486952647505,303.77398681640625,414.8509521484375,18.821563720703125,-574.4765625,-7.6859846115112305,63.91745376586914,34.812191009521484,93.79193878173828,16383.5,65535.0
13990.487352656135,270.53533935546875,419.1551818847656,9.801799774169922,-571.0875854492188,-9.774781227111816,60.1032600402832,33.16565704345703,90.5550537109375,16383.5,65535.0
13990.487752664765,284.9012451171875,426.6482849121094,6.729859828948975,-570.2396240234375,-6.608338832855225,64.1987075805664,35.87260818481445,94.13607788085938,16383.5,65535.0
13990.488152673393,325.114013671875,416.16522216796875,12.325786590576172,-579.8314208984375,-7.098686218261719,65.11187744140625,37.66378402709961,91.84342956542969,16383.5,65535.0
13990.488552682024,364.1021423339844,411.2208557128906,-0.6031181216239929,-583.2469482421875,-6.338800430297852,64.47181701660156,38.62186050415039,94.7144546508789,16383.5,65535.0
13990.488952690654,391.4440002441406,409.07879638671875,-11.71580696105957,-590.5429077148438,-2.3928468227386475,68.3787841796875,40.042320251464844,96.1036605834961,16383.5,65535.0
13990.489352699284,415.3937683105469,405.9306640625,-1.1688458919525146,-583.871826171875,-12.51932144165039,58.22384262084961,34.45143508911133,89.29190063476562,16383.5,65535.0
13990.489752707912,422.78387451171875,410.8573303222656,19.513242721557617,-585.9983520507812,-14.01877498626709,53.71654510498047,28.35281753540039,86.8557357788086,16383.5,65535.0
13990.490152716542,422.6410217285156,405.1618957519531,15.060647964477539,-591.5811767578125,-9.803597450256348,59.8298454284668,33.509742736816406,89.5033950805664,16383.5,65535.0
13990.490552725172,397.43310546875,396.3961486816406,11.30341911315918,-593.78369140625,-13.840161323547363,55.04865264892578,30.590042114257812,84.90770721435547,16383.5,65535.0
13990.490952733802,380.9659118652344,394.97607421875,-3.107783555984497,-589.1083984375,-14.261581420898438,55.050025939941406,31.022960662841797,86.01220703125,16383.5,65535.0
13990.49135274243,373.8023986816406,395.9103088378906,11.689730644226074,-577.7360229492188,-25.655593872070312,48.69546127319336,21.66890525817871,78.21324157714844,16383.5,65535.0
13990.49175275106,334.7983703613281,396.4781494140625,7.8670220375061035,-554.0170288085938,-17.254772186279297,50.33515930175781,25.995149612426758,83.00340270996094,16383.5,65535.0
13990.49215275969,321.0484924316406,402.4707946777344,6.237111568450928,-536.4971923828125,-17.281333923339844,53.59988021850586,25.69247817993164,84.32610321044922,16383.5,65535.0
13990.49255276832,317.50079345703125,405.47186279296875,4.318875789642334,-532.833740234375,-17.955415725708008,52.050071716308594,23.952646255493164,82.03076934814453,16383.5,65535.0
13990.49295277695,306.0772399902344,404.7295837402344,-8.849531173706055,-518.6102294921875,-11.707611083984375,60.14402389526367,32.297645568847656,87.75341033935547,16383.5,65535.0
13990.49335278558,277.2041320800781,404.072021484375,-16.762958526611328,-491.9246520996094,-10.070124626159668,67.58509826660156,34.398075103759766,88.86929321289062,16383.5,65535.0
13990.49375279421,247.87344360351562,395.713134765625,-19.65983009338379,-461.7578430175781,-8.156676292419434,67.03099060058594,34.33036804199219,91.79945373535156,16383.5,65535.0
13990.49415280284,235.37423706054688,392.9826965332031,1.4197921752929688,-479.8194580078125,-10.371207237243652,66.94287109375,32.2864875793457,89.30644226074219,16383.5,65535.0
13990.494552811468,258.042724609375,395.0581970214844,15.81896686553955,-505.0738830566406,-12.347861289978027,65.82289123535156,30.123126983642578,87.68098449707031,16383.5,65535.0
13990.494952820098,325.5185852050781,387.6155700683594,-9.035079956054688,-524.7368774414062,-13.770853042602539,65.6523208618164,29.702619552612305,89.24357604980469,16383.5,65535.0
13990.495352828728,402.6013488769531,399.0614929199219,-41.24915313720703,-540.214111328125,-0.7673110365867615,79.19877624511719,41.258480072021484,96.96878051757812,16383.5,65535.0
13990.495752837358,466.0110778808594,409.7461853027344,-38.113853454589844,-539.217529296875,-0.6858711242675781,79.73700714111328,43.786834716796875,98.21858978271484,16383.5,65535.0
13990.496152845986,497.3349609375,403.639892578125,33.013084411621094,-545.5863037109375,-8.410877227783203,72.39747619628906,34.98964309692383,92.66222381591797,16383.5,65535.0
13990.496552854616,475.3423156738281,400.0014343261719,58.79195785522461,-549.8357543945312,-3.768223524093628,80.06143951416016,40.64818572998047,96.2928695678711,16383.5,65535.0
13990.496952863246,455.590576171875,403.1177978515625,21.853946685791016,-544.1758422851562,16.52679443359375,96.86177825927734,55.81886291503906,111.21671295166016,16383.5,65535.0
13990.497352871877,477.634033203125,403.83306884765625,-27.09610939025879,-537.7072143554688,4.10496187210083,91.07299041748047,47.96587371826172,103.81978607177734,16383.5,65535.0
13990.497752880505,503.8551940917969,389.50421142578125,-10.750792503356934,-527.2481689453125,10.815279960632324,95.50682830810547,54.79132080078125,111.18282318115234,16383.5,65535.0
13990.498152889135,521.8281860351562,390.9601745605469,-2.220686912536621,-512.5550537109375,2.661972761154175,87.24242401123047,46.57099914550781,101.95269775390625,16383.5,65535.0
13990.498552897765,544.171142578125,395.70654296875,-19.28791046142578,-523.4744873046875,-3.126760721206665,87.95451354980469,42.88125991821289,100.61491394042969,16383.5,65535.0
13990.498952906395,571.9313354492188,408.2532043457031,-37.63081741333008,-540.449462890625,-0.3550443947315216,89.11976623535156,45.06903839111328,100.81625366210938,16383.5,65535.0
13990.499352915023,560.7745361328125,406.09295654296875,-45.90472412109375,-536.258544921875,-2.3577094078063965,80.4267578125,40.83906555175781,96.59046936035156,16383.5,65535.0
13990.499752923653,515.5377197265625,410.1180725097656,-42.76959228515625,-522.8050537109375,6.47238302230835,93.0955810546875,51.540706634521484,108.82965087890625,16383.5,65535.0
13990.500152932284,485.9998779296875,408.1761474609375,-45.21234130859375,-510.1778564453125,-6.0006422996521,82.73619842529297,38.966251373291016,95.41575622558594,16383.5,65535.0
13990.500552940914,486.6477355957031,391.47308349609375,-13.413217544555664,-501.8829650878906,0.20865492522716522,87.5098876953125,43.72050476074219,99.05632019042969,16383.5,65535.0
13990.500952949542,504.0569152832031,407.956787109375,28.65850067138672,-481.67767333984375,4.717474460601807,89.9498062133789,46.84971618652344,101.00810241699219,16383.5,65535.0
13990.501352958172,479.44757080078125,402.387939453125,31.418853759765625,-461.3896484375,4.489625930786133,92.42998504638672,48.585506439208984,105.20703125,16383.5,65535.0
13990.501752966802,387.3120422363281,389.7411193847656,-9.161670684814453,-455.7158508300781,0.9019390940666199,85.1261215209961,44.8916130065918,103.15068054199219,16383.5,65535.0
13990.502152975432,248.81341552734375,398.0899658203125,0.17208100855350494,-442.8824768066406,1.8528590202331543,84.76642608642578,47.20895767211914,104.68431854248047,16383.5,65535.0
13990.50255298406,184.3435821533203,405.7764892578125,12.421244621276855,-424.1773376464844,5.423707485198975,90.77464294433594,49.88473892211914,104.7189712524414,16383.5,65535.0
13990.50295299269,209.0048828125,393.6851501464844,13.668745994567871,-408.2058410644531,-0.2800993323326111,85.6953353881836,45.10091781616211,101.5557632446289,16383.5,65535.0
13990.50335300132,254.14108276367188,398.22119140625,5.744871616363525,-407.6844177246094,-6.147639274597168,74.75440216064453,38.796714782714844,93.16752624511719,16383.5,65535.0
13990.50375300995,336.5470886230469,401.4434509277344,2.249751329421997,-401.4710998535156,-10.51971435546875,71.22410583496094,33.573631286621094,89.03197479248047,16383.5,65535.0
13990.504153018579,413.6109924316406,399.79229736328125,-2.7839975357055664,-414.3768005371094,-11.323814392089844,70.16590118408203,33.63101577758789,89.62639617919922,16383.5,65535.0
13990.50455302721,415.905029296875,402.3791809082031,-0.5453665852546692,-450.39697265625,4.707054138183594,81.43235778808594,46.82627487182617,101.44284057617188,16383.5,65535.0
13990.50495303584,389.3253479003906,395.756591796875,7.714267253875732,-455.0404052734375,0.1465545892715454,78.7043228149414,45.123374938964844,103.6971435546875,16383.5,65535.0
13990.50535304447,384.48602294921875,403.7603759765625,32.16926574707031,-470.0849304199219,-5.615163326263428,72.23832702636719,36.68986129760742,94.48792266845703,16383.5,65535.0
13990.505753053098,402.4410400390625,402.66851806640625,72.52662658691406,-475.48406982421875,-4.397223949432373,73.03165435791016,40.410186767578125,95.98893737792969,16383.5,65535.0
13990.506153061728,406.0312194824219,396.7115783691406,100.55854034423828,-474.3486022949219,-5.127434730529785,70.86918640136719,41.887027740478516,98.19087982177734,16383.5,65535.0
13990.506553070358,384.99346923828125,408.7178039550781,78.89697265625,-482.4444580078125,-11.54773235321045,62.628578186035156,33.27452850341797,88.52522277832031,16383.5,65535.0
13990.506953078988,359.7005310058594,406.644775390625,55.09084701538086,-483.7080383300781,-15.901765823364258,55.09946060180664,28.1739559173584,81.39246368408203,16383.5,65535.0
13990.507353087616,371.5010681152344,407.59100341796875,69.60449981689453,-493.3984069824219,-17.4826602935791,53.604408264160156,26.9901065826416,83.79020690917969,16383.5,65535.0
13990.507753096246,410.65655517578125,405.1163024902344,80.65107727050781,-513.1771850585938,-12.168164253234863,56.99554443359375,30.5216064453125,85.53520965576172,16383.5,65535.0
13990.508153104876,401.1234436035156,393.9450378417969,68.66079711914062,-544.6468505859375,-25.992773056030273,42.227664947509766,19.42824363708496,75.28341674804688,16383.5,65535.0
13990.508553113506,378.65545654296875,399.8011474609375,44.343868255615234,-565.5332641601562,-15.963661193847656,53.88196563720703,29.204214096069336,85.2567138671875,16383.5,65535.0
13990.508953122135,374.829345703125,402.8138122558594,39.356590270996094,-576.833251953125,-15.594599723815918,52.148231506347656,29.146303176879883,84.57889556884766,16383.5,65535.0
13990.509353130765,380.16680908203125,391.5753479003906,39.922183990478516,-573.366455078125,-20.286273956298828,43.263301849365234,23.474912643432617,80.67627716064453,16383.5,65535.0
13990.509753139395,400.08111572265625,393.63629150390625,29.683629989624023,-576.5279541015625,-17.530948638916016,49.155799865722656,26.6986083984375,84.20613861083984,16383.5,65535.0
13990.510153148025,443.5589599609375,392.7984313964844,18.99708366394043,-579.2863159179688,-21.821956634521484,45.90072250366211,21.506845474243164,76.95170593261719,16383.5,65535.0
13990.510553156653,415.9061584472656,386.9712829589844,21.590078353881836,-566.4346313476562,-17.063194274902344,51.60382080078125,26.636760711669922,83.39434051513672,16383.5,65535.0
13990.510953165283,361.70367431640625,388.87701416015625,20.493040084838867,-570.9710083007812,-11.302658081054688,61.923274993896484,32.9514045715332,90.8415298461914,16383.5,65535.0
13990.511353173913,299.6767578125,385.2828369140625,8.300460815429688,-595.1714477539062,-14.65097713470459,55.526546478271484,30.3609676361084,84.05702209472656,16383.5,65535.0
13990.511753182544,248.22122192382812,390.7584533691406,-0.46897852420806885,-627.0223999023438,-22.9918270111084,48.749942779541016,23.227676391601562,78.36890411376953,16383.5,65535.0
13990.512153191172,240.54718017578125,391.2606506347656,-12.059268951416016,-652.9581909179688,-24.058809280395508,49.233280181884766,21.636201858520508,75.70561218261719,16383.5,65535.0
13990.512553199802,249.33062744140625,394.2984313964844,-23.55786895751953,-655.2404174804688,-18.223243713378906,52.29795455932617,24.420713424682617,82.49881744384766,16383.5,65535.0
13990.512953208432,269.1595458984375,396.71234130859375,-39.74530029296875,-639.47998046875,-13.3563232421875,61.9029655456543,32.681739807128906,87.58361053466797,16383.5,65535.0
13990.513353217062,330.2967834472656,389.5891418457031,-29.113874435424805,-641.1613159179688,-10.964674949645996,60.776817321777344,32.75324249267578,88.00325775146484,16383.5,65535.0
13990.51375322569,436.9378356933594,386.8974914550781,11.582137107849121,-656.30712890625,-16.801488876342773,58.85554885864258,26.7733211517334,87.24382781982422,16383.5,65535.0
13990.51415323432,543.753173828125,389.2999572753906,64.36373901367188,-657.5498046875,-5.936565399169922,71.7371826171875,38.221553802490234,96.19535827636719,16383.5,65535.0
13990.51455324295,626.3128662109375,397.5628356933594,73.63326263427734,-648.1898193359375,0.9972944855690002,83.13409423828125,45.10499572753906,102.94735717773438,16383.5,65535.0
13990.514953251579,664.845947265625,396.1896057128906,4.799195766448975,-650.71826171875,-0.815995454788208,80.1888427734375,40.181297302246094,98.15672302246094,16383.5,65535.0
13990.515353260209,646.0609741210938,393.7128601074219,-45.47233200073242,-653.7010498046875,-10.177206039428711,73.54491424560547,35.78290939331055,91.63065338134766,16383.5,65535.0
13990.515753268839,617.5411376953125,391.8179626464844,-26.465051651000977,-658.2227172851562,-10.254040718078613,72.20511627197266,31.954830169677734,90.75852966308594,16383.5,65535.0
13990.51615327747,595.2972412109375,403.3476257324219,0.572539746761322,-651.0601806640625,-2.314850330352783,81.21604919433594,40.21913528442383,97.70599365234375,16383.5,65535.0
13990.5165532861,567.5258178710938,397.55975341796875,21.95092010498047,-619.9440307617188,-6.53061056137085,77.52240753173828,39.59012222290039,95.40324401855469,16383.5,65535.0
13990.516953294728,530.0521240234375,400.13580322265625,1.0483500957489014,-616.4149780273438,-6.998423099517822,78.56941223144531,38.007301330566406,95.32767486572266,16383.5,65535.0
13990.517353303358,514.7587280273438,398.37554931640625,-3.562157154083252,-615.6138305664062,4.550886631011963,91.54924774169922,46.84782791137695,104.13972473144531,16383.5,65535.0
13990.517753311988,531.1860961914062,395.1773986816406,33.110530853271484,-611.6243286132812,1.40565824508667,87.93596649169922,43.72983932495117,102.0767593383789,16383.5,65535.0
13990.518153320616,568.28564453125,397.1101379394531,90.452880859375,-584.2916259765625,8.652308464050293,99.6910400390625,55.608951568603516,110.18318176269531,16383.5,65535.0
13990.518553329246,570.2631225585938,389.6762390136719,84.44877624511719,-555.4641723632812,2.9514400959014893,92.5999526977539,48.16492462158203,103.41949462890625,16383.5,65535.0
13990.518953337876,530.24462890625,389.2532043457031,24.51752471923828,-551.2896728515625,5.417477607727051,96.0252456665039,48.97480773925781,104.9122314453125,16383.5,65535.0
13990.519353346506,489.48785400390625,394.07537841796875,-11.407649040222168,-540.2664794921875,1.993086814880371,93.27014923095703,47.6088981628418,104.03486633300781,16383.5,65535.0
13990.519753355136,461.0184020996094,398.1374206542969,-15.047487258911133,-556.6901245117188,0.38713937997817993,90.68492126464844,44.064361572265625,101.59871673583984,16383.5,65535.0
13990.520153363765,453.78973388671875,396.367919921875,-12.291159629821777,-563.3949584960938,-0.4173038899898529,83.91322326660156,41.60443115234375,98.6903305053711,16383.5,65535.0
13990.520553372395,459.1393737792969,397.8063659667969,-37.75022888183594,-557.7838745117188,1.2446256875991821,89.31840515136719,44.788597106933594,102.32825469970703,16383.5,65535.0
13990.520953381025,486.2505798339844,403.5169372558594,-55.619041442871094,-549.6226806640625,0.3831638991832733,91.11273956298828,45.526363372802734,103.14791107177734,16383.5,65535.0
13990.521353389653,481.35791015625,396.9128112792969,-78.36019897460938,-545.4996337890625,-3.568474292755127,81.03771209716797,41.16262435913086,95.07819366455078,16383.5,65535.0
13990.521753398283,439.6496887207031,402.8238220214844,-72.65675354003906,-524.7452392578125,5.179511547088623,86.51342010498047,45.710243225097656,104.54529571533203,16383.5,65535.0
13990.522153406913,419.4933776855469,397.04083251953125,-52.97246551513672,-506.14874267578125,2.3409500122070312,89.36945343017578,46.38124084472656,103.25798034667969,16383.5,65535.0
13990.522553415543,406.70245361328125,391.51959228515625,-25.00552749633789,-482.95782470703125,7.204648971557617,91.84488677978516,52.75983428955078,107.21720123291016,16383.5,65535.0
13990.522953424173,396.300537109375,386.0035400390625,24.539960861206055,-476.7337951660156,3.909562349319458,87.22071075439453,48.689697265625,103.70366668701172,16383.5,65535.0
13990.523353432802,399.9493103027344,390.8291320800781,47.449283599853516,-473.3190612792969,-5.6378583908081055,77.52171325683594,37.62520217895508,94.39435577392578,16383.5,65535.0
13990.523753441432,388.9552307128906,393.93475341796875,47.795372009277344,-460.3825378417969,-6.960452556610107,73.99787902832031,35.080345153808594,92.60004425048828,16383.5,65535.0
13990.524153450062,344.5731201171875,399.3904724121094,35.178123474121094,-449.1030578613281,-7.239360809326172,71.01739501953125,37.602500915527344,92.0591049194336,16383.5,65535.0
13990.52455345869,295.6480712890625,404.31353759765625,35.6115608215332,-455.39886474609375,-12.493000984191895,67.41397094726562,32.60508728027344,91.06375122070312,16383.5,65535.0
13990.52495346732,295.0924987792969,402.2258605957031,23.42715072631836,-459.2986145019531,-3.597611427307129,74.41083526611328,38.40191650390625,95.87908172607422,16383.5,65535.0
13990.52535347595,319.5193176269531,397.34326171875,8.25048828125,-432.96844482421875,-4.163773059844971,75.50972747802734,40.032657623291016,96.6063003540039,16383.5,65535.0
13990.52575348458,388.9231872558594,405.34515380859375,-0.7567011713981628,-419.4525451660156,-7.989760398864746,68.70304107666016,36.95551300048828,92.06869506835938,16383.5,65535.0
13990.526153493209,388.233642578125,404.7049560546875,-5.189179420471191,-433.3291320800781,0.43530115485191345,69.96422576904297,39.49421691894531,96.50212860107422,16383.5,65535.0
13990.526553501839,356.5394287109375,401.44049072265625,12.451131820678711,-438.87689208984375,-8.115775108337402,63.944087982177734,35.13385772705078,89.5582275390625,16383.5,65535.0
13990.526953510469,351.8769836425781,410.8758850097656,11.825304985046387,-447.48638916015625,-19.71015739440918,50.80644226074219,27.43711280822754,81.99749755859375,16383.5,65535.0
13990.527353519099,320.2582702636719,410.84521484375,-8.230813026428223,-433.62127685546875,-8.794891357421875,60.48090362548828,33.02260208129883,91.9534683227539,16383.5,65535.0
13990.527753527727,269.4363098144531,406.1772155761719,-24.45197868347168,-440.627685546875,-6.962650299072266,65.58869171142578,39.11881637573242,95.26515197753906,16383.5,65535.0
13990.528153536357,215.63381958007812,396.5842590332031,-17.263025283813477,-446.2953796386719,-16.468523025512695,51.79826736450195,27.23246955871582,87.9384765625,16383.5,65535.0
13990.528553544988,223.72366333007812,388.1788024902344,-9.373406410217285,-435.2471008300781,-16.8719539642334,49.11421585083008,25.797439575195312,84.61493682861328,16383.5,65535.0
13990.528953553618,222.78338623046875,394.0300598144531,-21.55902671813965,-437.5530700683594,-10.118361473083496,56.408565521240234,32.59828186035156,87.5656967163086,16383.5,65535.0
13990.529353562246,238.8232421875,397.7494812011719,-10.816388130187988,-451.3724365234375,-14.36579704284668,53.98564529418945,30.134553909301758,86.00123596191406,16383.5,65535.0
13990.529753570876,274.5414733886719,403.21856689453125,3.4651222229003906,-464.3515930175781,-25.120637893676758,43.41910934448242,21.52368927001953,78.4746322631836,16383.5,65535.0
13990.530153579506,369.3849792480469,408.6175842285156,12.115151405334473,-484.5162353515625,-9.928692817687988,55.37361145019531,33.070682525634766,89.56067657470703,16383.5,65535.0
13990.530553588136,463.22381591796875,401.9546813964844,14.908539772033691,-508.4545593261719,-15.841148376464844,54.77626037597656,29.355186462402344,84.3031005859375,16383.5,65535.0
13990.530953596764,540.3292846679688,391.8475341796875,-4.0359907150268555,-510.8529968261719,-19.74671745300293,47.205101013183594,25.741018295288086,81.44476318359375,16383.5,65535.0
13990.531353605395,602.2587890625,393.71881103515625,6.314152717590332,-484.66741943359375,-14.3119535446167,52.33781433105469,28.565208435058594,85.85453033447266,16383.5,65535.0
13990.531753614025,663.0874633789062,389.74847412109375,18.759990692138672,-475.7625427246094,-10.520715713500977,64.176025390625,35.74502944946289,90.62602233886719,16383.5,65535.0
13990.532153622655,734.4432983398438,388.6956787109375,46.907379150390625,-481.77410888671875,-4.675791263580322,67.10359954833984,41.259281158447266,98.08110809326172,16383.5,65535.0
13990.532553631283,804.1820678710938,398.5918884277344,99.6081771850586,-494.7597351074219,-12.333843231201172,58.42976379394531,31.17053985595703,86.58011627197266,16383.5,65535.0
13990.532953639913,795.2300415039062,383.4299621582031,139.8571319580078,-509.73919677734375,-15.146276473999023,58.081661224365234,28.904279708862305,86.54842376708984,16383.5,65535.0
13990.533353648543,769.1338500976562,390.2264404296875,103.43905639648438,-536.8070068359375,-9.60781478881836,59.61531448364258,33.5248908996582,92.7809066772461,16383.5,65535.0
13990.533753657173,762.6995849609375,398.11297607421875,67.20083618164062,-582.0404663085938,-16.780742645263672,56.85805892944336,25.79330825805664,84.65335083007812,16383.5,65535.0
13990.534153665802,702.4007568359375,397.5544738769531,52.11680603027344,-637.064453125,-13.566864013671875,59.05563735961914,29.452198028564453,85.98873901367188,16383.5,65535.0
13990.534553674432,648.882080078125,400.3691711425781,40.70277786254883,-663.3842163085938,-11.282500267028809,67.6722183227539,33.56224822998047,94.79708099365234,16383.5,65535.0
13990.534953683062,664.2301635742188,405.5328063964844,43.30696487426758,-657.1994018554688,-17.617948532104492,59.053733825683594,26.339080810546875,82.40046691894531,16383.5,65535.0
13990.535353691692,688.749755859375,398.7133483886719,40.89898681640625,-633.3587646484375,-5.719901084899902,70.59379577636719,36.174224853515625,95.75967407226562,16383.5,65535.0
13990.53575370032,702.568603515625,399.58868408203125,37.95431137084961,-611.5515747070312,-3.3623673915863037,78.74409484863281,41.24866485595703,96.91887664794922,16383.5,65535.0
13990.53615370895,706.571044921875,394.6678771972656,36.305091857910156,-622.2499389648438,-15.338044166564941,63.380897521972656,26.80666732788086,84.8169937133789,16383.5,65535.0
13990.53655371758,675.0866088867188,400.07086181640625,0.2803201973438263,-635.9873046875,-9.629271507263184,70.17463684082031,33.40556716918945,90.95443725585938,16383.5,65535.0
13990.53695372621,652.213134765625,401.7449951171875,-14.0135498046875,-647.2725830078125,-7.533248424530029,74.07766723632812,36.65164566040039,93.03132629394531,16383.5,65535.0
13990.537353734839,613.5280151367188,390.9749450683594,-15.239604949951172,-661.4703979492188,-10.891191482543945,70.69561004638672,31.721406936645508,90.19514465332031,16383.5,65535.0
13990.537753743469,573.6201782226562,384.4140319824219,-11.42900562286377,-675.294921875,-12.900932312011719,69.57933807373047,29.22736358642578,84.79889678955078,16383.5,65535.0
13990.538153752099,558.676025390625,392.30377197265625,32.05392074584961,-675.5760498046875,-9.95943832397461,75.4249496459961,32.137760162353516,91.6011962890625,16383.5,65535.0
13990.538553760729,530.0216674804688,396.9306945800781,45.776702880859375,-653.3563232421875,6.762309551239014,94.69245910644531,51.82080841064453,107.46711730957031,16383.5,65535.0
13990.538953769357,490.810791015625,391.0676574707031,-7.683194160461426,-625.7075805664062,-0.9194813370704651,89.46900939941406,46.647769927978516,100.5709228515625,16383.5,65535.0
13990.539353777987,449.395751953125,387.85870361328125,-41.23495864868164,-598.3349609375,-5.368020534515381,83.28913879394531,41.71723175048828,95.73470306396484,16383.5,65535.0
13990.539753786617,414.5304260253906,396.0834045410156,-49.182289123535156,-564.4304809570312,-20.193422317504883,67.06219482421875,29.557619094848633,83.86766815185547,16383.5,65535.0
13990.540153795248,397.36151123046875,393.3099060058594,-50.978092193603516,-542.0620727539062,-6.443728446960449,79.60313415527344,37.189781188964844,94.2285385131836,16383.5,65535.0
13990.540553803876,390.7980651855469,391.5434875488281,-26.753154754638672,-523.3163452148438,-3.9559974670410156,86.97435760498047,44.0813102722168,98.50362396240234,16383.5,65535.0
13990.540953812506,397.0776062011719,393.5932922363281,-26.557737350463867,-515.1299438476562,-4.946399211883545,83.61900329589844,39.08341979980469,97.13114929199219,16383.5,65535.0
13990.541353821136,438.96337890625,399.91375732421875,-18.20839500427246,-537.5960693359375,-11.217007637023926,70.19612884521484,32.7950325012207,87.14684295654297,16383.5,65535.0
13990.541753829766,466.34124755859375,402.55316162109375,-12.496637344360352,-552.57861328125,-11.044536590576172,73.1279525756836,34.86545944213867,89.70536041259766,16383.5,65535.0
13990.542153838394,446.13848876953125,392.44451904296875,-16.568443298339844,-554.11376953125,3.4509129524230957,90.75325775146484,47.45643997192383,103.78535461425781,16383.5,65535.0
13990.542553847024,433.2032775878906,399.784912109375,-2.8564045429229736,-555.0986328125,8.141246795654297,93.11689758300781,50.1479377746582,106.5162582397461,16383.5,65535.0
13990.542953855655,420.8292541503906,398.7295837402344,24.229846954345703,-553.0122680664062,0.22227324545383453,83.30099487304688,43.67751693725586,99.0843505859375,16383.5,65535.0
13990.543353864285,436.185546875,400.8435363769531,52.4431037902832,-558.2372436523438,-6.042323112487793,73.42317199707031,37.955867767333984,93.76827239990234,16383.5,65535.0
13990.543753872913,468.9771423339844,400.4118347167969,43.641963958740234,-547.3977661132812,-3.5076065063476562,77.64027404785156,39.41102600097656,96.6427993774414,16383.5,65535.0
13990.544153881543,482.334228515625,405.0039367675781,24.340707778930664,-556.0155639648438,-2.5657873153686523,81.26695251464844,40.204288482666016,97.4185562133789,16383.5,65535.0
13990.544553890173,471.88720703125,413.309326171875,-14.120412826538086,-582.235107421875,-12.316587448120117,68.89584350585938,31.493364334106445,90.556396484375,16383.5,65535.0
13990.544953898803,439.5659484863281,403.0146179199219,-47.93180465698242,-585.6644287109375,-13.812013626098633,61.39911651611328,29.581214904785156,83.88566589355469,16383.5,65535.0
13990.545353907431,409.1304626464844,400.17193603515625,-57.35277557373047,-584.4672241210938,-25.809812545776367,51.36495590209961,19.5231990814209,77.8663101196289,16383.5,65535.0
13990.545753916062,376.20599365234375,404.68951416015625,-35.61980056762695,-590.5732421875,-27.466995239257812,45.69416427612305,17.82488250732422,74.76078796386719,16383.5,65535.0
13990.546153924692,380.9708557128906,407.3764343261719,-0.8907178640365601,-615.3016357421875,-21.50472640991211,47.18558120727539,19.77176856994629,76.28058624267578,16383.5,65535.0
13990.546553933322,381.3480529785156,404.8882751464844,22.234333038330078,-628.5608520507812,-22.805837631225586,48.99904251098633,20.81606101989746,77.25910186767578,16383.5,65535.0
13990.54695394195,326.43914794921875,403.7712707519531,6.49447774887085,-618.5051879882812,-27.211193084716797,42.375919342041016,17.952457427978516,71.5942611694336,16383.5,65535.0
13990.54735395058,216.86459350585938,413.33770751953125,8.528410911560059,-624.4828491210938,-25.525455474853516,42.12360382080078,19.103612899780273,73.72935485839844,16383.5,65535.0
13990.54775395921,141.29464721679688,402.8336181640625,1.1635067462921143,-631.6713256835938,-24.753368377685547,43.10121154785156,19.676294326782227,76.11678314208984,16383.5,65535.0
13990.54815396784,154.2986297607422,401.6065979003906,1.7177165746688843,-656.0107421875,-33.238040924072266,33.29878234863281,9.914474487304688,67.4466781616211,16383.5,65535.0
13990.548553976469,237.42381286621094,409.4478454589844,10.26954174041748,-666.3783569335938,-29.476274490356445,36.040645599365234,14.46994400024414,69.76408386230469,16383.5,65535.0
13990.548953985099,318.43597412109375,400.508056640625,20.96908187866211,-663.1959228515625,-25.056018829345703,42.059112548828125,20.088932037353516,76.3402099609375,16383.5,65535.0
13990.549353993729,371.7899475097656,398.9093933105469,14.61679458618164,-651.5844116210938,-28.80368423461914,39.35369110107422,14.886320114135742,70.03302764892578,16383.5,65535.0
13990.549754002359,385.01373291015625,399.2672119140625,14.137063980102539,-635.1253662109375,-31.16838836669922,34.037994384765625,10.512913703918457,68.7262954711914,16383.5,65535.0
13990.550154010987,300.1626281738281,395.248046875,1.9415621757507324,-607.422607421875,-30.286052703857422,33.170753479003906,11.831549644470215,69.65757751464844,16383.5,65535.0
13990.550554019617,188.12338256835938,393.9710693359375,-5.060829162597656,-599.059326171875,-27.669631958007812,35.079254150390625,14.270157814025879,70.2380142211914,16383.5,65535.0
13990.550954028247,163.8499755859375,395.0565185546875,-8.795271873474121,-575.3365478515625,-33.89238739013672,31.423137664794922,11.964911460876465,69.0377426147461,16383.5,65535.0
13990.551354036877,190.07009887695312,390.6064758300781,-9.992843627929688,-559.979248046875,-41.79347229003906,23.093963623046875,2.262443780899048,62.16588592529297,16383.5,65535.0
13990.551754045506,221.8513641357422,384.07452392578125,-1.6017634868621826,-556.2434692382812,-30.092281341552734,35.11148452758789,12.800372123718262,68.29232788085938,16383.5,65535.0
13990.552154054136,243.6846466064453,388.8013610839844,28.25249481201172,-546.6978759765625,-32.047515869140625,36.741092681884766,11.48909854888916,67.75000762939453,16383.5,65535.0
13990.552554062766,222.8595428466797,391.0732116699219,5.843339920043945,-537.5655517578125,-39.515777587890625,27.865581512451172,3.480771064758301,58.4262809753418,16383.5,65535.0
13990.552954071396,157.96554565429688,390.39013671875,-65.33613586425781,-520.8237915039062,-27.193626403808594,39.60128402709961,17.342269897460938,75.3835220336914,16383.5,65535.0
13990.553354080024,112.33280944824219,377.3683166503906,-121.92948150634766,-515.537841796875,-28.75860023498535,44.063514709472656,18.385026931762695,76.05518341064453,16383.5,65535.0
13990.553754088654,200.4370880126953,383.70269775390625,-87.17975616455078,-521.8782348632812,-37.80522537231445,35.762638092041016,7.938891410827637,65.0486068725586,16383.5,65535.0
13990.554154097284,325.1815490722656,384.8525390625,41.926902770996094,-517.8561401367188,-21.440631866455078,49.59682846069336,20.809343338012695,79.06175994873047,16383.5,65535.0
13990.554554105915,425.849609375,387.0399169921875,125.23651885986328,-495.872802734375,-25.807039260864258,48.3035774230957,16.928878784179688,75.21605682373047,16383.5,65535.0
13990.554954114543,477.57586669921875,396.1076965332031,116.00398254394531,-482.5309753417969,-26.982799530029297,50.18293762207031,16.775390625,75.99993133544922,16383.5,65535.0
13990.555354123173,491.51983642578125,381.3030700683594,43.29405212402344,-474.4239196777344,-14.011577606201172,61.75190734863281,28.148733139038086,82.71615600585938,16383.5,65535.0
13990.555754131803,496.4595947265625,384.74481201171875,-0.7928608655929565,-470.62994384765625,-8.677419662475586,67.94967651367188,36.04749298095703,88.35518646240234,16383.5,65535.0
13990.556154140433,501.7525939941406,382.65997314453125,-6.482402801513672,-496.8890075683594,-15.596287727355957,67.97166442871094,29.98200035095215,86.30028533935547,16383.5,65535.0
13990.556554149061,502.4542236328125,378.2403564453125,-17.09404754638672,-516.0306396484375,-5.835987567901611,78.24465942382812,39.167381286621094,95.59479522705078,16383.5,65535.0
13990.556954157692,481.166015625,382.51605224609375,-40.43122100830078,-512.1983032226562,5.445038318634033,86.88587188720703,45.74312210083008,100.35306549072266,16383.5,65535.0
13990.557354166322,454.776123046875,380.2802734375,-70.47698211669922,-502.3600158691406,-9.14534854888916,74.82633972167969,34.91788101196289,90.04733276367188,16383.5,65535.0
13990.557754174952,412.3739929199219,392.73529052734375,-81.69939422607422,-480.91595458984375,-14.575549125671387,70.3071517944336,27.730825424194336,86.98108673095703,16383.5,65535.0
13990.55815418358,355.1885070800781,393.0292663574219,-61.54046630859375,-477.4465026855469,-4.667728424072266,82.2215805053711,37.353675842285156,94.63951873779297,16383.5,65535.0
13990.55855419221,353.0284423828125,391.333251953125,6.6610188484191895,-475.2450866699219,-4.384867191314697,83.6787338256836,39.26830291748047,94.79368591308594,16383.5,65535.0
13990.55895420084,384.6410217285156,391.8277587890625,69.64789581298828,-477.48443603515625,-8.919232368469238,75.84666442871094,34.2762565612793,90.02662658691406,16383.5,65535.0
13990.559354209468,413.55645751953125,390.7911376953125,55.603271484375,-484.45166015625,-10.622899055480957,72.09928894042969,29.286333084106445,87.26496124267578,16383.5,65535.0
13990.559754218099,467.426025390625,394.12518310546875,-35.98735046386719,-496.455322265625,-16.112600326538086,69.46882629394531,27.366731643676758,81.96791076660156,16383.5,65535.0
13990.560154226729,518.0310668945312,400.1325378417969,-65.57696533203125,-521.9844360351562,-7.115787029266357,80.96951293945312,38.543819427490234,91.33612823486328,16383.5,65535.0
13990.560554235359,575.102294921875,386.04473876953125,-4.01191520690918,-544.196044921875,-10.909351348876953,76.01793670654297,33.98515701293945,90.3322525024414,16383.5,65535.0
13990.560954243989,645.7653198242188,386.7643737792969,58.24392318725586,-568.9424438476562,-3.8916428089141846,79.25413513183594,36.874820709228516,93.16295623779297,16383.5,65535.0
13990.561354252617,692.27490234375,394.6464538574219,64.33491516113281,-568.45166015625,2.404696464538574,84.05194091796875,44.36362838745117,98.83039093017578,16383.5,65535.0
13990.561754261247,712.7164916992188,390.2609558105469,59.72904968261719,-558.1318359375,-3.4650962352752686,80.12950134277344,41.01543426513672,97.12117767333984,16383.5,65535.0
13990.562154269877,723.3078002929688,392.50067138671875,83.36438751220703,-540.6485595703125,-4.189999580383301,81.14617919921875,38.97502136230469,98.07638549804688,16383.5,65535.0
13990.562554278506,736.7821044921875,391.203369140625,81.25061798095703,-532.6697998046875,7.31174373626709,92.48490142822266,49.79059982299805,106.9128189086914,16383.5,65535.0
13990.562954287136,727.2671508789062,387.4718322753906,47.306068420410156,-532.7868041992188,0.39161059260368347,83.05953979492188,42.2896728515625,99.88529205322266,16383.5,65535.0
13990.563354295766,699.0925903320312,390.37823486328125,27.66258430480957,-545.0035400390625,2.802711009979248,85.71255493164062,43.88692092895508,101.91295623779297,16383.5,65535.0
13990.563754304396,700.2732543945312,391.6865234375,6.146706581115723,-560.2876586914062,-2.3350632190704346,81.56578063964844,42.13872146606445,97.66283416748047,16383.5,65535.0
13990.564154313026,696.7909545898438,404.4774475097656,9.491661071777344,-563.78125,-6.946543216705322,72.51416015625,35.58369827270508,92.66695404052734,16383.5,65535.0
13990.564554321654,658.6175537109375,391.9876708984375,3.1711347103118896,-574.7077026367188,-13.372024536132812,64.4706802368164,32.02998352050781,87.04718017578125,16383.5,65535.0
13990.564954330284,625.0482177734375,398.72442626953125,-10.009659767150879,-584.058837890625,-14.831871032714844,61.04198455810547,29.64655876159668,87.50494384765625,16383.5,65535.0
13990.565354338914,588.0736083984375,399.6403503417969,13.112494468688965,-590.703125,-10.86634349822998,62.58090591430664,32.0615119934082,87.96786499023438,16383.5,65535.0
13990.565754347543,536.1646728515625,396.09356689453125,34.00668716430664,-616.1196899414062,-17.401742935180664,55.92594528198242,26.306259155273438,82.4598617553711,16383.5,65535.0
13990.566154356173,509.3138122558594,399.6070251464844,43.026065826416016,-618.1546020507812,-13.298262596130371,58.27504348754883,29.73920440673828,87.05010223388672,16383.5,65535.0
13990.566554364803,490.520751953125,399.88165283203125,-7.2830424308776855,-606.0514526367188,-16.03949546813965,56.107688903808594,29.42653465270996,85.71538543701172,16383.5,65535.0
13990.566954373433,460.6490783691406,391.6370849609375,-50.89204025268555,-615.05224609375,-18.811491012573242,54.932456970214844,27.562013626098633,81.62430572509766,16383.5,65535.0
13990.567354382063,457.21270751953125,393.2025451660156,-4.190642356872559,-629.9043579101562,-17.233518600463867,53.95012283325195,28.156356811523438,81.44855499267578,16383.5,65535.0
13990.567754390691,478.40924072265625,396.1948547363281,46.6870231628418,-647.0236206054688,-24.019922256469727,42.791351318359375,18.6915340423584,77.803955078125,16383.5,65535.0
13990.568154399321,500.7625427246094,391.1016540527344,30.187591552734375,-652.8734741210938,-21.159360885620117,42.55464553833008,21.767379760742188,79.96084594726562,16383.5,65535.0
13990.568554407952,501.2170715332031,389.0929260253906,19.977130889892578,-651.072998046875,-12.693058013916016,51.39070510864258,28.555824279785156,85.10944366455078,16383.5,65535.0
13990.56895441658,495.2083435058594,385.2251281738281,18.67200469970703,-641.2691650390625,-20.278955459594727,44.282981872558594,20.028043746948242,79.64785766601562,16383.5,65535.0
13990.56935442521,486.5863952636719,387.88958740234375,-4.121978282928467,-631.7259521484375,-10.701098442077637,54.88689041137695,29.65412712097168,86.80467987060547,16383.5,65535.0
13990.56975443384,483.34326171875,377.4974365234375,-8.128724098205566,-616.5362548828125,-17.092281341552734,48.44417953491211,30.195894241333008,82.25770568847656,16383.5,65535.0
13990.57015444247,490.0538635253906,378.2632141113281,-14.304059982299805,-596.2803344726562,-19.49799346923828,46.32487869262695,23.34770393371582,78.6006088256836,16383.5,65535.0
13990.570554451098,495.3224182128906,381.092041015625,-7.561044692993164,-584.1196899414062,-23.124454498291016,39.327091217041016,15.526264190673828,75.05052947998047,16383.5,65535.0
13990.570954459728,531.10302734375,372.2844543457031,-1.6729544401168823,-566.4985961914062,-21.122112274169922,46.35909652709961,23.271087646484375,76.57177734375,16383.5,65535.0
13990.571354468359,585.043701171875,361.1247253417969,-34.19794845581055,-548.70166015625,-17.66278648376465,45.86955642700195,23.049097061157227,79.998779296875,16383.5,65535.0
13990.571754476989,607.54931640625,365.7677307128906,-54.1550178527832,-539.0879516601562,-16.805299758911133,50.439300537109375,26.014877319335938,81.3636474609375,16383.5,65535.0
13990.572154485617,580.9893188476562,375.6135559082031,-32.695987701416016,-535.7667236328125,-9.453497886657715,59.758995056152344,34.748924255371094,87.14441680908203,16383.5,65535.0
13990.572554494247,538.7290649414062,373.1875305175781,-11.247539520263672,-527.686279296875,-19.422508239746094,51.91608810424805,24.805801391601562,79.06130981445312,16383.5,65535.0
13990.572954502877,524.4080810546875,371.9250793457031,3.820441484451294,-520.2783203125,-15.905418395996094,55.668617248535156,27.560243606567383,85.10338592529297,16383.5,65535.0
13990.573354511507,510.8390808105469,380.1579284667969,26.19292449951172,-510.6358337402344,-16.247262954711914,53.10213088989258,24.835880279541016,83.29793548583984,16383.5,65535.0
13990.573754520135,511.9799499511719,384.3587646484375,50.269081115722656,-525.9595947265625,-7.6139235496521,64.03412628173828,32.81880569458008,93.6132583618164,16383.5,65535.0
13990.574154528766,499.2132568359375,377.6397705078125,34.34832763671875,-538.7305908203125,-16.181333541870117,59.11545944213867,29.47372055053711,86.15412139892578,16383.5,65535.0
13990.574554537396,488.14141845703125,365.52996826171875,-15.066655158996582,-540.82080078125,-16.435697555541992,54.18549346923828,28.180980682373047,81.30194854736328,16383.5,65535.0
13990.574954546026,498.9389343261719,375.14697265625,-42.14942932128906,-533.9408569335938,-23.115293502807617,49.45803451538086,22.380535125732422,76.39274597167969,16383.5,65535.0
13990.575354554654,479.58807373046875,376.7599792480469,-53.48929214477539,-547.9104614257812,-16.649211883544922,58.961524963378906,27.674421310424805,83.37726593017578,16383.5,65535.0
13990.575754563284,452.0492248535156,371.85614013671875,-41.8062744140625,-561.7152099609375,-9.640768051147461,67.08898162841797,33.70842742919922,91.81824493408203,16383.5,65535.0
13990.576154571914,427.0494689941406,379.3849792480469,-9.377004623413086,-572.4583129882812,-12.810617446899414,68.2991943359375,33.0925178527832,89.26102447509766,16383.5,65535.0
13990.576554580544,394.16241455078125,377.811279296875,-11.027482032775879,-569.8115234375,-12.622212409973145,70.51725006103516,31.843210220336914,88.05169677734375,16383.5,65535.0
13990.576954589173,361.1775207519531,374.7605285644531,-27.503456115722656,-584.7789916992188,-10.278619766235352,70.6574478149414,33.03594207763672,91.72430419921875,16383.5,65535.0
13990.577354597803,324.9595031738281,368.64532470703125,-30.152002334594727,-584.7278442382812,-21.89213752746582,61.728004455566406,24.528871536254883,77.72815704345703,16383.5,65535.0
13990.577754606433,308.2492370605469,371.3532409667969,-2.6441855430603027,-597.265869140625,-15.716463088989258,63.421695709228516,26.739355087280273,81.79779052734375,16383.5,65535.0
13990.578154615063,301.1302185058594,381.247802734375,18.112648010253906,-582.3120727539062,-14.356457710266113,66.94706726074219,27.952922821044922,82.9828872680664,16383.5,65535.0
13990.578554623691,331.6801452636719,379.8581237792969,18.538612365722656,-577.3049926757812,-13.546595573425293,70.84652709960938,27.809894561767578,85.8876724243164,16383.5,65535.0
13990.578954632321,377.0324401855469,376.5548400878906,14.778983116149902,-597.7374267578125,1.025950312614441,85.88536834716797,41.80061340332031,96.02603149414062,16383.5,65535.0
13990.579354640951,421.1153564453125,383.13092041015625,7.959691047668457,-608.0114135742188,-8.08445930480957,79.40597534179688,36.56732940673828,92.64865112304688,16383.5,65535.0
13990.579754649581,440.0135803222656,383.5508117675781,-2.9699552059173584,-617.5432739257812,-5.1765570640563965,78.86552429199219,36.942359924316406,95.60359191894531,16383.5,65535.0
13990.58015465821,415.383544921875,378.5468444824219,-19.037412643432617,-611.9977416992188,-14.91562271118164,70.73271179199219,31.360857009887695,85.53278350830078,16383.5,65535.0
13990.58055466684,348.8480224609375,379.6570129394531,-12.762728691101074,-599.1605224609375,-15.85897445678711,67.76612091064453,29.405677795410156,82.4525375366211,16383.5,65535.0
13990.58095467547,272.9302062988281,378.1767578125,-15.38306999206543,-591.3270263671875,-21.497474670410156,60.025936126708984,22.840402603149414,77.3158187866211,16383.5,65535.0
13990.5813546841,250.21604919433594,380.768310546875,-28.647167205810547,-597.1495971679688,-16.070043563842773,64.07079315185547,25.713136672973633,84.48660278320312,16383.5,65535.0
13990.581754692728,216.9980010986328,373.1734924316406,-33.63563919067383,-590.7113647460938,-16.282350540161133,63.90854263305664,25.86419105529785,83.1991195678711,16383.5,65535.0
13990.582154701358,176.6746826171875,367.85003662109375,-5.372391223907471,-583.6380004882812,-16.412242889404297,63.11603546142578,26.448001861572266,83.70234680175781,16383.5,65535.0
13990.582554709988,240.41465759277344,380.21844482421875,29.509641647338867,-577.1940307617188,-15.606220245361328,64.90309143066406,27.310792922973633,84.03768920898438,16383.5,65535.0
13990.582954718619,348.5563659667969,380.06298828125,28.787809371948242,-565.085205078125,-19.582420349121094,60.8347282409668,24.751235961914062,80.87297058105469,16383.5,65535.0
13990.583354727247,405.7296447753906,384.3418273925781,14.172152519226074,-539.8433837890625,-11.68476390838623,68.3636703491211,33.863494873046875,89.48014831542969,16383.5,65535.0
13990.583754735877,402.12939453125,388.8190002441406,19.095279693603516,-558.2005004882812,-10.874999046325684,65.7139892578125,30.165193557739258,87.35259246826172,16383.5,65535.0
13990.584154744507,342.78167724609375,389.64080810546875,19.89859390258789,-575.7927856445312,-14.132254600524902,63.890499114990234,29.991134643554688,88.19770050048828,16383.5,65535.0
13990.584554753137,324.700927734375,383.72735595703125,19.09971809387207,-566.2363891601562,-16.803173065185547,62.28718566894531,29.761985778808594,86.90982818603516,16383.5,65535.0
13990.584954761765,349.439208984375,384.687744140625,59.819759368896484,-556.3936767578125,-7.373762130737305,65.01673889160156,35.04133987426758,92.21855926513672,16383.5,65535.0
13990.585354770395,335.2277526855469,376.7652282714844,76.18404388427734,-548.10791015625,-19.96687126159668,54.514495849609375,25.622812271118164,80.1314926147461,16383.5,65535.0
13990.585754779026,306.4469909667969,387.9678649902344,49.66496276855469,-542.2693481445312,-13.642640113830566,56.0228271484375,26.580350875854492,86.58440399169922,16383.5,65535.0
13990.586154787656,259.1562805175781,386.83319091796875,27.39638900756836,-532.9560546875,-1.9954421520233154,71.00550079345703,42.92938995361328,97.0157241821289,16383.5,65535.0
13990.586554796284,236.2981414794922,384.98406982421875,25.928842544555664,-520.9140625,-13.482504844665527,59.21918869018555,32.856258392333984,89.11770629882812,16383.5,65535.0
13990.586954804914,237.36050415039062,381.3948669433594,45.863155364990234,-524.2755737304688,-16.622390747070312,51.0578727722168,23.970720291137695,82.41586303710938,16383.5,65535.0
13990.587354813544,251.69219970703125,375.54925537109375,44.9122314453125,-518.983642578125,-27.838611602783203,43.70661163330078,20.53842544555664,75.2958984375,16383.5,65535.0
13990.587754822174,258.5423889160156,374.1543884277344,28.354082107543945,-528.148681640625,-28.550228118896484,34.63172149658203,16.017398834228516,73.34703826904297,16383.5,65535.0
13990.588154830803,278.8626403808594,377.39752197265625,28.41634750366211,-544.0523071289062,-31.72999382019043,32.54219055175781,12.120132446289062,70.93585968017578,16383.5,65535.0
13990.588554839433,304.7693786621094,387.20074462890625,25.59469985961914,-557.017333984375,-27.354337692260742,37.490806579589844,14.069923400878906,76.45055389404297,16383.5,65535.0
13990.588954848063,430.6562805175781,393.004150390625,37.7898063659668,-542.0912475585938,-22.894527435302734,41.60102844238281,20.32295799255371,75.43402099609375,16383.5,65535.0
13990.589354856693,531.1788330078125,387.1798400878906,63.350337982177734,-528.0042724609375,-30.498498916625977,29.638853073120117,10.60628890991211,68.70845031738281,16383.5,65535.0
13990.589754865321,574.1369018554688,390.557861328125,42.55181121826172,-520.7289428710938,-30.60050392150879,29.51483917236328,13.09400463104248,68.83744049072266,16383.5,65535.0
13990.590154873951,593.2548217773438,390.82275390625,4.676143646240234,-498.1505126953125,-9.938897132873535,56.131404876708984,33.63212203979492,89.07102966308594,16383.5,65535.0
13990.590554882581,634.5199584960938,379.8585510253906,39.79677963256836,-496.05450439453125,-17.868619918823242,53.163230895996094,28.830421447753906,82.85284423828125,16383.5,65535.0
13990.590954891211,668.8298950195312,379.05133056640625,53.567474365234375,-488.5355224609375,-22.80088996887207,45.84746551513672,21.938764572143555,77.97267150878906,16383.5,65535.0
13990.59135489984,670.7938842773438,378.96417236328125,26.626434326171875,-496.9306945800781,-16.374122619628906,48.173946380615234,26.77327537536621,82.4425277709961,16383.5,65535.0
13990.59175490847,668.7421875,376.2279357910156,8.87303638458252,-508.39910888671875,-7.616538047790527,60.3613395690918,35.4070930480957,90.14411163330078,16383.5,65535.0
13990.5921549171,656.2252807617188,374.32977294921875,18.175941467285156,-512.7031860351562,-10.402229309082031,62.38932418823242,33.05875015258789,89.67115020751953,16383.5,65535.0
13990.59255492573,613.81884765625,381.5477294921875,18.146808624267578,-523.8015747070312,-9.943655967712402,61.88167953491211,34.263519287109375,91.55677795410156,16383.5,65535.0
13990.592954934358,562.6908569335938,383.6534423828125,-26.293289184570312,-525.163818359375,-15.754651069641113,54.647315979003906,30.650875091552734,85.8948974609375,16383.5,65535.0
13990.593354942988,527.1978149414062,369.768798828125,-47.71467971801758,-519.75439453125,-7.523409843444824,62.36083221435547,32.00442886352539,91.71846771240234,16383.5,65535.0
13990.593754951618,490.1517333984375,367.70782470703125,-31.731164932250977,-538.5693969726562,-15.538200378417969,57.11722183227539,28.185346603393555,84.93827056884766,16383.5,65535.0
13990.594154960248,425.7033996582031,368.25384521484375,-34.940975189208984,-545.5709838867188,-7.9229841232299805,68.57231903076172,39.62196731567383,93.78189849853516,16383.5,65535.0
13990.594554968877,300.357421875,367.4339599609375,-55.95622634887695,-547.1790771484375,-3.8392128944396973,68.52005767822266,40.25495529174805,96.57463073730469,16383.5,65535.0
13990.594954977507,205.66744995117188,368.60772705078125,-56.163543701171875,-548.5720825195312,-12.296246528625488,63.92202377319336,32.160282135009766,89.03398895263672,16383.5,65535.0
13990.595354986137,183.2403106689453,362.2379455566406,-54.362274169921875,-581.5724487304688,-11.123907089233398,65.2382583618164,31.430566787719727,88.39739227294922,16383.5,65535.0
13990.595754994767,199.51467895507812,364.0269470214844,-39.856143951416016,-611.0283813476562,-12.315596580505371,65.62155151367188,31.38961410522461,87.11617279052734,16383.5,65535.0
13990.596155003395,214.08087158203125,373.4410705566406,-31.56183624267578,-612.5147094726562,-19.943199157714844,59.635807037353516,24.719881057739258,79.41619110107422,16383.5,65535.0
13990.596555012025,251.0330352783203,370.2415466308594,-59.2183723449707,-594.83203125,-17.209474563598633,62.66233825683594,28.414249420166016,84.6241455078125,16383.5,65535.0
13990.596955020656,310.0928649902344,367.25592041015625,-55.44123840332031,-590.8515625,-15.181037902832031,68.78882598876953,29.57742691040039,87.3038330078125,16383.5,65535.0
13990.597355029286,322.7731628417969,369.82562255859375,-24.205215454101562,-578.26171875,-10.165616989135742,73.8176498413086,34.53512191772461,92.53977966308594,16383.5,65535.0
13990.597755037914,335.9830627441406,372.926025390625,3.9555957317352295,-569.1824340820312,-9.512628555297852,74.3998031616211,37.7488899230957,93.95221710205078,16383.5,65535.0
13990.598155046544,368.3034362792969,373.479248046875,10.906848907470703,-552.9277954101562,-6.221648216247559,78.17112731933594,37.151554107666016,91.65849304199219,16383.5,65535.0
13990.598555055174,470.5460510253906,377.011962890625,-17.902236938476562,-531.16259765625,13.906734466552734,99.78028869628906,57.48701095581055,110.82451629638672,16383.5,65535.0
13990.598955063804,622.0587768554688,380.9942321777344,-28.92022705078125,-525.546630859375,4.741790771484375,99.2349853515625,51.8914909362793,105.13330841064453,16383.5,65535.0
13990.599355072432,681.6055297851562,382.23248291015625,-29.267471313476562,-518.28173828125,2.6789238452911377,95.05261993408203,46.869998931884766,100.81387329101562,16383.5,65535.0
13990.599755081063,577.4317016601562,377.04364013671875,-23.38175392150879,-509.9483337402344,3.4392569065093994,91.4388198852539,46.03844451904297,102.93363189697266,16383.5,65535.0
13990.600155089693,425.747314453125,380.3956298828125,-49.35808181762695,-513.4937744140625,1.0881205797195435,91.0781478881836,43.56635665893555,102.12483978271484,16383.5,65535.0
13990.600555098321,361.9906311035156,383.7215270996094,-55.04826736450195,-501.873046875,-8.638340950012207,78.20052337646484,35.277706146240234,90.94271850585938,16383.5,65535.0
13990.600955106951,345.52606201171875,372.96136474609375,-12.981048583984375,-510.66925048828125,-3.9596753120422363,81.66986083984375,39.8741569519043,98.76061248779297,16383.5,65535.0
13990.601355115581,318.8741149902344,374.3768005371094,7.759921550750732,-528.200439453125,-3.2689366340637207,82.35326385498047,38.96814727783203,95.42540740966797,16383.5,65535.0
13990.601755124211,294.5770263671875,382.51715087890625,28.397140502929688,-552.829833984375,6.32059383392334,91.94442749023438,49.67869186401367,105.97158813476562,16383.5,65535.0
13990.602155132841,314.09600830078125,371.7872314453125,55.96581268310547,-579.1680908203125,2.304981231689453,92.0020980834961,45.98554992675781,104.28885650634766,16383.5,65535.0
13990.60255514147,354.4980773925781,376.14019775390625,33.113563537597656,-599.763916015625,0.007251261733472347,86.87559509277344,44.37105941772461,100.90628814697266,16383.5,65535.0
13990.6029551501,390.1112365722656,375.84735107421875,-8.87250804901123,-613.44775390625,-0.9186692833900452,81.23432159423828,45.391422271728516,98.83306884765625,16383.5,65535.0
13990.60335515873,445.846435546875,376.20721435546875,-25.543867111206055,-598.53466796875,-0.6172003746032715,81.70955657958984,44.28507614135742,97.1852798461914,16383.5,65535.0
13990.603755167358,522.9091186523438,390.97894287109375,-31.17974281311035,-570.16748046875,-6.703344821929932,71.62107849121094,38.23068618774414,92.29801177978516,16383.5,65535.0
13990.604155175988,598.7203979492188,389.0616455078125,2.816112756729126,-539.2186279296875,6.19062614440918,87.19151306152344,51.68901062011719,107.81019592285156,16383.5,65535.0
13990.604555184618,664.7158203125,387.2130432128906,37.481197357177734,-523.6212768554688,4.487335205078125,83.14837646484375,48.00617980957031,105.0923843383789,16383.5,65535.0
13990.604955193248,686.7763671875,380.7034912109375,-5.217706203460693,-501.0724182128906,-2.5667896270751953,74.34049987792969,40.502437591552734,97.10480499267578,16383.5,65535.0
13990.605355201878,613.507080078125,392.3294677734375,-55.2257194519043,-516.4148559570312,-3.2533111572265625,74.6731185913086,42.80051040649414,97.13797760009766,16383.5,65535.0
13990.605755210507,483.7916564941406,379.35546875,-23.18423843383789,-548.7695922851562,-14.993102073669434,59.28024673461914,29.306455612182617,86.27685546875,16383.5,65535.0
13990.606155219137,413.13128662109375,381.39111328125,34.94960403442383,-554.63671875,-14.38914680480957,54.05485916137695,24.17646026611328,83.05770874023438,16383.5,65535.0
13990.606555227767,401.48065185546875,380.697509765625,29.96306610107422,-565.996337890625,-13.979599952697754,58.80644607543945,30.926025390625,86.83616638183594,16383.5,65535.0
13990.606955236395,427.9966735839844,377.0341491699219,16.61240577697754,-554.4598388671875,-16.414730072021484,52.30735397338867,27.588380813598633,84.51141357421875,16383.5,65535.0
13990.607355245025,461.0916748046875,389.45794677734375,26.0706787109375,-541.9484252929688,-16.41455841064453,49.17060852050781,25.970321655273438,82.15646362304688,16383.5,65535.0
13990.607755253655,476.41473388671875,393.25836181640625,36.4335823059082,-560.6493530273438,-14.507916450500488,49.125370025634766,26.525432586669922,81.8978500366211,16383.5,65535.0
13990.608155262285,499.60595703125,388.5845642089844,30.256742477416992,-575.8173828125,-20.15163803100586,47.714561462402344,23.785240173339844,81.1728515625,16383.5,65535.0
13990.608555270916,513.500244140625,388.96783447265625,20.467632293701172,-572.5147094726562,-27.58641815185547,39.528907775878906,16.76783561706543,69.573486328125,16383.5,65535.0
13990.608955279544,503.2001647949219,380.10723876953125,21.097936630249023,-551.2612915039062,-20.136356353759766,46.159202575683594,24.905086517333984,80.82242584228516,16383.5,65535.0
13990.609355288174,453.38677978515625,379.6200866699219,25.119897842407227,-546.8551635742188,-12.812627792358398,52.13334274291992,30.84123992919922,87.85879516601562,16383.5,65535.0
13990.609755296804,393.0578308105469,375.45556640625,42.743682861328125,-535.75,-18.448076248168945,47.95384979248047,25.54690170288086,80.57647705078125,16383.5,65535.0
13990.610155305432,373.97552490234375,367.68994140625,46.479217529296875,-534.3802490234375,-11.272302627563477,56.75778579711914,34.330535888671875,90.51980590820312,16383.5,65535.0
13990.610555314062,361.14453125,382.4073486328125,78.30160522460938,-544.9767456054688,-8.076589584350586,58.86684799194336,35.66876983642578,89.75366973876953,16383.5,65535.0
13990.610955322692,344.60931396484375,382.139404296875,102.8303451538086,-528.7691040039062,-11.184144020080566,58.59270477294922,34.25572967529297,90.77500915527344,16383.5,65535.0
13990.611355331323,359.34161376953125,385.48828125,44.09760665893555,-521.2191162109375,-20.66301918029785,46.54095458984375,24.85610008239746,80.45417022705078,16383.5,65535.0
13990.61175533995,374.723388671875,384.28411865234375,-1.6097711324691772,-532.9702758789062,-11.7904634475708,57.922725677490234,30.80818748474121,85.30848693847656,16383.5,65535.0
13990.612155348581,380.1320495605469,373.410888671875,9.378363609313965,-546.7103271484375,-8.568052291870117,64.3580551147461,34.757781982421875,90.41297149658203,16383.5,65535.0
13990.612555357211,423.8114013671875,390.4971008300781,27.44013786315918,-546.7093505859375,-20.23122787475586,49.651153564453125,23.200056076049805,81.81085205078125,16383.5,65535.0
13990.612955365841,478.1774597167969,393.9289245605469,19.71853256225586,-529.0391235351562,-9.52404499053955,58.23917770385742,31.009798049926758,88.67684173583984,16383.5,65535.0
13990.61335537447,489.6112060546875,384.1880187988281,10.173239707946777,-548.1500244140625,0.3841661214828491,74.426513671875,42.98530197143555,99.53511810302734,16383.5,65535.0
13990.6137553831,506.7609558105469,378.0952453613281,-4.852928161621094,-566.50732421875,-7.033021450042725,69.0888442993164,39.07438278198242,92.77849578857422,16383.5,65535.0
13990.61415539173,525.6193237304688,382.97589111328125,-13.53646183013916,-554.5580444335938,-4.740265369415283,69.9149169921875,38.596580505371094,93.54542541503906,16383.5,65535.0
13990.61455540036,543.6333618164062,382.1412353515625,17.436635971069336,-543.3054809570312,-3.619088888168335,71.01317596435547,40.8591423034668,95.59140014648438,16383.5,65535.0
13990.614955408988,551.5994262695312,380.2001037597656,0.14808762073516846,-522.5579833984375,-0.4424886107444763,76.4541244506836,44.646881103515625,101.53289031982422,16383.5,65535.0
13990.615355417618,585.5762329101562,375.5533752441406,-36.59172821044922,-510.476806640625,-6.588000297546387,74.09561920166016,38.93158721923828,96.98363494873047,16383.5,65535.0
13990.615755426248,632.1511840820312,368.8079528808594,-0.06759791076183319,-498.0469055175781,-1.4233779907226562,76.23548126220703,42.7091064453125,97.13381958007812,16383.5,65535.0
13990.616155434878,639.806396484375,362.7707824707031,15.739582061767578,-489.2470397949219,-4.260116100311279,75.81440734863281,39.13774871826172,94.72772216796875,16383.5,65535.0
13990.616555443507,619.3901977539062,360.1831970214844,24.09572410583496,-486.9783630371094,-9.578012466430664,72.30416107177734,36.898475646972656,87.86248016357422,16383.5,65535.0
13990.616955452137,602.2425537109375,372.8449401855469,31.30035972595215,-498.4036865234375,-10.601627349853516,69.21989440917969,32.58805465698242,89.12608337402344,16383.5,65535.0
13990.617355460767,589.0521850585938,370.973388671875,43.20969772338867,-504.2653503417969,-2.917957305908203,76.85179138183594,38.07746887207031,95.77435302734375,16383.5,65535.0
13990.617755469397,537.76611328125,370.38629150390625,32.90233612060547,-501.14508056640625,-2.0277280807495117,81.01738739013672,42.73222732543945,95.80623626708984,16383.5,65535.0
13990.618155478025,438.2607116699219,375.9361877441406,11.552504539489746,-501.27496337890625,-1.036513328552246,84.15824127197266,45.57818603515625,102.35395050048828,16383.5,65535.0
13990.618555486655,358.12939453125,367.4629211425781,32.88868713378906,-487.0271911621094,-0.041914165019989014,83.74468994140625,44.08857727050781,99.552978515625,16383.5,65535.0
13990.618955495285,326.5772705078125,365.2961730957031,48.824588775634766,-500.1513671875,-10.134601593017578,74.67249298095703,33.33955764770508,88.4557876586914,16383.5,65535.0
13990.619355503915,319.0227355957031,377.27337646484375,32.76868438720703,-528.5953369140625,-17.204395294189453,68.31758880615234,27.42029571533203,84.9832763671875,16383.5,65535.0
13990.619755512544,332.26519775390625,370.9493713378906,9.01004409790039,-533.8890991210938,-19.700380325317383,62.72015380859375,23.894136428833008,81.9958267211914,16383.5,65535.0
13990.620155521174,376.9068908691406,372.4613037109375,14.477982521057129,-531.166015625,-12.392017364501953,68.76859283447266,31.092491149902344,88.10615539550781,16383.5,65535.0
13990.620555529804,451.13665771484375,377.24560546875,30.3992977142334,-521.5551147460938,-12.286166191101074,70.8900146484375,30.73243522644043,84.679443359375,16383.5,65535.0
13990.620955538434,504.24249267578125,373.85528564453125,54.380401611328125,-526.7447509765625,-11.968165397644043,69.93698120117188,31.11916160583496,86.69770050048828,16383.5,65535.0
13990.621355547062,558.81689453125,376.021484375,66.1913070678711,-538.421875,-2.1290318965911865,80.04986572265625,42.38753890991211,95.50677490234375,16383.5,65535.0
13990.621755555692,549.1363525390625,382.344970703125,39.45155715942383,-556.2459106445312,-10.736300468444824,73.98957824707031,38.290771484375,89.85674285888672,16383.5,65535.0
13990.622155564322,486.7140197753906,379.943115234375,-35.0854377746582,-556.9165649414062,-10.719185829162598,71.56415557861328,36.30002975463867,89.84716796875,16383.5,65535.0
13990.622555572952,461.2952880859375,375.3700866699219,-51.16715621948242,-561.7583618164062,-4.127109527587891,76.0806884765625,38.73354721069336,94.80122375488281,16383.5,65535.0
13990.62295558158,478.774658203125,375.6294250488281,-22.019704818725586,-567.4098510742188,-14.556909561157227,65.58145141601562,31.39413833618164,84.45729064941406,16383.5,65535.0
13990.62335559021,484.9395446777344,370.0672302246094,-0.031311072409152985,-565.98046875,-7.246159553527832,72.6739730834961,39.626155853271484,92.75569152832031,16383.5,65535.0
13990.623755598841,431.6726989746094,364.7777404785156,21.128923416137695,-583.0594482421875,-17.631305694580078,59.90728759765625,27.35214614868164,82.44564056396484,16383.5,65535.0
13990.624155607471,361.5468444824219,376.3399353027344,30.471872329711914,-614.01953125,-17.02925682067871,55.9587516784668,27.42102813720703,84.85832214355469,16383.5,65535.0
13990.6245556161,368.3083190917969,377.0903625488281,6.294866561889648,-628.45263671875,-18.2426700592041,58.01564025878906,27.053422927856445,83.12074279785156,16383.5,65535.0
13990.62495562473,398.3023681640625,379.3283386230469,-26.21098518371582,-630.85546875,-22.200286865234375,48.35592269897461,20.76846694946289,77.35604858398438,16383.5,65535.0
13990.62535563336,419.9545593261719,371.9825744628906,-23.92194175720215,-612.398193359375,-31.311145782470703,40.06472396850586,14.741010665893555,71.30559539794922,16383.5,65535.0
13990.62575564199,496.5626220703125,378.5085144042969,-14.55756664276123,-598.296142578125,-28.691837310791016,41.94993209838867,13.53425407409668,72.44783020019531,16383.5,65535.0
13990.626155650618,533.9498291015625,376.22271728515625,-4.58510160446167,-588.8972778320312,-21.615137100219727,44.314002990722656,18.87729835510254,76.58802795410156,16383.5,65535.0
13990.626555659248,559.8731079101562,373.7867736816406,2.8575525283813477,-582.356201171875,-19.206233978271484,47.56882095336914,24.276628494262695,76.80018615722656,16383.5,65535.0
13990.626955667878,580.0755004882812,377.0579833984375,27.161745071411133,-597.3976440429688,-29.930706024169922,37.42533874511719,13.097084045410156,69.88983917236328,16383.5,65535.0
13990.627355676508,604.9797973632812,370.6967468261719,12.704813957214355,-585.1051635742188,-22.8971004486084,41.664756774902344,18.59072494506836,75.49578094482422,16383.5,65535.0
13990.627755685136,632.2661743164062,373.1655578613281,11.60232162475586,-556.1040649414062,-27.583660125732422,32.74755859375,14.821592330932617,70.12673950195312,16383.5,65535.0
13990.628155693767,665.9718017578125,378.5312194824219,9.030421257019043,-524.1172485351562,-32.57048034667969,27.018726348876953,9.151692390441895,66.86336517333984,16383.5,65535.0
13990.628555702397,677.2954711914062,373.7910461425781,-23.69673728942871,-517.5137939453125,-29.625398635864258,32.95924377441406,14.763349533081055,70.62237548828125,16383.5,65535.0
13990.628955711027,667.19921875,367.3875732421875,-45.78504180908203,-528.260986328125,-21.16951560974121,40.21868133544922,22.33196258544922,78.06616973876953,16383.5,65535.0
13990.629355719655,689.12744140625,365.4559326171875,-13.043377876281738,-525.2366943359375,-30.541988372802734,28.817853927612305,12.591453552246094,70.837646484375,16383.5,65535.0
13990.629755728285,698.4185180664062,375.4178771972656,41.904537200927734,-523.0577392578125,-16.23247718811035,45.250587463378906,25.51076889038086,81.7463150024414,16383.5,65535.0
13990.630155736915,671.3832397460938,377.200927734375,37.699527740478516,-538.390380859375,-28.67458152770996,38.51460647583008,16.634796142578125,73.3156509399414,16383.5,65535.0
13990.630555745545,630.2930908203125,377.07415771484375,10.485365867614746,-553.1634521484375,-35.82646179199219,28.51654815673828,9.663997650146484,61.82255172729492,16383.5,65535.0
13990.630955754174,602.9247436523438,373.7657165527344,2.5504066944122314,-545.4655151367188,-27.725099563598633,33.41312026977539,14.969695091247559,70.20845031738281,16383.5,65535.0
13990.631355762804,582.5435791015625,381.51312255859375,-18.87042999267578,-524.1607055664062,-27.44474220275879,34.12760925292969,15.195307731628418,73.205322265625,16383.5,65535.0
13990.631755771434,565.0200805664062,383.27099609375,-8.257975578308105,-510.664794921875,-33.13600158691406,32.32487106323242,10.373224258422852,65.87926483154297,16383.5,65535.0
13990.632155780064,573.8671264648438,373.7817687988281,2.956688165664673,-508.7156677246094,-21.155242919921875,43.150062561035156,22.627655029296875,79.61123657226562,16383.5,65535.0
13990.632555788692,590.9406127929688,377.4554138183594,34.309452056884766,-519.4175415039062,-17.114116668701172,51.29091262817383,27.688764572143555,84.23802947998047,16383.5,65535.0
13990.632955797322,587.9615478515625,382.047607421875,40.303558349609375,-540.8351440429688,-20.957014083862305,46.469947814941406,23.873062133789062,78.8957748413086,16383.5,65535.0
13990.633355805952,560.971923828125,378.1170349121094,29.13228988647461,-581.5693359375,-19.355894088745117,47.38674545288086,23.42896842956543,77.84197235107422,16383.5,65535.0
13990.633755814582,507.4744567871094,380.3680725097656,23.082435607910156,-607.3803100585938,-20.467544555664062,47.862518310546875,22.064165115356445,77.17694091796875,16383.5,65535.0
13990.63415582321,451.77471923828125,382.3173522949219,-18.535018920898438,-608.7333374023438,-22.068992614746094,44.604618072509766,20.300800323486328,76.95142364501953,16383.5,65535.0
13990.63455583184,392.1720886230469,370.7507629394531,-28.561471939086914,-593.6253662109375,-35.349708557128906,40.066593170166016,9.579988479614258,68.01060485839844,16383.5,65535.0
13990.63495584047,336.2773742675781,369.91131591796875,-32.80619430541992,-574.512451171875,-19.854663848876953,53.51650619506836,24.47394561767578,80.11292266845703,16383.5,65535.0
13990.635355849101,303.8858947753906,375.056884765625,-59.293704986572266,-562.387939453125,-17.62308120727539,58.98806381225586,29.193838119506836,84.20783233642578,16383.5,65535.0
13990.63575585773,337.8590393066406,371.588134765625,-81.63795471191406,-564.2780151367188,-20.853496551513672,56.92030715942383,25.5482234954834,80.95067596435547,16383.5,65535.0
13990.63615586636,429.4758605957031,372.6909484863281,-98.76835632324219,-573.0609130859375,-21.810218811035156,55.10948944091797,23.248395919799805,78.68099975585938,16383.5,65535.0
13990.63655587499,484.3044738769531,379.2016296386719,-68.86941528320312,-575.7054443359375,-28.29452896118164,49.19969940185547,13.77679443359375,70.39241027832031,16383.5,65535.0
13990.63695588362,492.97149658203125,371.8091735839844,-0.12956829369068146,-577.5296630859375,-17.875917434692383,60.01465606689453,27.638057708740234,79.80101776123047,16383.5,65535.0
13990.637355892248,460.8466796875,361.91802978515625,38.386268615722656,-571.220947265625,-12.735466003417969,67.47884368896484,31.24639892578125,88.3680648803711,16383.5,65535.0
13990.637755900878,434.1670227050781,370.43487548828125,58.966670989990234,-571.2224731445312,-15.19498348236084,67.6181869506836,32.32201385498047,85.89512634277344,16383.5,65535.0
13990.638155909508,400.1536560058594,373.88519287109375,57.95886993408203,-553.8777465820312,-3.138770818710327,79.72650909423828,40.55549240112305,93.95281982421875,16383.5,65535.0
13990.638555918138,375.12896728515625,366.0935363769531,46.86289978027344,-532.7369384765625,-7.864102840423584,76.4984130859375,33.724151611328125,87.84027099609375,16383.5,65535.0
13990.638955926766,372.59765625,369.27935791015625,36.128326416015625,-526.6981811523438,-12.66234016418457,72.36327362060547,30.14874839782715,88.68559265136719,16383.5,65535.0
13990.639355935396,377.79217529296875,368.5652160644531,42.340579986572266,-523.0216674804688,-3.458676338195801,78.13373565673828,37.29909133911133,92.46004486083984,16383.5,65535.0
13990.639755944027,398.13970947265625,358.594970703125,58.90654754638672,-520.4207763671875,-2.515484094619751,79.90918731689453,38.562137603759766,95.60122680664062,16383.5,65535.0
13990.640155952657,413.77081298828125,366.0653991699219,23.04839515686035,-515.8743896484375,-5.038806438446045,81.01871490478516,42.069217681884766,96.64450073242188,16383.5,65535.0
13990.640555961285,413.6013488769531,373.68670654296875,15.49306869506836,-512.8831787109375,-11.164737701416016,71.06853485107422,36.06965637207031,88.47115325927734,16383.5,65535.0
13990.640955969915,410.3571472167969,372.0406188964844,9.596832275390625,-525.2408447265625,-7.893375396728516,75.43315124511719,35.05376434326172,90.99577331542969,16383.5,65535.0
13990.641355978545,416.82293701171875,371.4432373046875,2.6075568199157715,-524.9955444335938,-4.082099914550781,79.06387329101562,38.94025802612305,97.12489318847656,16383.5,65535.0
13990.641755987175,410.8316650390625,364.8966979980469,14.351781845092773,-523.17333984375,-2.7428107261657715,77.22996520996094,41.25930404663086,92.35240173339844,16383.5,65535.0
13990.642155995803,411.45123291015625,374.33209228515625,44.13582992553711,-497.27862548828125,-10.05518913269043,70.75899505615234,33.15342330932617,87.2143783569336,16383.5,65535.0
13990.642556004434,403.7652282714844,376.88641357421875,37.03993606567383,-464.6535339355469,-14.903726577758789,64.41293334960938,30.88153076171875,86.00212860107422,16383.5,65535.0
13990.642956013064,388.8709411621094,373.1624450683594,19.391345977783203,-433.66546630859375,-12.316040992736816,66.71744537353516,33.049747467041016,87.8161849975586,16383.5,65535.0
13990.643356021694,398.6898498535156,367.1270446777344,4.216862678527832,-401.30267333984375,-15.480561256408691,63.274253845214844,28.91740608215332,83.63832092285156,16383.5,65535.0
13990.643756030322,407.0356140136719,375.7860107421875,12.818029403686523,-376.2342224121094,-15.831263542175293,61.37272262573242,27.972213745117188,81.29031372070312,16383.5,65535.0
13990.644156038952,401.6697082519531,377.984619140625,14.24587345123291,-370.5972900390625,-1.022292137145996,73.8097915649414,39.298954010009766,95.10643005371094,16383.5,65535.0
13990.644556047582,382.6603698730469,379.1527099609375,15.70162296295166,-377.06878662109375,-14.96204662322998,62.997318267822266,27.316530227661133,87.69046783447266,16383.5,65535.0
13990.64495605621,346.6025390625,379.719970703125,43.9342155456543,-412.27655029296875,-24.987606048583984,48.266395568847656,19.50053596496582,77.08010864257812,16383.5,65535.0
13990.64535606484,344.7440490722656,384.001220703125,68.33602905273438,-462.49102783203125,-31.819744110107422,36.48152542114258,11.365117073059082,65.413818359375,16383.5,65535.0
13990.64575607347,369.1129150390625,386.5364074707031,34.49238967895508,-454.748291015625,-29.49799346923828,38.48104476928711,15.832998275756836,69.71959686279297,16383.5,65535.0
13990.6461560821,391.55755615234375,382.7099304199219,-57.7652587890625,-427.7727966308594,-23.53789710998535,46.45585250854492,21.84208869934082,75.4615478515625,16383.5,65535.0
13990.64655609073,414.09014892578125,383.0501403808594,-114.84030151367188,-431.0611877441406,-23.68045997619629,46.329410552978516,21.201629638671875,75.26443481445312,16383.5,65535.0
13990.64695609936,430.7486267089844,378.6779479980469,-60.158485412597656,-452.7289123535156,-35.65470886230469,34.0706787109375,13.118974685668945,68.00788879394531,16383.5,65535.0
13990.64735610799,407.8982849121094,372.0477600097656,11.059648513793945,-485.73931884765625,-30.199241638183594,35.967376708984375,12.104615211486816,69.62788391113281,16383.5,65535.0
13990.64775611662,374.6997375488281,367.810302734375,25.356136322021484,-492.8790588378906,-30.466163635253906,32.98179244995117,15.613116264343262,69.6075210571289,16383.5,65535.0
13990.648156125248,365.89935302734375,371.0781555175781,-17.199813842773438,-490.6231384277344,-35.07966232299805,29.295568466186523,13.057961463928223,69.0489501953125,16383.5,65535.0
13990.648556133878,348.9098205566406,370.4466552734375,-24.808624267578125,-483.6385803222656,-29.251243591308594,32.53834915161133,13.796058654785156,68.41815185546875,16383.5,65535.0
13990.648956142508,322.1313781738281,363.1087951660156,-16.445819854736328,-476.7314453125,-29.420177459716797,34.78403091430664,15.364309310913086,70.88088989257812,16383.5,65535.0
13990.649356151138,301.2443542480469,360.9399719238281,-23.549564361572266,-469.8057556152344,-28.058799743652344,36.20988464355469,16.924196243286133,74.59093475341797,16383.5,65535.0
13990.649756159768,303.1576232910156,363.3235778808594,-47.93319320678711,-483.8036193847656,-28.34219741821289,32.833457946777344,15.567912101745605,69.29759216308594,16383.5,65535.0
13990.650156168396,345.3661804199219,369.4987487792969,-18.299333572387695,-528.506103515625,-30.900537490844727,30.812105178833008,13.32363224029541,68.54112243652344,16383.5,65535.0
13990.650556177026,370.2264099121094,364.27850341796875,45.89299392700195,-566.3951416015625,-26.39668083190918,36.30738830566406,17.42532730102539,74.0464859008789,16383.5,65535.0
13990.650956185656,386.3546447753906,372.67083740234375,18.276342391967773,-587.901611328125,-32.31645202636719,34.53334045410156,9.474981307983398,68.21463012695312,16383.5,65535.0
13990.651356194285,388.1383056640625,372.4425964355469,-80.95475769042969,-567.8865966796875,-31.520383834838867,34.92511749267578,11.40026569366455,69.08393096923828,16383.5,65535.0
13990.651756202915,388.9302673339844,373.2470703125,-100.77918243408203,-526.7244262695312,-37.743621826171875,26.82549476623535,6.121645927429199,60.846458435058594,16383.5,65535.0
13990.652156211545,409.5718078613281,359.7235107421875,-69.65692901611328,-510.4670104980469,-23.67372703552246,40.742801666259766,20.2304630279541,76.4308090209961,16383.5,65535.0
13990.652556220175,466.4184875488281,359.5299072265625,-52.342655181884766,-504.8202819824219,-34.81612777709961,35.61009979248047,10.736220359802246,67.79393768310547,16383.5,65535.0
13990.652956228803,500.9750061035156,361.97802734375,-36.32393264770508,-495.8501892089844,-30.35049819946289,38.6492919921875,11.302009582519531,70.48169708251953,16383.5,65535.0
13990.653356237433,485.21435546875,370.4908447265625,-24.75432586669922,-505.3008728027344,-26.51540756225586,42.416805267333984,15.954261779785156,71.09532928466797,16383.5,65535.0
13990.653756246063,456.9389953613281,371.4857482910156,-22.997596740722656,-520.6544189453125,-32.484161376953125,38.08793640136719,13.066788673400879,68.4576187133789,16383.5,65535.0
13990.654156254694,436.76580810546875,366.0477600097656,-19.242341995239258,-536.8138427734375,-29.27713394165039,41.830101013183594,15.810951232910156,70.74571228027344,16383.5,65535.0
13990.654556263322,420.906982421875,359.1482238769531,-13.586369514465332,-540.3704223632812,-25.074125289916992,49.38410568237305,17.926734924316406,75.84870147705078,16383.5,65535.0
13990.654956271952,434.5440673828125,362.94586181640625,-10.48984432220459,-540.392578125,-23.97548484802246,52.484066009521484,19.4029541015625,76.9519271850586,16383.5,65535.0
13990.655356280582,453.0106201171875,364.4363708496094,-14.599739074707031,-536.29638671875,-16.085220336914062,60.13953399658203,26.859535217285156,85.76422882080078,16383.5,65535.0
13990.655756289212,464.54132080078125,355.2255859375,-27.319061279296875,-529.0301513671875,-16.363109588623047,66.96894836425781,30.041488647460938,87.58354949951172,16383.5,65535.0
13990.65615629784,448.00616455078125,354.3139343261719,-12.058516502380371,-523.6695556640625,-15.308516502380371,65.52819061279297,29.581823348999023,84.5812759399414,16383.5,65535.0
13990.65655630647,431.1189270019531,362.3890686035156,15.87792682647705,-522.6453247070312,-14.349444389343262,65.44906616210938,28.574373245239258,85.64435577392578,16383.5,65535.0
13990.6569563151,422.0555419921875,357.36932373046875,13.22854232788086,-533.2504272460938,-19.90239143371582,60.77900695800781,25.4119930267334,79.47706604003906,16383.5,65535.0
13990.65735632373,418.2812194824219,353.74200439453125,12.776941299438477,-552.8336791992188,-12.200475692749023,73.45349884033203,33.07456588745117,88.65921783447266,16383.5,65535.0
13990.657756332359,412.8094482421875,358.8443298339844,23.606239318847656,-577.3489379882812,-10.609406471252441,76.20243072509766,35.09422302246094,89.98665618896484,16383.5,65535.0
13990.658156340989,420.95989990234375,363.8505554199219,38.15707015991211,-612.1002807617188,-15.078035354614258,70.12158966064453,28.945585250854492,84.5114974975586,16383.5,65535.0
13990.65855634962,433.2685546875,367.9419860839844,42.31128692626953,-619.6948852539062,-8.55889892578125,73.93202209472656,33.86289596557617,89.1075210571289,16383.5,65535.0
13990.65895635825,445.57464599609375,365.9600524902344,21.874788284301758,-610.5184936523438,-9.259329795837402,74.40692138671875,32.97878646850586,88.54104614257812,16383.5,65535.0
13990.659356366878,465.5057373046875,370.41119384765625,22.695148468017578,-624.6642456054688,-2.5404481887817383,84.55261993408203,41.497806549072266,97.57070922851562,16383.5,65535.0
13990.659756375508,495.8651123046875,369.5940246582031,31.49863052368164,-638.7372436523438,-7.81242561340332,80.96484375,37.1398811340332,93.72241973876953,16383.5,65535.0
13990.660156384138,501.3195495605469,363.683349609375,33.03184509277344,-640.4697265625,-0.498304545879364,84.53874206542969,39.40536117553711,99.24121856689453,16383.5,65535.0
13990.660556392768,491.9010314941406,363.8660888671875,22.39115333557129,-644.2389526367188,8.915882110595703,96.31120300292969,50.21718978881836,106.24597930908203,16383.5,65535.0
13990.660956401396,498.2804870605469,376.8907165527344,8.589669227600098,-639.2877197265625,1.4381483793258667,87.933349609375,44.938541412353516,100.6299057006836,16383.5,65535.0
13990.661356410026,487.7239685058594,380.6371765136719,11.643533706665039,-635.3218383789062,-4.6537957191467285,83.3757553100586,39.394466400146484,96.9151611328125,16383.5,65535.0
13990.661756418656,448.0028381347656,366.05352783203125,-3.7035939693450928,-617.5637817382812,-1.5651226043701172,83.7933120727539,42.724910736083984,97.17256164550781,16383.5,65535.0
13990.662156427286,405.9154357910156,365.4344787597656,16.56437110900879,-600.2738037109375,-4.628533840179443,81.6578369140625,41.0655632019043,95.98192596435547,16383.5,65535.0
13990.662556435915,365.3765869140625,360.0981140136719,26.235267639160156,-587.0206909179688,-2.533233165740967,81.6980209350586,44.036338806152344,100.5863037109375,16383.5,65535.0
13990.662956444545,343.57818603515625,362.2159729003906,-18.34744644165039,-580.6573486328125,-8.260220527648926,75.83355712890625,37.21178436279297,93.67394256591797,16383.5,65535.0
13990.663356453175,338.5873107910156,369.73468017578125,-15.906554222106934,-567.3516235351562,-17.834138870239258,64.93482971191406,29.251888275146484,84.18768310546875,16383.5,65535.0
13990.663756461805,319.6789855957031,361.109375,-11.986028671264648,-570.5834350585938,-4.575857639312744,75.05851745605469,38.208248138427734,93.83042907714844,16383.5,65535.0
13990.664156470433,283.3278503417969,370.8929138183594,-2.3806464672088623,-575.8592529296875,-11.073907852172852,69.67697143554688,34.020538330078125,90.04157257080078,16383.5,65535.0
13990.664556479063,237.77232360839844,368.0320129394531,9.334216117858887,-579.9729614257812,-13.125765800476074,65.64942932128906,35.54733657836914,88.88236999511719,16383.5,65535.0
13990.664956487693,182.06576538085938,356.1132507324219,-28.246116638183594,-580.0396728515625,-12.849716186523438,63.24271774291992,30.634483337402344,88.45252227783203,16383.5,65535.0
13990.665356496324,144.62156677246094,365.5909729003906,-49.42467498779297,-568.5646362304688,-21.21282386779785,53.225765228271484,21.56102180480957,78.5080795288086,16383.5,65535.0
13990.665756504952,88.79302215576172,360.663330078125,-48.01234817504883,-561.0699462890625,-28.554203033447266,42.970367431640625,14.953310012817383,72.83796691894531,16383.5,65535.0
13990.666156513582,-11.961387634277344,371.6326599121094,-39.13697052001953,-571.4725341796875,-22.857070922851562,48.945640563964844,20.9407901763916,77.40486145019531,16383.5,65535.0
13990.666556522212,-61.07218933105469,364.4462585449219,-2.6895389556884766,-587.0148315429688,-23.419675827026367,48.409019470214844,22.028776168823242,76.89657592773438,16383.5,65535.0
13990.666956530842,-66.91397094726562,360.022216796875,-1.420387864112854,-590.6878662109375,-26.79987335205078,42.3923225402832,17.906435012817383,73.1067123413086,16383.5,65535.0
13990.66735653947,-71.05318450927734,368.9345703125,-21.838878631591797,-606.9383544921875,-26.328489303588867,40.29787063598633,15.81052303314209,72.77720642089844,16383.5,65535.0
13990.6677565481,-26.935731887817383,359.9801940917969,-25.006654739379883,-606.4188232421875,-21.962881088256836,45.63380432128906,22.6794490814209,76.51859283447266,16383.5,65535.0
13990.66815655673,49.911720275878906,356.380615234375,-35.090248107910156,-605.2317504882812,-27.192852020263672,40.919246673583984,16.044713973999023,74.99203491210938,16383.5,65535.0
13990.66855656536,172.74603271484375,361.0653381347656,-40.244964599609375,-591.251953125,-23.250696182250977,44.53844451904297,20.931211471557617,80.52268981933594,16383.5,65535.0
13990.668956573989,322.6837463378906,359.10845947265625,-6.38578462600708,-578.8040161132812,-19.458147048950195,41.91585922241211,22.47153663635254,78.45081329345703,16383.5,65535.0
13990.669356582619,421.3890075683594,347.03997802734375,45.77274703979492,-572.0789184570312,-10.237746238708496,57.246971130371094,34.04811477661133,86.27186584472656,16383.5,65535.0
13990.66975659125,481.86968994140625,362.9184875488281,49.24678421020508,-579.3366088867188,-13.708600997924805,54.54132843017578,30.04458999633789,85.40119171142578,16383.5,65535.0
13990.67015659988,477.78094482421875,358.4980773925781,37.17657470703125,-575.8680419921875,-13.195280075073242,53.45645523071289,28.41301155090332,84.05402374267578,16383.5,65535.0
13990.670556608507,413.74200439453125,348.3616943359375,28.889097213745117,-566.2183837890625,-20.489246368408203,46.73515701293945,22.985183715820312,81.1452407836914,16383.5,65535.0
13990.670956617138,383.2906799316406,352.471435546875,19.158924102783203,-554.8444213867188,-20.873302459716797,48.200767517089844,23.120595932006836,80.80094146728516,16383.5,65535.0
13990.671356625768,403.1037292480469,354.94256591796875,-5.740063667297363,-550.5535278320312,-14.187173843383789,53.8548583984375,28.334564208984375,84.53070068359375,16383.5,65535.0
13990.671756634398,374.37066650390625,350.60546875,-34.49037170410156,-559.423095703125,-20.483665466308594,48.15065383911133,20.64594268798828,77.71968841552734,16383.5,65535.0
13990.672156643026,334.8997497558594,351.05743408203125,-46.81203079223633,-569.794677734375,-23.316701889038086,47.104698181152344,21.221477508544922,76.15093231201172,16383.5,65535.0
13990.672556651656,294.4295654296875,360.8546142578125,-52.647281646728516,-559.7147827148438,-10.82431697845459,62.20509719848633,34.930694580078125,88.77838897705078,16383.5,65535.0
13990.672956660286,261.65167236328125,361.3699645996094,-70.84629821777344,-551.97705078125,-16.85384178161621,54.70119857788086,25.68830108642578,81.6119155883789,16383.5,65535.0
13990.673356668916,287.0557556152344,356.9955749511719,-76.21111297607422,-543.1969604492188,-16.42672348022461,57.93134689331055,29.913602828979492,85.36135864257812,16383.5,65535.0
13990.673756677545,395.256103515625,357.5325012207031,-35.23044967651367,-545.2909545898438,-5.260629653930664,71.9368667602539,40.931156158447266,93.44290924072266,16383.5,65535.0
13990.674156686175,545.237548828125,352.0862121582031,29.808317184448242,-525.3186645507812,-4.991422653198242,69.80384826660156,39.25614547729492,92.01805877685547,16383.5,65535.0
13990.674556694805,628.8431396484375,357.6412048339844,72.73648834228516,-513.5421142578125,-4.525132656097412,73.37811279296875,39.23084259033203,95.05740356445312,16383.5,65535.0
13990.674956703435,623.416259765625,364.70587158203125,63.782039642333984,-508.9854431152344,0.4682892858982086,81.085693359375,45.2717399597168,100.6224136352539,16383.5,65535.0
13990.675356712063,581.1654052734375,343.911865234375,38.81071472167969,-504.1499328613281,-5.497454643249512,79.7050552368164,40.96822738647461,96.21405029296875,16383.5,65535.0
13990.675756720693,543.05859375,347.6341247558594,13.587224006652832,-502.7062072753906,2.021179437637329,85.19097137451172,44.89673614501953,100.59464263916016,16383.5,65535.0
13990.676156729323,565.7498779296875,355.0757141113281,10.530404090881348,-520.05712890625,-1.80238938331604,83.40326690673828,44.0970573425293,99.34195709228516,16383.5,65535.0
13990.676556737953,625.3419799804688,348.92230224609375,7.626980304718018,-529.7102661132812,2.3625972270965576,85.90431213378906,45.14185333251953,102.45793914794922,16383.5,65535.0
13990.676956746582,683.154296875,356.2060546875,-15.578811645507812,-530.782470703125,8.390607833862305,94.49556732177734,53.43114471435547,109.27766418457031,16383.5,65535.0
13990.677356755212,689.673095703125,358.119384765625,-10.721397399902344,-516.6214599609375,1.1791216135025024,90.95438385009766,47.936851501464844,101.23078918457031,16383.5,65535.0
13990.677756763842,631.3089599609375,357.2384338378906,-0.632738471031189,-506.4245300292969,8.40579891204834,96.60433959960938,50.707984924316406,107.7308120727539,16383.5,65535.0
13990.678156772472,539.114990234375,357.7467956542969,-11.38424015045166,-495.4432067871094,13.337910652160645,102.05382537841797,57.452178955078125,113.75882720947266,16383.5,65535.0
13990.6785567811,489.65423583984375,359.7124328613281,-8.194147109985352,-499.1943664550781,3.8397042751312256,92.16067504882812,48.2140007019043,101.27865600585938,16383.5,65535.0
13990.67895678973,478.930908203125,355.7925720214844,-15.945910453796387,-496.2916259765625,-3.371795177459717,85.07810974121094,41.59429168701172,95.7425308227539,16383.5,65535.0
13990.67935679836,450.14410400390625,359.37567138671875,-10.375982284545898,-489.16119384765625,4.934769630432129,94.32481384277344,52.00770568847656,108.26549530029297,16383.5,65535.0
13990.67975680699,425.43743896484375,363.9390563964844,0.5885493755340576,-502.9595031738281,-1.3148452043533325,89.85848999023438,44.06981658935547,98.44379425048828,16383.5,65535.0
13990.680156815619,416.6213684082031,361.891845703125,31.68058967590332,-502.3504333496094,-8.161672592163086,82.7908935546875,36.428836822509766,95.79801177978516,16383.5,65535.0
13990.680556824249,427.1590270996094,366.154541015625,37.55464172363281,-508.572998046875,6.707830905914307,93.32689666748047,49.307193756103516,104.41403198242188,16383.5,65535.0
13990.680956832879,439.2565612792969,359.0841369628906,35.61254119873047,-517.03076171875,3.1620147228240967,90.15372467041016,46.21432113647461,101.5953598022461,16383.5,65535.0
13990.68135684151,443.2871398925781,360.1562194824219,16.21994972229004,-516.1986694335938,1.4245930910110474,89.42672729492188,47.08832550048828,103.02703094482422,16383.5,65535.0
13990.681756850137,431.8937072753906,348.800048828125,-9.93074893951416,-510.8105773925781,0.13639210164546967,84.24523162841797,45.317108154296875,100.1897201538086,16383.5,65535.0
13990.682156858767,364.4405212402344,356.5289306640625,8.782825469970703,-497.9688415527344,-5.7915358543396,75.23815155029297,37.20180892944336,92.18108367919922,16383.5,65535.0
13990.682556867398,272.9212341308594,362.5672912597656,22.335617065429688,-490.29132080078125,-11.355374336242676,72.04544830322266,33.71052551269531,89.98914337158203,16383.5,65535.0
13990.682956876028,226.38665771484375,347.57501220703125,18.700319290161133,-467.6472473144531,-11.388909339904785,71.49688720703125,31.669795989990234,88.53186798095703,16383.5,65535.0
13990.683356884656,198.67404174804688,360.80389404296875,9.77928352355957,-456.5418701171875,-13.410470008850098,67.05375671386719,31.169286727905273,86.44880676269531,16383.5,65535.0
13990.683756893286,176.3731231689453,360.6167297363281,-0.15239308774471283,-452.54339599609375,-11.605864524841309,65.42872619628906,31.124658584594727,85.9170913696289,16383.5,65535.0
13990.684156901916,216.5656280517578,361.3436584472656,-16.288532257080078,-459.3123474121094,-12.186516761779785,66.84420776367188,33.24116516113281,90.07837677001953,16383.5,65535.0
13990.684556910546,259.7647399902344,357.16839599609375,-42.02467727661133,-478.0640869140625,-19.519102096557617,56.06702423095703,25.078094482421875,81.3410873413086,16383.5,65535.0
13990.684956919175,275.1960144042969,360.17742919921875,-28.634342193603516,-484.9842224121094,-27.748336791992188,46.293861389160156,17.11931610107422,72.44719696044922,16383.5,65535.0
13990.685356927805,253.2516632080078,365.5380859375,17.542224884033203,-479.472900390625,-32.169227600097656,38.424034118652344,13.630547523498535,69.0914077758789,16383.5,65535.0
13990.685756936435,223.76937866210938,360.79400634765625,35.584537506103516,-470.92608642578125,-22.690162658691406,46.894351959228516,23.224365234375,77.09684753417969,16383.5,65535.0
13990.686156945063,169.2762908935547,346.92840576171875,34.022823333740234,-453.5993347167969,-18.58386993408203,51.90226364135742,26.43278694152832,82.33993530273438,16383.5,65535.0
13990.686556953693,150.5996856689453,354.21221923828125,-15.221903800964355,-463.1452331542969,-26.272663116455078,45.75053024291992,19.039350509643555,76.1395034790039,16383.5,65535.0
13990.686956962323,140.63824462890625,354.2142028808594,-48.45032501220703,-480.6844482421875,-27.870458602905273,40.94526672363281,16.72637176513672,72.45105743408203,16383.5,65535.0
13990.687356970953,172.92724609375,353.39813232421875,-32.0047492980957,-495.3075256347656,-27.377445220947266,38.36202621459961,13.975959777832031,69.58899688720703,16383.5,65535.0
13990.687756979583,216.57029724121094,356.5686340332031,-13.444777488708496,-497.1199035644531,-27.635543823242188,40.1402702331543,18.111095428466797,71.33921813964844,16383.5,65535.0
13990.688156988212,253.42999267578125,352.8160095214844,13.45068359375,-497.4754638671875,-32.947959899902344,33.49822998046875,12.098648071289062,69.0276870727539,16383.5,65535.0
13990.688556996842,310.3729553222656,350.44146728515625,23.080854415893555,-504.74652099609375,-35.51055908203125,27.963756561279297,5.929540634155273,67.33827209472656,16383.5,65535.0
13990.688957005472,371.8858337402344,349.31890869140625,14.184219360351562,-526.541259765625,-31.166080474853516,29.790327072143555,12.825519561767578,67.47525024414062,16383.5,65535.0
13990.6893570141,425.2476806640625,342.25531005859375,13.372461318969727,-542.9606323242188,-28.62140464782715,33.266822814941406,15.46076488494873,72.52253723144531,16383.5,65535.0
13990.68975702273,410.832275390625,346.6053466796875,16.222881317138672,-547.4840087890625,-23.844465255737305,37.61500930786133,18.155683517456055,76.27050018310547,16383.5,65535.0
13990.69015703136,406.4379577636719,342.8955078125,40.020442962646484,-543.6575317382812,-38.20534133911133,26.959999084472656,5.954092502593994,62.12382888793945,16383.5,65535.0
13990.69055703999,497.6761169433594,347.5992126464844,52.707313537597656,-555.1715698242188,-37.83665466308594,24.101747512817383,7.239895343780518,58.97588348388672,16383.5,65535.0
13990.69095704862,548.9199829101562,347.09271240234375,24.134939193725586,-575.6808471679688,-38.48434829711914,25.07201385498047,7.315973281860352,63.23686599731445,16383.5,65535.0
13990.691357057249,586.5507202148438,358.5289611816406,-8.67305850982666,-584.1817626953125,-25.902301788330078,39.61497497558594,18.830867767333984,74.92301177978516,16383.5,65535.0
13990.691757065879,572.99951171875,349.8544921875,1.7366811037063599,-587.7977905273438,-24.66486930847168,42.18877029418945,21.37858772277832,73.46581268310547,16383.5,65535.0
13990.692157074509,550.2431640625,353.0887145996094,6.164115905761719,-593.126708984375,-20.180883407592773,48.731746673583984,24.999347686767578,79.97469329833984,16383.5,65535.0
13990.692557083137,608.525146484375,356.0784606933594,25.23716926574707,-580.4681396484375,-21.051237106323242,48.20810317993164,22.83741569519043,80.79997253417969,16383.5,65535.0
13990.692957091767,684.6920166015625,362.227294921875,36.83408737182617,-558.705078125,-22.481821060180664,47.311344146728516,22.72975730895996,76.08950805664062,16383.5,65535.0
13990.693357100397,740.3307495117188,358.634765625,10.919412612915039,-533.963134765625,-24.626564025878906,47.44287872314453,19.911714553833008,74.66876220703125,16383.5,65535.0
13990.693757109028,778.206298828125,347.13531494140625,9.940397262573242,-520.1697998046875,-23.809112548828125,46.673797607421875,21.163578033447266,75.50994110107422,16383.5,65535.0
13990.694157117658,793.4428100585938,345.1095886230469,1.2341192960739136,-502.9415588378906,-19.715518951416016,51.81467056274414,23.87549591064453,79.17227172851562,16383.5,65535.0
13990.694557126286,779.1048583984375,349.6698303222656,6.283598899841309,-506.72137451171875,-11.163980484008789,62.62004852294922,31.779531478881836,86.04573059082031,16383.5,65535.0
13990.694957134916,712.5182495117188,338.37591552734375,24.376968383789062,-518.410400390625,-4.6666412353515625,76.0242691040039,39.27299118041992,97.04100799560547,16383.5,65535.0
13990.695357143546,626.2476196289062,342.0776672363281,16.304487228393555,-516.8748168945312,-5.88478946685791,72.4757308959961,38.1391716003418,95.13042449951172,16383.5,65535.0
13990.695757152174,576.771728515625,340.9632263183594,3.7677464485168457,-529.4298095703125,-9.113203048706055,70.55628967285156,37.43149948120117,91.74822235107422,16383.5,65535.0
13990.696157160804,549.9464721679688,340.75042724609375,-11.051508903503418,-551.5471801757812,-18.479660034179688,65.93238830566406,28.9650936126709,82.49816131591797,16383.5,65535.0
13990.696557169435,552.8707885742188,336.91485595703125,-14.090923309326172,-546.0374755859375,-21.85539436340332,61.95427322387695,25.135347366333008,81.04837036132812,16383.5,65535.0
13990.696957178065,581.2713623046875,339.53851318359375,-2.454533815383911,-534.5665893554688,-12.62732982635498,66.69815826416016,30.915102005004883,85.94226837158203,16383.5,65535.0
13990.697357186693,568.329833984375,339.8900451660156,-22.834976196289062,-536.5343017578125,-10.136666297912598,70.60323333740234,32.400150299072266,88.26912689208984,16383.5,65535.0
13990.697757195323,529.9182739257812,343.3033142089844,-35.12743377685547,-523.2191162109375,-20.469810485839844,66.22517395019531,26.500200271606445,82.5659408569336,16383.5,65535.0
13990.698157203953,512.747314453125,338.6272277832031,-17.725357055664062,-492.79168701171875,-22.0621337890625,60.79860305786133,22.459238052368164,75.91180419921875,16383.5,65535.0
13990.698557212583,478.6517639160156,343.338134765625,-2.367886543273926,-504.54730224609375,-4.81168794631958,81.83478546142578,40.456520080566406,94.00833892822266,16383.5,65535.0
13990.698957221211,397.4202880859375,352.09747314453125,-18.692594528198242,-535.9954223632812,-10.84754753112793,77.12145233154297,34.166568756103516,90.08588409423828,16383.5,65535.0
13990.699357229842,315.8911437988281,347.63250732421875,-23.956748962402344,-542.0064086914062,-9.362504959106445,76.47895812988281,32.6639518737793,92.1301498413086,16383.5,65535.0
13990.699757238472,294.10272216796875,352.407470703125,-37.57499694824219,-554.1732177734375,-14.55274772644043,70.046630859375,29.007421493530273,85.11930847167969,16383.5,65535.0
13990.700157247102,268.2581481933594,351.2894287109375,-50.07941818237305,-551.8893432617188,-4.9767889976501465,79.29988098144531,39.5700798034668,96.04314422607422,16383.5,65535.0
13990.70055725573,225.0740966796875,352.88555908203125,-41.79050827026367,-550.04150390625,-5.000568866729736,82.61670684814453,39.994712829589844,94.64512634277344,16383.5,65535.0
13990.70095726436,264.7499694824219,349.5645446777344,-27.784971237182617,-556.595947265625,-2.7005808353424072,83.30758666992188,39.30584716796875,96.21881103515625,16383.5,65535.0
13990.70135727299,347.12420654296875,345.13336181640625,-4.817740440368652,-579.115966796875,-17.25593376159668,68.40989685058594,25.369462966918945,83.37431335449219,16383.5,65535.0
13990.70175728162,416.7314758300781,345.1802062988281,15.861591339111328,-584.48291015625,-17.881229400634766,63.516822814941406,23.886629104614258,81.80938720703125,16383.5,65535.0
13990.702157290249,490.76690673828125,351.39288330078125,21.185956954956055,-592.3416137695312,-8.535043716430664,71.1390380859375,32.64140319824219,91.81800079345703,16383.5,65535.0
13990.702557298879,557.3955078125,345.0754699707031,44.321659088134766,-608.3446655273438,-13.975258827209473,64.42007446289062,29.772205352783203,84.3935775756836,16383.5,65535.0
13990.702957307509,577.3369750976562,346.9097595214844,73.12976837158203,-594.9161987304688,-13.850626945495605,63.76557922363281,30.377145767211914,86.75302124023438,16383.5,65535.0
13990.703357316139,601.0934448242188,352.83502197265625,51.90351104736328,-577.052734375,-15.374980926513672,64.16246032714844,32.158973693847656,83.93695068359375,16383.5,65535.0
13990.703757324767,641.188720703125,349.7543640136719,45.072330474853516,-572.2344970703125,-22.070341110229492,61.92506408691406,26.433422088623047,81.5142822265625,16383.5,65535.0
13990.704157333397,671.2518920898438,342.5558166503906,77.59610748291016,-562.6156005859375,-20.89336585998535,61.0457878112793,25.061010360717773,83.09905242919922,16383.5,65535.0
13990.704557342027,666.5914916992188,355.51678466796875,117.0738296508789,-562.978271484375,-10.570759773254395,65.49919128417969,32.30914306640625,89.48950958251953,16383.5,65535.0
13990.704957350657,610.6043701171875,360.17059326171875,120.79720306396484,-561.7468872070312,-13.763200759887695,64.67897033691406,31.12268829345703,86.72010803222656,16383.5,65535.0
13990.705357359286,546.385986328125,353.9359130859375,65.2082290649414,-577.9505004882812,-21.023210525512695,56.60724639892578,23.12565803527832,81.97310638427734,16383.5,65535.0
13990.705757367916,512.3424682617188,354.50054931640625,3.7742502689361572,-593.1060791015625,-23.307220458984375,45.7214469909668,18.81958770751953,75.06727600097656,16383.5,65535.0
13990.706157376546,490.5930480957031,363.39691162109375,-6.932312488555908,-579.388916015625,-22.13232421875,46.12006378173828,19.347110748291016,76.62928771972656,16383.5,65535.0
13990.706557385176,514.1962280273438,358.7662658691406,5.1691765785217285,-573.6952514648438,-19.41855812072754,52.65965270996094,23.674896240234375,81.20967102050781,16383.5,65535.0
13990.706957393804,577.1126708984375,362.3857727050781,8.83079719543457,-578.1151733398438,-29.69194793701172,41.3864631652832,15.909544944763184,72.08089447021484,16383.5,65535.0
13990.707357402434,619.9335327148438,362.6509094238281,3.637075185775757,-572.1651000976562,-32.14558410644531,33.03068923950195,13.214934349060059,66.14868927001953,16383.5,65535.0
13990.707757411064,635.389892578125,361.5479431152344,31.114086151123047,-560.5741577148438,-34.32829284667969,32.033164978027344,9.716352462768555,66.38479614257812,16383.5,65535.0
13990.708157419695,643.9246215820312,362.4013977050781,52.54971694946289,-547.7899169921875,-34.226341247558594,33.240631103515625,11.78756046295166,67.25452423095703,16383.5,65535.0
13990.708557428323,634.416259765625,351.9866638183594,23.3647518157959,-531.278564453125,-22.528837203979492,46.025909423828125,22.553281784057617,79.42991638183594,16383.5,65535.0
13990.708957436953,592.2850341796875,348.4151306152344,39.49000549316406,-526.6924438476562,-21.612085342407227,46.47867202758789,21.369613647460938,78.61983489990234,16383.5,65535.0
13990.709357445583,575.2240600585938,350.5724182128906,32.90509033203125,-530.4511108398438,-19.601726531982422,46.644222259521484,23.749317169189453,79.89947509765625,16383.5,65535.0
13990.709757454213,557.9198608398438,349.6855163574219,-38.43187713623047,-526.5717163085938,-27.308923721313477,41.63646697998047,17.97265625,73.73346710205078,16383.5,65535.0
13990.710157462841,516.4549560546875,352.0516357421875,-81.96461486816406,-519.9774169921875,-34.31189727783203,33.803672790527344,11.005911827087402,67.2658920288086,16383.5,65535.0
13990.710557471471,505.0229797363281,341.0826110839844,-83.8599853515625,-512.9428100585938,-33.13288879394531,30.35332489013672,8.316751480102539,64.5298080444336,16383.5,65535.0
13990.710957480102,478.472900390625,337.676025390625,-44.67927932739258,-511.5167236328125,-25.059419631958008,41.7098388671875,18.6127872467041,73.49031829833984,16383.5,65535.0
13990.711357488732,466.310791015625,337.2818298339844,1.916890263557434,-495.0828552246094,-26.799564361572266,41.08629608154297,18.717952728271484,73.73113250732422,16383.5,65535.0
13990.71175749736,465.8767395019531,332.9715576171875,-9.096118927001953,-481.18292236328125,-25.25052261352539,43.03436279296875,18.201400756835938,75.43289947509766,16383.5,65535.0
13990.71215750599,483.3078308105469,338.8873291015625,-31.146869659423828,-483.7440185546875,-18.66423225402832,50.04081344604492,23.271970748901367,80.06974029541016,16383.5,65535.0
13990.71255751462,526.595703125,345.80999755859375,-6.9174346923828125,-489.10235595703125,-30.84494400024414,38.91902542114258,13.02450180053711,69.74977111816406,16383.5,65535.0
13990.71295752325,556.80419921875,354.4412841796875,13.02153205871582,-486.8548278808594,-23.44687843322754,44.920074462890625,19.083580017089844,76.74217224121094,16383.5,65535.0
13990.713357531879,569.749755859375,346.356201171875,22.268205642700195,-489.9045715332031,-26.993528366088867,43.94538497924805,18.449403762817383,72.0712661743164,16383.5,65535.0
13990.713757540509,545.5509033203125,346.1372375488281,45.66600036621094,-485.8206481933594,-31.28180694580078,42.295570373535156,13.802508354187012,68.0528335571289,16383.5,65535.0
13990.714157549139,489.45440673828125,342.2090148925781,49.93800735473633,-495.35577392578125,-28.20567512512207,43.215309143066406,14.71570873260498,73.67821502685547,16383.5,65535.0
