time,X_NOSE,Y_NOSE,Z_NOSE,visibility_NOSE,X_LEFT_EYE_INNER,Y_LEFT_EYE_INNER,Z_LEFT_EYE_INNER,visibility_LEFT_EYE_INNER,X_LEFT_EYE,Y_LEFT_EYE,Z_LEFT_EYE,visibility_LEFT_EYE,X_LEFT_EYE_OUTER,Y_LEFT_EYE_OUTER,Z_LEFT_EYE_OUTER,visibility_LEFT_EYE_OUTER,X_RIGHT_EYE_OUTER,Y_RIGHT_EYE_OUTER,Z_RIGHT_EYE_OUTER,visibility_RIGHT_EYE_OUTER,X_RIGHT_EYE,Y_RIGHT_EYE,Z_RIGHT_EYE,visibility_RIGHT_EYE,X_RIGHT_EYE_OUTER,Y_RIGHT_EYE_OUTER,Z_RIGHT_EYE_OUTER,visibility_RIGHT_EYE_OUTER,X_LEFT_EAR,Y_LEFT_EAR,Z_LEFT_EAR,visibility_LEFT_EAR,X_RIGHT_EAR,Y_RIGHT_EAR,Z_RIGHT_EAR,visibility_RIGHT_EAR,X_MOUTH_LEFT,Y_MOUTH_LEFT,Z_MOUTH_LEFT,visibility_MOUTH_LEFT,X_MOUTH_RIGHT,Y_MOUTH_RIGHT,Z_MOUTH_RIGHT,visibility_MOUTH_RIGHT,X_LEFT_SHOULDER,Y_LEFT_SHOULDER,Z_LEFT_SHOULDER,visibility_LEFT_SHOULDER,X_RIGHT_SHOULDER,Y_RIGHT_SHOULDER,Z_RIGHT_SHOULDER,visibility_RIGHT_SHOULDER,X_LEFT_ELBOW,Y_LEFT_ELBOW,Z_LEFT_ELBOW,visibility_LEFT_ELBOW,X_RIGHT_ELBOW,Y_RIGHT_ELBOW,Z_RIGHT_ELBOW,visibility_RIGHT_ELBOW,X_LEFT_WRIST,Y_LEFT_WRIST,Z_LEFT_WRIST,visibility_LEFT_WRIST,X_RIGHT_WRIST,Y_RIGHT_WRIST,Z_RIGHT_WRIST,visibility_RIGHT_WRIST,X_LEFT_PINKY,Y_LEFT_PINKY,Z_LEFT_PINKY,visibility_LEFT_PINKY,X_RIGHT_PINKY,Y_RIGHT_PINKY,Z_RIGHT_PINKY,visibility_RIGHT_PINKY,X_LEFT_INDEX,Y_LEFT_INDEX,Z_LEFT_INDEX,visibility_LEFT_INDEX,X_RIGHT_INDEX,Y_RIGHT_INDEX,Z_RIGHT_INDEX,visibility_RIGHT_INDEX,X_LEFT_THUMB,Y_LEFT_THUMB,Z_LEFT_THUMB,visibility_LEFT_THUMB,X_RIGHT_THUMB,Y_RIGHT_THUMB,Z_RIGHT_THUMB,visibility_RIGHT_THUMB,X_LEFT_HIP,Y_LEFT_HIP,Z_LEFT_HIP,visibility_LEFT_HIP,X_RIGHT_HIP,Y_RIGHT_HIP,Z_RIGHT_HIP,visibility_RIGHT_HIP,X_LEFT_KNEE,Y_LEFT_KNEE,Z_LEFT_KNEE,visibility_LEFT_KNEE,X_RIGHT_KNEE,Y_RIGHT_KNEE,Z_RIGHT_KNEE,visibility_RIGHT_KNEE,X_LEFT_ANKLE,Y_LEFT_ANKLE,Z_LEFT_ANKLE,visibility_LEFT_ANKLE,X_RIGHT_ANKLE,Y_RIGHT_ANKLE,Z_RIGHT_ANKLE,visibility_RIGHT_ANKLE,X_LEFT_HEEL,Y_LEFT_HEEL,Z_LEFT_HEEL,visibility_LEFT_HEEL,X_RIGHT_HEEL,Y_RIGHT_HEEL,Z_RIGHT_HEEL,visibility_RIGHT_HEEL,X_LEFT_FOOT_INDEX,Y_LEFT_FOOT_INDEX,Z_LEFT_FOOT_INDEX,visibility_LEFT_FOOT_INDEX,X_RIGHT_FOOT_INDEX,Y_RIGHT_FOOT_INDEX,Z_RIGHT_FOOT_INDEX,visibility_RIGHT_FOOT_INDEX
19445.990560639337,0.4558284282684326,0.23327317833900452,-0.8193928003311157,0.9999771118164062,0.4574018716812134,0.21060249209403992,-0.7592600584030151,0.9999614953994751,0.4640451669692993,0.20968937873840332,-0.7595498561859131,0.9999591112136841,0.4701623022556305,0.20856070518493652,-0.7596980333328247,0.9999567270278931,0.427879273891449,0.2116127908229828,-0.795394241809845,0.9999531507492065,0.41211429238319397,0.21088877320289612,-0.7955201268196106,0.9999449253082275,0.3928453326225281,0.21057191491127014,-0.7955993413925171,0.9999345541000366,0.45388999581336975,0.21331629157066345,-0.4021878242492676,0.9999613761901855,0.34052467346191406,0.21864467859268188,-0.5819739699363708,0.9999301433563232,0.46085572242736816,0.25443676114082336,-0.6846469640731812,0.9999819993972778,0.430881142616272,0.2571883201599121,-0.73551344871521,0.9999768733978271,0.5370345711708069,0.3503212332725525,-0.22468328475952148,0.9999136924743652,0.19662977755069733,0.3651443421840668,-0.3815727233886719,0.9995493292808533,0.5802980065345764,0.5094384551048279,-0.07942347228527069,0.9795997142791748,0.17567984759807587,0.5204746723175049,-0.5304015278816223,0.9384360909461975,0.6383534669876099,0.6412906050682068,-0.3984608054161072,0.983176589012146,0.06327751278877258,0.5346640348434448,-1.1004159450531006,0.9567264318466187,0.6580469608306885,0.6841533780097961,-0.48905929923057556,0.9680113196372986,0.021763265132904053,0.5319164395332336,-1.2174878120422363,0.9525725245475769,0.6442240476608276,0.6851021647453308,-0.5908564925193787,0.9714623093605042,0.005061328411102295,0.5179226994514465,-1.317602515220642,0.9587655663490295,0.6319555044174194,0.6765307784080505,-0.4460243284702301,0.9729148745536804,0.028473464772105217,0.5165880918502808,-1.1576051712036133,0.9551547169685364,0.49505239725112915,0.6369790434837341,0.0635024905204773,0.9972947239875793,0.3181403875350952,0.6531718969345093,-0.06315622478723526,0.9976992011070251,0.48273682594299316,0.8457075953483582,0.21598096191883087,0.9772244691848755,0.33284926414489746,0.8786218762397766,0.03141326457262039,0.972751796245575,0.48136866092681885,0.9602880477905273,0.9523991942405701,0.9285532832145691,0.3551050126552582,0.9958796501159668,0.610431432723999,0.9317018389701843,0.4636620581150055,0.9724321365356445,1.0050908327102661,0.8702247142791748,0.356251060962677,0.9962949156761169,0.6492183804512024,0.6781415343284607,0.5359189510345459,1.0257545709609985,0.7238587141036987,0.8995763659477234,0.36687105894088745,1.091292142868042,0.2601044774055481,0.8591943383216858
19462.657227306005,0.4569065570831299,0.23249894380569458,-0.8469681143760681,0.9999852180480957,0.4583524763584137,0.2091575562953949,-0.7861368656158447,0.999977707862854,0.4649328887462616,0.2080957591533661,-0.7864264249801636,0.9999767541885376,0.4708428680896759,0.20689335465431213,-0.7865443825721741,0.9999749660491943,0.42933347821235657,0.21061363816261292,-0.8220639824867249,0.9999722242355347,0.41362541913986206,0.21007347106933594,-0.822126567363739,0.999967098236084,0.3943898677825928,0.20990625023841858,-0.8221800327301025,0.9999586343765259,0.45350924134254456,0.21187612414360046,-0.42141276597976685,0.9999796152114868,0.3404780626296997,0.21809741854667664,-0.5999114513397217,0.9999618530273438,0.4613755941390991,0.2540944814682007,-0.7094752192497253,0.9999896287918091,0.4311624765396118,0.25676456093788147,-0.7598962187767029,0.9999864101409912,0.5367278456687927,0.34974825382232666,-0.23310966789722443,0.9999330043792725,0.19320324063301086,0.36390575766563416,-0.4000917673110962,0.9996065497398376,0.5809358954429626,0.509945273399353,-0.089024618268013,0.9811081290245056,0.1728002429008484,0.5220730304718018,-0.570260763168335,0.936290979385376,0.6394063234329224,0.6414647698402405,-0.42313486337661743,0.9844304919242859,0.062441468238830566,0.5371587872505188,-1.1807804107666016,0.9528529644012451,0.6566625237464905,0.6839399933815002,-0.519828200340271,0.9701630473136902,0.021995902061462402,0.5339823961257935,-1.3055154085159302,0.9501973986625671,0.6426196098327637,0.6847136616706848,-0.6211533546447754,0.9735571146011353,0.016379594802856445,0.5167908668518066,-1.4097239971160889,0.9569882750511169,0.6309614181518555,0.6759592890739441,-0.4711496829986572,0.9749309420585632,0.033512115478515625,0.517457127571106,-1.2407736778259277,0.9541455507278442,0.4929252564907074,0.6357924342155457,0.0659925639629364,0.9971808195114136,0.3181759715080261,0.6515671014785767,-0.06543370336294174,0.9976245760917664,0.48177504539489746,0.8438577055931091,0.2689095735549927,0.9749339818954468,0.3354305922985077,0.8739663362503052,0.0653374120593071,0.9702085852622986,0.48661452531814575,0.9617490172386169,0.9730833172798157,0.9177234172821045,0.3556174635887146,0.9924703240394592,0.6192449331283569,0.9107258319854736,0.4693853557109833,0.9731007814407349,1.0219086408615112,0.8632977604866028,0.3542451560497284,0.9924846291542053,0.6558234095573425,0.661210834980011,0.5389905571937561,1.0264322757720947,0.7327945828437805,0.8722229599952698,0.37412533164024353,1.0888780355453491,0.2655094563961029,0.8066999316215515
19479.323893972673,0.4577784240245819,0.23228862881660461,-0.8624393939971924,0.9999817609786987,0.45768049359321594,0.20878607034683228,-0.8020746111869812,0.9999731779098511,0.4640527665615082,0.20761537551879883,-0.8023697137832642,0.999971866607666,0.4699159860610962,0.20627236366271973,-0.8025164604187012,0.9999688863754272,0.4289797842502594,0.21039018034934998,-0.83900386095047,0.9999661445617676,0.41331836581230164,0.20985999703407288,-0.8390992283821106,0.9999603033065796,0.3941231369972229,0.20969995856285095,-0.8391805291175842,0.9999504089355469,0.45172742009162903,0.21120235323905945,-0.43526002764701843,0.999976634979248,0.34049031138420105,0.21820494532585144,-0.6181857585906982,0.9999563694000244,0.4623660445213318,0.2537205219268799,-0.7232730388641357,0.9999877214431763,0.4327980875968933,0.2566669285297394,-0.7750635743141174,0.9999840259552002,0.5365079641342163,0.3499130606651306,-0.24138890206813812,0.9999264478683472,0.1924595832824707,0.36571699380874634,-0.4128108620643616,0.9995385408401489,0.5782727599143982,0.5111915469169617,-0.08919394761323929,0.9782490730285645,0.17077068984508514,0.5266528129577637,-0.5958520770072937,0.9300289154052734,0.640508770942688,0.641727864742279,-0.4197774827480316,0.9823102355003357,0.06133025512099266,0.5309571027755737,-1.2152106761932373,0.9520877599716187,0.6580439805984497,0.6843739748001099,-0.5127043724060059,0.9671186208724976,0.01827499270439148,0.528390109539032,-1.3390812873840332,0.949747622013092,0.6440826654434204,0.6852529048919678,-0.6126940250396729,0.970844030380249,0.0048961639404296875,0.5124709606170654,-1.4384360313415527,0.9564788341522217,0.63222736120224,0.6763780117034912,-0.46698546409606934,0.9726405143737793,0.03184136748313904,0.5110843777656555,-1.2729929685592651,0.9529650211334229,0.4944808781147003,0.6377039551734924,0.06438374519348145,0.9972666501998901,0.3171394169330597,0.6552228927612305,-0.06389156728982925,0.9975000023841858,0.48058485984802246,0.8471583127975464,0.23729096353054047,0.9721511006355286,0.3346342146396637,0.8795902729034424,0.06172465160489082,0.9628102779388428,0.4897270202636719,0.9628519415855408,1.0011794567108154,0.9024802446365356,0.3542824983596802,0.9948451519012451,0.668487012386322,0.89480060338974,0.47429797053337097,0.9731788635253906,1.0565203428268433,0.8424394130706787,0.3566198945045471,0.9931413531303406,0.7112854719161987,0.6266143321990967,0.5528336763381958,1.0388972759246826,0.769100546836853,0.853729248046875,0.36988574266433716,1.0927226543426514,0.31945857405662537,0.7854491472244263
19495.99056063934,0.45682767033576965,0.23176205158233643,-0.8446183204650879,0.999987006187439,0.4575587213039398,0.20820418000221252,-0.7825646996498108,0.999980092048645,0.4641411304473877,0.20713070034980774,-0.7828689813613892,0.9999791383743286,0.47030630707740784,0.20596635341644287,-0.7829973697662354,0.9999774694442749,0.4274801015853882,0.2093912959098816,-0.8167809844017029,0.9999744892120361,0.41135895252227783,0.20878678560256958,-0.8168464303016663,0.9999697208404541,0.39183512330055237,0.20843198895454407,-0.8168976902961731,0.9999617338180542,0.454796701669693,0.21107953786849976,-0.4177176356315613,0.9999818801879883,0.3402785062789917,0.217465341091156,-0.5891299843788147,0.9999630451202393,0.46221616864204407,0.2533425986766815,-0.7076202630996704,0.9999904632568359,0.4316122531890869,0.25627025961875916,-0.7560811638832092,0.9999872446060181,0.5369923114776611,0.3502397835254669,-0.2404186874628067,0.9999380111694336,0.1951379030942917,0.36582106351852417,-0.38391241431236267,0.9995408058166504,0.579688310623169,0.5107080936431885,-0.10035989433526993,0.9823365807533264,0.16914832592010498,0.5229612588882446,-0.5671067833900452,0.9250011444091797,0.6407685279846191,0.6417829990386963,-0.43078556656837463,0.9861162304878235,0.06273958086967468,0.5342013835906982,-1.195665717124939,0.9478592276573181,0.6573615074157715,0.6839045286178589,-0.5257393717765808,0.9734420776367188,0.019591599702835083,0.5302088260650635,-1.3205325603485107,0.9458069801330566,0.643884539604187,0.6844850778579712,-0.6249376535415649,0.9764413833618164,0.005756258964538574,0.5146054029464722,-1.4207276105880737,0.9530612826347351,0.6326417326927185,0.6755975484848022,-0.4773558974266052,0.9774788618087769,0.03280794620513916,0.513697624206543,-1.2544916868209839,0.9499539136886597,0.49238014221191406,0.6373642086982727,0.05720415338873863,0.9974626302719116,0.3157374858856201,0.6526257991790771,-0.05671457201242447,0.9976208806037903,0.4824480712413788,0.8430342078208923,0.24942819774150848,0.9755169749259949,0.33454716205596924,0.8739497065544128,0.08193324506282806,0.9693000912666321,0.48660287261009216,0.9607527852058411,0.9741590619087219,0.9204720854759216,0.3578057289123535,0.9912892580032349,0.6629157066345215,0.915133535861969,0.4698488414287567,0.971457839012146,1.0255427360534668,0.8661408424377441,0.3574865460395813,0.991034746170044,0.7028757333755493,0.6706485748291016,0.537651777267456,1.027304768562317,0.7430223822593689,0.8802017569541931,0.37341636419296265,1.0865683555603027,0.320730596780777,0.819362461566925
19512.65722730601,0.45263662934303284,0.23124316334724426,-0.8631165027618408,0.999984622001648,0.4543769359588623,0.2075868844985962,-0.8025386929512024,0.9999765157699585,0.4615330994129181,0.20639994740486145,-0.8028216361999512,0.9999755620956421,0.4684489965438843,0.20519793033599854,-0.8029524683952332,0.999974250793457,0.42272186279296875,0.208957701921463,-0.8342044949531555,0.9999691247940063,0.4052850902080536,0.20854195952415466,-0.8342385292053223,0.999963641166687,0.3860352635383606,0.20836448669433594,-0.8342757225036621,0.9999536275863647,0.45601728558540344,0.21073031425476074,-0.43873727321624756,0.9999772310256958,0.3370284140110016,0.2179146707057953,-0.5984987616539001,0.9999507665634155,0.46013838052749634,0.25303444266319275,-0.7261866927146912,0.9999880790710449,0.42829155921936035,0.2559797763824463,-0.7711843848228455,0.9999833106994629,0.5353230834007263,0.347562313079834,-0.25076645612716675,0.9999327659606934,0.1988462209701538,0.36302658915519714,-0.3932305872440338,0.9994198083877563,0.5792317986488342,0.507803738117218,-0.10732456296682358,0.9795570373535156,0.1761578768491745,0.5213593244552612,-0.5773807764053345,0.8945381045341492,0.6401849985122681,0.6410037875175476,-0.41899022459983826,0.9823756814002991,0.06852468848228455,0.5314931869506836,-1.193908452987671,0.9158421754837036,0.6567752957344055,0.6832128763198853,-0.5108465552330017,0.967022180557251,0.023622870445251465,0.5265857577323914,-1.3168193101882935,0.9161044359207153,0.6428421139717102,0.684476375579834,-0.6087182760238647,0.970737636089325,0.023464590311050415,0.5092519521713257,-1.4145482778549194,0.9266644716262817,0.6318023204803467,0.675394594669342,-0.4646030366420746,0.9721001386642456,0.04968860745429993,0.5056042075157166,-1.251630187034607,0.9237731099128723,0.4937668442726135,0.6333833336830139,0.06369593739509583,0.9973704814910889,0.31996622681617737,0.6502914428710938,-0.06322972476482391,0.9974244832992554,0.4861600399017334,0.8330445885658264,0.2659115493297577,0.9731112122535706,0.33808913826942444,0.8652546405792236,0.07048531621694565,0.9714432954788208,0.4839303493499756,0.9546394348144531,0.9632768034934998,0.9271509647369385,0.3561761677265167,0.9855265021324158,0.6205004453659058,0.9254893064498901,0.46521884202957153,0.9688704609870911,1.011432409286499,0.8662132024765015,0.35494619607925415,0.9877873063087463,0.6571025848388672,0.6886730790138245,0.5450212955474854,1.0184051990509033,0.7279801368713379,0.8859498500823975,0.3689834773540497,1.079298973083496,0.27749237418174744,0.8342717289924622
19529.323893972676,0.4557160437107086,0.23177441954612732,-0.8106165528297424,0.9999822378158569,0.4558621942996979,0.20907381176948547,-0.7520866990089417,0.9999722242355347,0.4623573124408722,0.20808222889900208,-0.7523860931396484,0.9999709129333496,0.468625009059906,0.20707473158836365,-0.7525621056556702,0.9999690055847168,0.425990492105484,0.2100714147090912,-0.7882038354873657,0.9999644756317139,0.40948766469955444,0.20955795049667358,-0.7882676124572754,0.9999575614929199,0.3896271288394928,0.20928028225898743,-0.7883414030075073,0.9999475479125977,0.4528960585594177,0.21275711059570312,-0.3948834240436554,0.9999756813049316,0.3388652205467224,0.21853333711624146,-0.5749647617340088,0.9999508857727051,0.46103930473327637,0.25296396017074585,-0.6746752858161926,0.9999873638153076,0.4313715398311615,0.25638434290885925,-0.7256354093551636,0.9999828338623047,0.534743070602417,0.3476710319519043,-0.21081404387950897,0.9999345541000366,0.19369643926620483,0.3621445596218109,-0.37479424476623535,0.999560534954071,0.5795654654502869,0.5068663358688354,-0.0615963451564312,0.9805237054824829,0.1688900589942932,0.521905779838562,-0.5536000728607178,0.9320983290672302,0.64186692237854,0.6440808176994324,-0.3822397291660309,0.9839866161346436,0.06702175736427307,0.5342838764190674,-1.1611131429672241,0.951503574848175,0.6591989994049072,0.6861135959625244,-0.4745115041732788,0.9696457386016846,0.024175554513931274,0.5341199040412903,-1.2830709218978882,0.9490064978599548,0.6439516544342041,0.6869308352470398,-0.5760694742202759,0.9730594158172607,0.019855797290802002,0.5179091691970825,-1.3829034566879272,0.9558030366897583,0.632257342338562,0.6782785654067993,-0.42961812019348145,0.9745233058929443,0.03681269288063049,0.5168144106864929,-1.218796968460083,0.952346920967102,0.4962100088596344,0.6345950961112976,0.05976175516843796,0.9971405267715454,0.3184569776058197,0.6519540548324585,-0.059212591499090195,0.9975301623344421,0.48095187544822693,0.8496015071868896,0.2048989087343216,0.9733267426490784,0.3354819416999817,0.8790906667709351,0.022714391350746155,0.9624563455581665,0.48708704113960266,0.9615628719329834,0.9471930265426636,0.8985334634780884,0.35514694452285767,0.9958702921867371,0.5869605541229248,0.8941020965576172,0.47089219093322754,0.9725657105445862,1.0002976655960083,0.8360720872879028,0.3837810158729553,1.0267521142959595,0.6249340772628784,0.6115783452987671,0.549014687538147,1.038200855255127,0.715194582939148,0.8412375450134277,0.3637586832046509,1.0957427024841309,0.23107293248176575,0.776494562625885
19545.990560639344,0.45570218563079834,0.23191839456558228,-0.8406059741973877,0.9999852180480957,0.45689383149147034,0.2088049352169037,-0.7789500951766968,0.9999765157699585,0.4636518955230713,0.2077140212059021,-0.7792335152626038,0.9999756813049316,0.4701656401157379,0.20654380321502686,-0.7793520092964172,0.9999737739562988,0.4264877140522003,0.2100963592529297,-0.8126974105834961,0.9999701976776123,0.4101109802722931,0.20958182215690613,-0.8127519488334656,0.9999657869338989,0.3903331756591797,0.2092604637145996,-0.8127937912940979,0.9999569654464722,0.45519599318504333,0.21200186014175415,-0.4144856631755829,0.9999768733978271,0.33917927742004395,0.2180730104446411,-0.583483099937439,0.9999547004699707,0.46163156628608704,0.25370219349861145,-0.7034983038902283,0.9999879598617554,0.43111661076545715,0.25664421916007996,-0.7512145042419434,0.9999839067459106,0.535776674747467,0.3489316403865814,-0.23151999711990356,0.999931812286377,0.19808270037174225,0.3645898103713989,-0.37619999051094055,0.9995050430297852,0.5785654187202454,0.5075732469558716,-0.08482606709003448,0.9794648289680481,0.17529626190662384,0.5202641487121582,-0.5516411662101746,0.9153808951377869,0.6399446725845337,0.6435710191726685,-0.40116170048713684,0.9817684888839722,0.06588318943977356,0.5355589389801025,-1.1680201292037964,0.9353999495506287,0.6566586494445801,0.6854325532913208,-0.49187424778938293,0.9658322930335999,0.019745975732803345,0.5318503379821777,-1.290431261062622,0.9331361055374146,0.6430791616439819,0.6866596341133118,-0.5906397700309753,0.9696832895278931,0.018306344747543335,0.5147664546966553,-1.389658808708191,0.9418744444847107,0.6320674419403076,0.6778382658958435,-0.4474610686302185,0.9712381362915039,0.034481316804885864,0.5150130391120911,-1.2261474132537842,0.9387146830558777,0.49526193737983704,0.6331323385238647,0.05691829323768616,0.9973129630088806,0.3199465274810791,0.6501001119613647,-0.05647696182131767,0.9974743723869324,0.48507052659988403,0.8344096541404724,0.24508582055568695,0.9754819273948669,0.3368353545665741,0.8642828464508057,0.06639950722455978,0.9693651795387268,0.48273637890815735,0.954673707485199,0.9590001106262207,0.9269709587097168,0.3558034300804138,0.9846948981285095,0.6261612176895142,0.9215711951255798,0.46437543630599976,0.9677463173866272,1.008704662322998,0.8603159785270691,0.35532981157302856,0.9870213270187378,0.6634211540222168,0.674197256565094,0.5407774448394775,1.0193226337432861,0.7234591245651245,0.8878607749938965,0.36466583609580994,1.0800989866256714,0.2811255156993866,0.8340681791305542
19562.657227306012,0.456369012594223,0.23193079233169556,-0.8365219831466675,0.9999855756759644,0.45740142464637756,0.20861265063285828,-0.7748527526855469,0.9999772310256958,0.464108407497406,0.20745819807052612,-0.7751380205154419,0.999976396560669,0.4705211818218231,0.2062193751335144,-0.7752620577812195,0.9999747276306152,0.4272695779800415,0.21014156937599182,-0.8088191151618958,0.9999707937240601,0.4109622538089752,0.2097173035144806,-0.8088603615760803,0.999966025352478,0.39111456274986267,0.20949241518974304,-0.8088975548744202,0.9999574422836304,0.4548397660255432,0.21154767274856567,-0.4124581217765808,0.9999780654907227,0.3394280672073364,0.21831095218658447,-0.5822511315345764,0.9999556541442871,0.4621342718601227,0.25377944111824036,-0.7003536820411682,0.9999885559082031,0.4316309988498688,0.2567075490951538,-0.748286247253418,0.9999843835830688,0.5360559821128845,0.3489067852497101,-0.23368655145168304,0.9999353885650635,0.19818514585494995,0.364971399307251,-0.37658610939979553,0.9994856119155884,0.5788984298706055,0.5079774260520935,-0.08779462426900864,0.9798707962036133,0.17278693616390228,0.5216501951217651,-0.5527928471565247,0.9161362648010254,0.6400649547576904,0.643250584602356,-0.4015986919403076,0.9824184775352478,0.06330326199531555,0.5371237993240356,-1.1661113500595093,0.9362313151359558,0.6567456126213074,0.685269832611084,-0.49234315752983093,0.9669346809387207,0.018559396266937256,0.5324854254722595,-1.2884926795959473,0.9337618350982666,0.6432477831840515,0.6864432692527771,-0.5910947322845459,0.9706432819366455,0.016009241342544556,0.5154889225959778,-1.3877121210098267,0.9424182176589966,0.632150411605835,0.6776012182235718,-0.44792622327804565,0.9721651673316956,0.032702118158340454,0.5162410736083984,-1.2243390083312988,0.9394946694374084,0.49558743834495544,0.6336966156959534,0.054441142827272415,0.9974358677864075,0.3203611671924591,0.6504486799240112,-0.053985513746738434,0.9974654912948608,0.48535528779029846,0.8365193009376526,0.23723632097244263,0.9769296646118164,0.33700039982795715,0.865097165107727,0.07502855360507965,0.9689978957176208,0.48370641469955444,0.9554924964904785,0.9522033333778381,0.9275711178779602,0.35638561844825745,0.9844883680343628,0.6462556719779968,0.9190496206283569,0.46590062975883484,0.9676768183708191,1.0018837451934814,0.8581545352935791,0.3565606474876404,0.9865422248840332,0.6848801970481873,0.6682236790657043,0.5387904047966003,1.0205967426300049,0.7148029804229736,0.8864067792892456,0.36422035098075867,1.08000648021698,0.3045923411846161,0.8296720385551453
19579.32389397268,0.45313894748687744,0.23046350479125977,-0.7825632095336914,0.9999877214431763,0.45402392745018005,0.20837584137916565,-0.7218689322471619,0.9999814033508301,0.46123063564300537,0.20750278234481812,-0.7221896052360535,0.9999799728393555,0.4681868255138397,0.2066107988357544,-0.7223541736602783,0.9999788999557495,0.4230968952178955,0.2086161971092224,-0.7555444836616516,0.999975323677063,0.40639951825141907,0.20770815014839172,-0.7556044459342957,0.9999703168869019,0.386991947889328,0.2070683240890503,-0.75568687915802,0.9999634027481079,0.45444372296333313,0.2130129337310791,-0.36835411190986633,0.9999840259552002,0.3377678394317627,0.21680504083633423,-0.535656213760376,0.9999679327011108,0.4590454697608948,0.25270596146583557,-0.6495041251182556,0.9999918937683105,0.4284161627292633,0.2555988132953644,-0.6967056393623352,0.9999892711639404,0.536229133605957,0.35138967633247375,-0.19192302227020264,0.9999498128890991,0.19270391762256622,0.3671058416366577,-0.3538053631782532,0.9996271133422852,0.5803239941596985,0.5115334391593933,-0.043021559715270996,0.9827550053596497,0.17306554317474365,0.5263122916221619,-0.5377093553543091,0.9329708814620972,0.6419945955276489,0.6452962160110474,-0.35812583565711975,0.9873878359794617,0.058976173400878906,0.537604033946991,-1.1549447774887085,0.9565602540969849,0.6591044664382935,0.6881827712059021,-0.45172786712646484,0.9763877391815186,0.01551637053489685,0.5304970741271973,-1.2774063348770142,0.9551908373832703,0.6435290575027466,0.6883329749107361,-0.5491068959236145,0.9790727496147156,0.004780888557434082,0.5113335847854614,-1.3824918270111084,0.9616372585296631,0.6317117810249329,0.6782426834106445,-0.40370097756385803,0.9803816080093384,0.03370475769042969,0.5110262632369995,-1.2148207426071167,0.9592503905296326,0.49399712681770325,0.6376975774765015,0.06706725805997849,0.9979895353317261,0.31798577308654785,0.6540918946266174,-0.06652586162090302,0.9980379939079285,0.482303261756897,0.8478350043296814,0.1989983469247818,0.9682834148406982,0.33397820591926575,0.8778155446052551,0.04687235504388809,0.9560340642929077,0.48305436968803406,0.9607574343681335,0.9501518607139587,0.8797364234924316,0.3552696704864502,0.9922036528587341,0.6378805637359619,0.8739451766014099,0.4643758535385132,0.9692716002464294,1.005284070968628,0.8235319256782532,0.35371607542037964,0.9888286590576172,0.680040180683136,0.5970827341079712,0.5312368869781494,1.0300991535186768,0.7334742546081543,0.8177510499954224,0.37077775597572327,1.0913324356079102,0.30322763323783875,0.7426000833511353
19595.990560639348,0.45647087693214417,0.23199445009231567,-0.7519074082374573,0.9999828338623047,0.4565151631832123,0.20903745293617249,-0.6918705701828003,0.9999732971191406,0.462973028421402,0.20798775553703308,-0.6921961307525635,0.9999715089797974,0.46907034516334534,0.20680740475654602,-0.6923546195030212,0.9999699592590332,0.4277053773403168,0.21020761132240295,-0.7290834784507751,0.9999657869338989,0.4121958613395691,0.20951101183891296,-0.7291508913040161,0.9999587535858154,0.39287805557250977,0.20912238955497742,-0.7292447686195374,0.9999500513076782,0.45142534375190735,0.2119004726409912,-0.34563958644866943,0.9999768733978271,0.34030041098594666,0.21759185194969177,-0.5288023352622986,0.9999555349349976,0.4608461558818817,0.25340965390205383,-0.6216318011283875,0.9999890327453613,0.43179696798324585,0.25646233558654785,-0.6734381914138794,0.9999853372573853,0.5366501808166504,0.35072973370552063,-0.18564258515834808,0.9999426603317261,0.19203734397888184,0.3664291799068451,-0.35113343596458435,0.9996116757392883,0.5801557898521423,0.5111632943153381,-0.056921832263469696,0.981105387210846,0.17004172503948212,0.5240880250930786,-0.531395673751831,0.9452617168426514,0.6383556723594666,0.6417526006698608,-0.39184486865997314,0.9855142831802368,0.052996158599853516,0.537842869758606,-1.1270462274551392,0.9621819257736206,0.6567884683609009,0.6849403381347656,-0.4861835241317749,0.9728694558143616,0.0054212212562561035,0.5335235595703125,-1.2461601495742798,0.9598353505134583,0.6429300308227539,0.6855908036231995,-0.5827994346618652,0.9758718609809875,-0.006232261657714844,0.516592264175415,-1.3518935441970825,0.9656437635421753,0.6313002109527588,0.6761071085929871,-0.43797025084495544,0.9772630333900452,0.020962536334991455,0.5167207717895508,-1.1872437000274658,0.9633561968803406,0.49145978689193726,0.6391933560371399,0.06303688883781433,0.9978659749031067,0.31636324524879456,0.6543512940406799,-0.06252258270978928,0.9979677796363831,0.47836077213287354,0.8515868186950684,0.18921998143196106,0.9750868678092957,0.3323230445384979,0.8803725242614746,0.03620196133852005,0.9638227224349976,0.48557767271995544,0.9642752408981323,0.9286770820617676,0.9053940176963806,0.354427307844162,0.9937382340431213,0.6189990639686584,0.892516016960144,0.4689004421234131,0.9729717969894409,0.9820303916931152,0.8509036302566528,0.38234764337539673,1.0227465629577637,0.659577488899231,0.6299130916595459,0.5336515307426453,1.034730076789856,0.7075245976448059,0.8528163433074951,0.3678725063800812,1.0899443626403809,0.28363707661628723,0.7784362435340881
19612.657227306016,0.4525904953479767,0.23287975788116455,-0.8575765490531921,0.9999831914901733,0.45446181297302246,0.20969313383102417,-0.7994177341461182,0.9999737739562988,0.46154654026031494,0.2085002064704895,-0.7997066378593445,0.9999716281890869,0.46851831674575806,0.2073363959789276,-0.7998597025871277,0.9999697208404541,0.4234910309314728,0.2108960747718811,-0.8349934816360474,0.9999674558639526,0.406854510307312,0.21037644147872925,-0.8350822925567627,0.9999607801437378,0.38777217268943787,0.21009278297424316,-0.8351699113845825,0.9999523162841797,0.4549340307712555,0.213478684425354,-0.43730318546295166,0.9999758005142212,0.33933383226394653,0.21925833821296692,-0.6141535043716431,0.9999569654464722,0.4588543772697449,0.2539963126182556,-0.719374418258667,0.999988317489624,0.428585410118103,0.25747770071029663,-0.769359290599823,0.9999850988388062,0.5366743803024292,0.34789222478866577,-0.23907499015331268,0.9999364614486694,0.19433778524398804,0.36591649055480957,-0.4122363030910492,0.9996325969696045,0.5808903574943542,0.5078686475753784,-0.08980639278888702,0.9792072176933289,0.18021373450756073,0.5278993844985962,-0.5836951732635498,0.9314228296279907,0.6400812268257141,0.640087366104126,-0.42292580008506775,0.9834614992141724,0.06114146113395691,0.5343988537788391,-1.1871440410614014,0.9518637657165527,0.658787190914154,0.6840540766716003,-0.5178170800209045,0.9694153666496277,0.015551835298538208,0.529182493686676,-1.3091562986373901,0.9501216411590576,0.645246684551239,0.6848128437995911,-0.6190886497497559,0.9729131460189819,0.002629578113555908,0.5130618810653687,-1.414302945137024,0.9570767283439636,0.6338115930557251,0.6755688786506653,-0.47083988785743713,0.9745768904685974,0.029071537777781487,0.5129600167274475,-1.2469545602798462,0.9541812539100647,0.4951059818267822,0.635520339012146,0.06924600899219513,0.9973112344741821,0.3197311758995056,0.6515769958496094,-0.06875590234994888,0.9977080821990967,0.4828198552131653,0.8442621231079102,0.24026800692081451,0.9729243516921997,0.3333554267883301,0.8761127591133118,0.04415953904390335,0.9674105048179626,0.4868607819080353,0.9607276916503906,0.978226900100708,0.9090468287467957,0.35594284534454346,0.9949573874473572,0.6202955842018127,0.9095463752746582,0.4685920774936676,0.9722591638565063,1.0310858488082886,0.8559826612472534,0.37933823466300964,1.0226017236709595,0.6596916317939758,0.6562240719795227,0.5544764995574951,1.0329827070236206,0.7497686147689819,0.8633579015731812,0.3674883544445038,1.090646743774414,0.2708111107349396,0.8058722615242004
19629.323893972683,0.4490021765232086,0.23492416739463806,-0.9098219871520996,0.9999873638153076,0.45249342918395996,0.21153971552848816,-0.8514062762260437,0.9999796152114868,0.4598527252674103,0.2103992998600006,-0.8516844511032104,0.9999779462814331,0.46712663769721985,0.20924153923988342,-0.8518311381340027,0.9999765157699585,0.42101383209228516,0.21244502067565918,-0.8829840421676636,0.9999746084213257,0.40402108430862427,0.21176570653915405,-0.883060872554779,0.9999696016311646,0.3854827284812927,0.2113223671913147,-0.8831191062927246,0.9999622106552124,0.45621007680892944,0.2147114872932434,-0.48458075523376465,0.9999810457229614,0.3370162546634674,0.22005313634872437,-0.6448269486427307,0.9999641180038452,0.4564872980117798,0.2562219500541687,-0.7703422904014587,0.9999912977218628,0.42556607723236084,0.25908347964286804,-0.8156263828277588,0.9999884366989136,0.5404444336891174,0.34880077838897705,-0.2861807942390442,0.9999401569366455,0.19242562353610992,0.3647037446498871,-0.4244941473007202,0.9996534585952759,0.581052303314209,0.5097916126251221,-0.13069689273834229,0.9828181266784668,0.17158061265945435,0.5209941267967224,-0.5912736654281616,0.9204063415527344,0.6422008275985718,0.6416690349578857,-0.4489932954311371,0.9848084449768066,0.06898021697998047,0.5360039472579956,-1.2167243957519531,0.9440112709999084,0.6602472066879272,0.6848713159561157,-0.543680727481842,0.9711804389953613,0.02743902988731861,0.5330374240875244,-1.34212327003479,0.9433735609054565,0.6460671424865723,0.6856921911239624,-0.6459864974021912,0.9744908213615417,0.0222129225730896,0.5154268741607666,-1.4467968940734863,0.9511431455612183,0.6347236633300781,0.6766564846038818,-0.4965209364891052,0.975918710231781,0.038442134857177734,0.5153946280479431,-1.2772916555404663,0.9484325647354126,0.4943211078643799,0.6351272463798523,0.05464506894350052,0.9972825050354004,0.3185964822769165,0.6520895957946777,-0.05414421483874321,0.9976325035095215,0.4803648591041565,0.842578649520874,0.25331899523735046,0.974719762802124,0.33432823419570923,0.8731598854064941,0.08194223046302795,0.9701818823814392,0.4872666299343109,0.9586206674575806,0.9702200889587402,0.9164537191390991,0.35819941759109497,0.9923955798149109,0.6548661589622498,0.9147790670394897,0.46972236037254333,0.9714642763137817,1.0207680463790894,0.8617398142814636,0.3579069972038269,0.992019534111023,0.6938174366950989,0.67261803150177,0.5406262278556824,1.0228488445281982,0.7367068529129028,0.873767077922821,0.371727854013443,1.0862092971801758,0.309589147567749,0.8160058856010437
19645.99056063935,0.45455271005630493,0.23158478736877441,-0.8134760856628418,0.9999897480010986,0.456074059009552,0.2089742124080658,-0.7516211867332458,0.999984860420227,0.4634484648704529,0.20792198181152344,-0.7519310712814331,0.9999836683273315,0.47051453590393066,0.20686373114585876,-0.752077043056488,0.999982476234436,0.4247415363788605,0.20978733897209167,-0.7838392853736877,0.9999802112579346,0.40795645117759705,0.20894426107406616,-0.7838847041130066,0.9999759197235107,0.3883286714553833,0.20833653211593628,-0.7839544415473938,0.9999700784683228,0.45746752619743347,0.21316659450531006,-0.38524264097213745,0.9999867677688599,0.33952388167381287,0.21741995215415955,-0.5458758473396301,0.9999746084213257,0.46055036783218384,0.25304535031318665,-0.675297200679779,0.9999934434890747,0.42974165081977844,0.25609609484672546,-0.7206569910049438,0.9999915361404419,0.5398917198181152,0.3505800664424896,-0.19779694080352783,0.9999583959579468,0.19595667719841003,0.363799512386322,-0.35425859689712524,0.9996750354766846,0.5799579620361328,0.5119123458862305,-0.05409246310591698,0.9830649495124817,0.1707809865474701,0.521320641040802,-0.5557218790054321,0.9328901767730713,0.6418602466583252,0.6450081467628479,-0.39126157760620117,0.9875461459159851,0.0728113055229187,0.5378557443618774,-1.2000142335891724,0.9491342306137085,0.660018801689148,0.6883637309074402,-0.48915189504623413,0.9764829874038696,0.028677940368652344,0.5319300293922424,-1.3287858963012695,0.9461145997047424,0.6448349952697754,0.6878755688667297,-0.5896130800247192,0.9790591597557068,0.029746294021606445,0.5125634670257568,-1.4288809299468994,0.9532822370529175,0.6327868700027466,0.6778497099876404,-0.4383590519428253,0.9798570275306702,0.05790126323699951,0.5116430521011353,-1.258283019065857,0.9499670267105103,0.49474143981933594,0.6343311667442322,0.06304565072059631,0.9980319142341614,0.31446194648742676,0.6487368941307068,-0.0624624602496624,0.9981390237808228,0.48158589005470276,0.843888521194458,0.20582649111747742,0.9749667644500732,0.33382880687713623,0.871238648891449,0.05298462137579918,0.964996874332428,0.48451051115989685,0.9655471444129944,0.9650492668151855,0.9072313904762268,0.3607041537761688,0.9972671866416931,0.6439375877380371,0.9027230143547058,0.4666454792022705,0.9753625988960266,1.020078182220459,0.8475182056427002,0.38062915205955505,1.022303581237793,0.6851152181625366,0.6463468670845032,0.5280000567436218,1.033260464668274,0.7331449389457703,0.8530368804931641,0.3670542538166046,1.089691162109375,0.2951706051826477,0.7899106740951538
19662.65722730602,0.4515410363674164,0.2311396598815918,-0.8353524208068848,0.9999891519546509,0.4536440074443817,0.20865187048912048,-0.7731174826622009,0.9999839067459106,0.46105173230171204,0.20756274461746216,-0.7734234929084778,0.9999825954437256,0.46829840540885925,0.20650464296340942,-0.7735604047775269,0.9999814033508301,0.4220547378063202,0.2094368040561676,-0.8043165802955627,0.9999790191650391,0.40505459904670715,0.20872053503990173,-0.8043539524078369,0.9999741315841675,0.3861696124076843,0.2083113193511963,-0.8044205904006958,0.9999678134918213,0.4565250873565674,0.21309775114059448,-0.40284234285354614,0.9999858140945435,0.3384545147418976,0.21771138906478882,-0.5590082406997681,0.9999719858169556,0.4583415389060974,0.25250306725502014,-0.6959900259971619,0.999992847442627,0.42726561427116394,0.25540870428085327,-0.7400373816490173,0.999990701675415,0.5396119952201843,0.3504168689250946,-0.21149447560310364,0.9999527931213379,0.19548825919628143,0.3635290563106537,-0.3606044352054596,0.9996496438980103,0.5803912878036499,0.5118123292922974,-0.06753696501255035,0.9828118681907654,0.17008167505264282,0.5230759382247925,-0.555989682674408,0.924092710018158,0.6423903703689575,0.644601047039032,-0.4066268503665924,0.9865532517433167,0.06777611374855042,0.5377483367919922,-1.2056125402450562,0.9430112838745117,0.6598711013793945,0.6883688569068909,-0.5060269236564636,0.9746490120887756,0.024847090244293213,0.5311369895935059,-1.3349188566207886,0.9408337473869324,0.6448913216590881,0.6880359649658203,-0.6079422235488892,0.9774662852287292,0.02254575490951538,0.5127013921737671,-1.4388879537582397,0.9488345384597778,0.6334588527679443,0.6779857277870178,-0.4545203149318695,0.9784376621246338,0.03941774368286133,0.5149464011192322,-1.2659562826156616,0.9458798170089722,0.4958232045173645,0.6344237327575684,0.06376159191131592,0.997869610786438,0.31713780760765076,0.6510900855064392,-0.06316453963518143,0.9980624318122864,0.4822263717651367,0.8417642712593079,0.22066651284694672,0.9768731594085693,0.3339213728904724,0.8726155161857605,0.06195297837257385,0.9687673449516296,0.48409783840179443,0.9635053873062134,0.9756776690483093,0.9158759117126465,0.3584722876548767,0.9955613613128662,0.655385434627533,0.9116303324699402,0.46592164039611816,0.9746865630149841,1.0295886993408203,0.8591721653938293,0.3803654611110687,1.021754503250122,0.6962193846702576,0.6645510792732239,0.5286086797714233,1.0316517353057861,0.7366586327552795,0.8634024262428284,0.3636072278022766,1.0888268947601318,0.3018041253089905,0.8029627203941345
19679.323893972687,0.4534749984741211,0.23124778270721436,-0.848809003829956,0.9999904632568359,0.4557705819606781,0.20842251181602478,-0.788942813873291,0.999984860420227,0.4628971517086029,0.20743122696876526,-0.7892325520515442,0.9999834299087524,0.4697101414203644,0.2064342200756073,-0.7893524765968323,0.9999821186065674,0.42483651638031006,0.20916885137557983,-0.8211222290992737,0.9999809265136719,0.4083438217639923,0.20840570330619812,-0.8211655616760254,0.9999771118164062,0.3891166150569916,0.20785722136497498,-0.8212041854858398,0.9999722242355347,0.45724552869796753,0.21227318048477173,-0.42907223105430603,0.9999855756759644,0.33948832750320435,0.21684381365776062,-0.5907868146896362,0.9999743700027466,0.45993921160697937,0.2533491253852844,-0.7133718132972717,0.999993085861206,0.4289630651473999,0.25600117444992065,-0.7588604688644409,0.9999915361404419,0.5371827483177185,0.3503376245498657,-0.24679796397686005,0.9999493360519409,0.193363219499588,0.3660220801830292,-0.3884675204753876,0.9997178912162781,0.5809400081634521,0.5097677111625671,-0.10682293027639389,0.982269823551178,0.17098860442638397,0.52607661485672,-0.5634097456932068,0.9423788785934448,0.6398380398750305,0.6394315958023071,-0.4435269236564636,0.9858232736587524,0.0573706328868866,0.5394824147224426,-1.1915756464004517,0.959566593170166,0.6599277853965759,0.6834773421287537,-0.5426194071769714,0.973257303237915,0.014271050691604614,0.53618323802948,-1.3180010318756104,0.9569348692893982,0.6464461088180542,0.6841117739677429,-0.6436822414398193,0.9762681126594543,0.001293092966079712,0.5196723937988281,-1.4246032238006592,0.9631067514419556,0.6343634128570557,0.6748651266098022,-0.4918442666530609,0.9776759147644043,0.027904629707336426,0.5192972421646118,-1.2532439231872559,0.9611418843269348,0.49584975838661194,0.633980929851532,0.06057782471179962,0.997766375541687,0.3172810673713684,0.6507858633995056,-0.06003086268901825,0.9981011748313904,0.4834228754043579,0.841296374797821,0.23985397815704346,0.9803306460380554,0.33492377400398254,0.8696244359016418,0.06960999965667725,0.9762222170829773,0.4876396358013153,0.958695113658905,0.9669272899627686,0.930410623550415,0.35680264234542847,0.9918844699859619,0.6452012062072754,0.9287664294242859,0.46949613094329834,0.9717843532562256,1.0183557271957397,0.8785098791122437,0.3603115677833557,0.9915689826011658,0.6843132376670837,0.6993200778961182,0.5379664301872253,1.027248501777649,0.7371353507041931,0.8897358775138855,0.36646097898483276,1.0836517810821533,0.30344003438949585,0.8363580703735352
19695.990560639355,0.4521474242210388,0.23316898941993713,-0.904090166091919,0.9999876022338867,0.4534587860107422,0.21005156636238098,-0.8474044799804688,0.9999794960021973,0.4600345194339752,0.2090184986591339,-0.847653865814209,0.9999785423278809,0.46678343415260315,0.2079581916332245,-0.8477752804756165,0.9999767541885376,0.4236983358860016,0.21070021390914917,-0.8793785572052002,0.9999735355377197,0.4072916805744171,0.21008121967315674,-0.8794395923614502,0.9999688863754272,0.38838109374046326,0.2097168266773224,-0.8794846534729004,0.9999604225158691,0.4531274735927582,0.2136143147945404,-0.484732985496521,0.9999816417694092,0.33893486857414246,0.21887752413749695,-0.6454545855522156,0.9999631643295288,0.45780935883522034,0.25457513332366943,-0.7654982805252075,0.9999916553497314,0.4282698333263397,0.2575823664665222,-0.8108734488487244,0.9999887943267822,0.5380852222442627,0.3498101532459259,-0.28581610321998596,0.9999567270278931,0.19671717286109924,0.3623214364051819,-0.4300731420516968,0.9996929168701172,0.5804383754730225,0.5116235613822937,-0.13526597619056702,0.9839990735054016,0.17115682363510132,0.5224796533584595,-0.603951096534729,0.9339903593063354,0.6422433853149414,0.6423289775848389,-0.45955854654312134,0.9871484637260437,0.058003250509500504,0.5375543236732483,-1.2243115901947021,0.9483799934387207,0.6601485013961792,0.6850330829620361,-0.5550732612609863,0.9752357006072998,0.012311756610870361,0.5358664989471436,-1.350290060043335,0.9458661675453186,0.6453129649162292,0.6847791075706482,-0.6589542031288147,0.9780730605125427,-0.0019154846668243408,0.519767701625824,-1.455792784690857,0.9532888531684875,0.6338917016983032,0.6754505038261414,-0.5079652070999146,0.9789416790008545,0.026510922238230705,0.518355667591095,-1.285525918006897,0.9510542750358582,0.49443215131759644,0.6324440240859985,0.058390866965055466,0.9977547526359558,0.3180774450302124,0.6494658589363098,-0.05784809589385986,0.9980624318122864,0.4829123616218567,0.8389730453491211,0.2560763657093048,0.9812456369400024,0.33784016966819763,0.8709526062011719,0.06932960450649261,0.9773609638214111,0.48726141452789307,0.9596195816993713,0.9774024486541748,0.9371437430381775,0.3578052520751953,0.9921097159385681,0.6320058107376099,0.9328491687774658,0.46972283720970154,0.9732972383499146,1.0278552770614624,0.8728892803192139,0.3647574484348297,0.9910784959793091,0.6694849729537964,0.7053401470184326,0.5361746549606323,1.0281858444213867,0.7357516288757324,0.8962922692298889,0.36812591552734375,1.0836117267608643,0.28206130862236023,0.8474756479263306
19712.657227306023,0.4503004550933838,0.23243704438209534,-0.9019604921340942,0.9999887943267822,0.45312148332595825,0.20929673314094543,-0.843346357345581,0.9999829530715942,0.4601295292377472,0.20843195915222168,-0.8436344265937805,0.9999818801879883,0.46719691157341003,0.20757529139518738,-0.8437778353691101,0.9999809265136719,0.42254316806793213,0.20953473448753357,-0.875460684299469,0.9999767541885376,0.4053456783294678,0.20885467529296875,-0.8755090832710266,0.9999721050262451,0.3869746923446655,0.20862042903900146,-0.8755610585212708,0.9999645948410034,0.4560536742210388,0.2135312259197235,-0.47192567586898804,0.9999849796295166,0.3374784588813782,0.21832966804504395,-0.6324183344841003,0.9999676942825317,0.4571683406829834,0.2539500296115875,-0.7604002356529236,0.9999929666519165,0.42593955993652344,0.25617215037345886,-0.8056720495223999,0.9999903440475464,0.5389214158058167,0.348609983921051,-0.26193350553512573,0.9999605417251587,0.1957230567932129,0.3626534342765808,-0.42158403992652893,0.9996694326400757,0.5797384977340698,0.5114258527755737,-0.11462250351905823,0.9832926392555237,0.1730925589799881,0.5259603261947632,-0.600220799446106,0.9316089153289795,0.644220232963562,0.6433026790618896,-0.4585055708885193,0.9872567653656006,0.05250173807144165,0.539898157119751,-1.238482117652893,0.9461581707000732,0.660241961479187,0.6864880323410034,-0.5592947602272034,0.9753225445747375,0.0046128928661346436,0.5353232622146606,-1.3688452243804932,0.9437692165374756,0.6456104516983032,0.686508297920227,-0.6636769771575928,0.9782906770706177,-0.009042471647262573,0.5182795524597168,-1.47572660446167,0.9518356919288635,0.6347125172615051,0.6770706176757812,-0.5078876614570618,0.9790738821029663,0.02088695764541626,0.5173134207725525,-1.3005417585372925,0.9497315287590027,0.4957905411720276,0.6322603225708008,0.07042030245065689,0.9976571798324585,0.31920552253723145,0.6494191288948059,-0.06981314718723297,0.997817873954773,0.4851413071155548,0.8375566601753235,0.25963881611824036,0.9755963683128357,0.33962899446487427,0.8723779320716858,0.057461217045784,0.9717066884040833,0.48853325843811035,0.9588333964347839,1.0018056631088257,0.915201723575592,0.35767096281051636,0.9893537759780884,0.6345725059509277,0.9116430282592773,0.47086018323898315,0.971656858921051,1.0545778274536133,0.8483657836914062,0.36104878783226013,0.9883527755737305,0.6738649010658264,0.6588669419288635,0.5387162566184998,1.0265518426895142,0.7604722380638123,0.8655515313148499,0.3811510503292084,1.0837128162384033,0.27985313534736633,0.8048602938652039
19729.32389397269,0.4530872106552124,0.23091468214988708,-0.8364893794059753,0.9999899864196777,0.45532938838005066,0.20755082368850708,-0.7739163041114807,0.999984860420227,0.4627748429775238,0.20640334486961365,-0.7742143273353577,0.9999833106994629,0.4699668884277344,0.20520704984664917,-0.7743327021598816,0.9999819993972778,0.42395731806755066,0.20863544940948486,-0.804832398891449,0.9999799728393555,0.40722909569740295,0.20808318257331848,-0.8048407435417175,0.9999754428863525,0.38791316747665405,0.20774081349372864,-0.8048838973045349,0.9999692440032959,0.4572882354259491,0.21085497736930847,-0.40129703283309937,0.9999860525131226,0.3387693762779236,0.21687421202659607,-0.5557390451431274,0.9999741315841675,0.4598367214202881,0.2532905042171478,-0.6964715719223022,0.9999936819076538,0.42817312479019165,0.25579288601875305,-0.7398455142974854,0.9999921321868896,0.5398147106170654,0.34827160835266113,-0.20517443120479584,0.9999618530273438,0.19571977853775024,0.36229100823402405,-0.36300158500671387,0.9997264742851257,0.5792895555496216,0.5095794796943665,-0.05484488606452942,0.9824145436286926,0.16343577206134796,0.5221651196479797,-0.555424690246582,0.9408867955207825,0.6401253938674927,0.6446157693862915,-0.40123096108436584,0.9882118105888367,0.06631150841712952,0.5392827391624451,-1.1991010904312134,0.9516298770904541,0.6572583913803101,0.6870933771133423,-0.503483235836029,0.9776711463928223,0.02163258194923401,0.5351374745368958,-1.3304505348205566,0.9479772448539734,0.6423565149307251,0.6868910193443298,-0.6052917838096619,0.9801614880561829,0.017613768577575684,0.5181707143783569,-1.4335294961929321,0.9552171230316162,0.6305197477340698,0.6770371198654175,-0.44935694336891174,0.9806786179542542,0.0475691556930542,0.5168151259422302,-1.2591173648834229,0.9528784155845642,0.4948655664920807,0.6352444291114807,0.0731910988688469,0.9984388947486877,0.31784525513648987,0.6511604189872742,-0.07258408516645432,0.9986831545829773,0.4858682155609131,0.8391055464744568,0.26730048656463623,0.9773542284965515,0.33649247884750366,0.8714792132377625,0.07252179086208344,0.9726347327232361,0.4840007722377777,0.9582566022872925,1.0726591348648071,0.9165021777153015,0.3564355969429016,0.9851776361465454,0.6920467615127563,0.9149217009544373,0.4632120728492737,0.9706539511680603,1.1331787109375,0.8667013049125671,0.3621392250061035,0.9851599931716919,0.7366015315055847,0.6825836896896362,0.5415941476821899,1.0208865404129028,0.8504258990287781,0.8662863969802856,0.3711905777454376,1.0799119472503662,0.34730464220046997,0.8050357103347778
19745.99056063936,0.4533267915248871,0.23191526532173157,-0.8736705780029297,0.999990701675415,0.4547199308872223,0.20883414149284363,-0.814946711063385,0.9999853372573853,0.4615143835544586,0.20786172151565552,-0.8152050375938416,0.9999842643737793,0.4682948589324951,0.2069033682346344,-0.815292239189148,0.9999825954437256,0.4252772033214569,0.20916572213172913,-0.8489274382591248,0.9999816417694092,0.4090968370437622,0.20845988392829895,-0.8489730358123779,0.9999783039093018,0.3902837336063385,0.20802560448646545,-0.8490323424339294,0.9999724626541138,0.4547419250011444,0.21296894550323486,-0.4494059681892395,0.9999864101409912,0.3399380147457123,0.2172725796699524,-0.6174809336662292,0.9999768733978271,0.45955443382263184,0.2529574930667877,-0.7347036600112915,0.9999939203262329,0.4294908344745636,0.25554096698760986,-0.7819991707801819,0.9999926090240479,0.53975510597229,0.34854596853256226,-0.24187172949314117,0.9999608993530273,0.19361500442028046,0.36484208703041077,-0.42335259914398193,0.9997811913490295,0.5803558826446533,0.5095577836036682,-0.08846110850572586,0.9840739965438843,0.17158788442611694,0.52751225233078,-0.6024359464645386,0.9562287926673889,0.6431640982627869,0.6408482193946838,-0.43588292598724365,0.9888688325881958,0.060509029775857925,0.5422773957252502,-1.2255516052246094,0.9689063429832458,0.6611683368682861,0.6836305856704712,-0.5355616211891174,0.9784837961196899,0.011933863162994385,0.5374372005462646,-1.3538851737976074,0.9658553004264832,0.6460532546043396,0.6836473941802979,-0.6376425623893738,0.981052041053772,0.001712799072265625,0.5193275213241577,-1.4603146314620972,0.9708976149559021,0.6346163153648376,0.6743590235710144,-0.4844774305820465,0.9819394946098328,0.030266674235463142,0.5189547538757324,-1.2862640619277954,0.9686421751976013,0.4955850839614868,0.6330825090408325,0.07826025784015656,0.998075008392334,0.31857800483703613,0.6509605646133423,-0.07769490033388138,0.9985219836235046,0.4832651615142822,0.8395708203315735,0.2867177724838257,0.9786836504936218,0.3392898440361023,0.873681366443634,0.05966591835021973,0.9769819974899292,0.48813700675964355,0.9581454992294312,1.0548336505889893,0.9282947778701782,0.3586137294769287,0.9908887147903442,0.6412915587425232,0.9271814227104187,0.47030264139175415,0.9706718325614929,1.111320972442627,0.8848856687545776,0.360842764377594,0.9892376661300659,0.6818875670433044,0.7116901874542236,0.5400583744049072,1.0247657299041748,0.8326880931854248,0.8854459524154663,0.3810158371925354,1.0852726697921753,0.2959533631801605,0.8287436366081238
19762.657227306026,0.4526299834251404,0.23099496960639954,-0.8198615908622742,0.9999912977218628,0.45386365056037903,0.20833078026771545,-0.7592064142227173,0.9999867677688599,0.460974782705307,0.2074369490146637,-0.7595062255859375,0.9999856948852539,0.4680430293083191,0.20651614665985107,-0.7596362829208374,0.9999842643737793,0.42367038130760193,0.20870184898376465,-0.7914058566093445,0.9999828338623047,0.4071413278579712,0.20794251561164856,-0.7914490103721619,0.9999792575836182,0.3882991373538971,0.2074459195137024,-0.7915103435516357,0.9999738931655884,0.4551732540130615,0.212674081325531,-0.39411985874176025,0.9999880790710449,0.3395494222640991,0.2171574831008911,-0.5546543598175049,0.9999779462814331,0.4588410258293152,0.25312408804893494,-0.6818906664848328,0.999994158744812,0.42858147621154785,0.255399227142334,-0.7270416021347046,0.9999926090240479,0.5404397249221802,0.35016539692878723,-0.20086097717285156,0.9999628067016602,0.197675421833992,0.36470913887023926,-0.36538687348365784,0.999736487865448,0.5797860026359558,0.5111380219459534,-0.055657315999269485,0.9841651916503906,0.1701219379901886,0.5245779752731323,-0.5574049353599548,0.9456028938293457,0.6425679922103882,0.6431822776794434,-0.3976360559463501,0.9890176057815552,0.059246987104415894,0.5400776267051697,-1.1932244300842285,0.9603862762451172,0.6595635414123535,0.6860015988349915,-0.4954841136932373,0.9788376092910767,0.01182103157043457,0.534379243850708,-1.3208459615707397,0.9570281505584717,0.6448670029640198,0.6856775879859924,-0.5960301756858826,0.9812660813331604,-0.0009360909461975098,0.5159620046615601,-1.4241117238998413,0.963145911693573,0.6331452131271362,0.6760726571083069,-0.4450891315937042,0.9820482730865479,0.02681589126586914,0.5164883136749268,-1.2529546022415161,0.9608199000358582,0.49365687370300293,0.6354644298553467,0.06874021887779236,0.9982038736343384,0.3171304762363434,0.6524689793586731,-0.06816688925027847,0.9984573125839233,0.48335084319114685,0.8419646620750427,0.23767156898975372,0.9746543169021606,0.33512914180755615,0.875350296497345,0.053435295820236206,0.966105043888092,0.4861164689064026,0.9563978314399719,1.0184972286224365,0.9047780632972717,0.3549251854419708,0.9898034930229187,0.6502228379249573,0.9012912511825562,0.4670473337173462,0.9682360887527466,1.0767850875854492,0.8561276793479919,0.35709092020988464,0.9873312711715698,0.6926299929618835,0.6493424773216248,0.5366032123565674,1.025242567062378,0.7998887896537781,0.8517652153968811,0.3702135682106018,1.087966799736023,0.3065338134765625,0.7851453423500061
19779.323893972694,0.4552074372768402,0.22915393114089966,-0.8208947777748108,0.9999901056289673,0.4556829035282135,0.20616415143013,-0.7609113454818726,0.999984860420227,0.46244630217552185,0.2051064372062683,-0.7611768841743469,0.999983549118042,0.4692070484161377,0.2040991187095642,-0.7612642049789429,0.9999821186065674,0.4259437322616577,0.2070075273513794,-0.7938375473022461,0.9999804496765137,0.4099492132663727,0.206516295671463,-0.7938791513442993,0.9999765157699585,0.3907994329929352,0.2062082588672638,-0.7939261198043823,0.9999700784683228,0.45511841773986816,0.2109033167362213,-0.4065847396850586,0.9999864101409912,0.3409450352191925,0.21615087985992432,-0.5703784823417664,0.9999743700027466,0.46124136447906494,0.25133389234542847,-0.6878584027290344,0.9999940395355225,0.43079301714897156,0.25405168533325195,-0.7339543700218201,0.9999922513961792,0.5412754416465759,0.35008183121681213,-0.22918425500392914,0.9999639987945557,0.1950364112854004,0.36457085609436035,-0.3899431824684143,0.9997166991233826,0.5793331861495972,0.5104286074638367,-0.07831460237503052,0.9850243330001831,0.16716574132442474,0.5232506990432739,-0.5835757255554199,0.9427162408828735,0.6404028534889221,0.6438058018684387,-0.39550134539604187,0.9899415373802185,0.07086318731307983,0.5396389365196228,-1.198022723197937,0.9550867080688477,0.6572925448417664,0.6864855885505676,-0.49074694514274597,0.9806114435195923,0.027341453358530998,0.5336999297142029,-1.3233013153076172,0.9524470567703247,0.6407428979873657,0.6860233545303345,-0.5875641107559204,0.9827651381492615,0.02365630865097046,0.5161089301109314,-1.4253053665161133,0.9589665532112122,0.6286396384239197,0.6758152842521667,-0.44059517979621887,0.9833196997642517,0.050778478384017944,0.5157487392425537,-1.2571161985397339,0.9569180607795715,0.49679112434387207,0.6336545348167419,0.06915902346372604,0.9986236095428467,0.3182390034198761,0.6486612558364868,-0.0686354860663414,0.9987364411354065,0.48745837807655334,0.8335689306259155,0.26895618438720703,0.9780555963516235,0.3367502689361572,0.8650585412979126,0.09197243303060532,0.9725080132484436,0.48429548740386963,0.9589147567749023,1.0403462648391724,0.9240856170654297,0.3587857186794281,0.9834054708480835,0.7028071284294128,0.919058084487915,0.4637397527694702,0.9707363843917847,1.0979152917861938,0.8743079304695129,0.36655789613723755,0.984535276889801,0.7474275231361389,0.697052001953125,0.5382302403450012,1.021628499031067,0.8277933597564697,0.8784763813018799,0.36670759320259094,1.0747487545013428,0.37889915704727173,0.8168467879295349
19795.990560639362,0.4536168575286865,0.2341664433479309,-0.8236979246139526,0.9999904632568359,0.4554097652435303,0.21073651313781738,-0.7635199427604675,0.9999855756759644,0.4623008668422699,0.20956486463546753,-0.7638024687767029,0.9999845027923584,0.4691305160522461,0.2084323763847351,-0.7639468908309937,0.9999831914901733,0.4251199960708618,0.2115548551082611,-0.7982247471809387,0.9999809265136719,0.408376008272171,0.21091914176940918,-0.7982507348060608,0.9999772310256958,0.38894009590148926,0.21048212051391602,-0.7982878684997559,0.9999709129333496,0.4553774893283844,0.2141399085521698,-0.4002801477909088,0.9999878406524658,0.3380819261074066,0.21941685676574707,-0.5716067552566528,0.999976634979248,0.45963090658187866,0.2553003430366516,-0.6860909461975098,0.9999942779541016,0.42829838395118713,0.2584451735019684,-0.7343424558639526,0.9999923706054688,0.5387430191040039,0.3492645025253296,-0.20697234570980072,0.999964714050293,0.19658969342708588,0.3646080791950226,-0.38554733991622925,0.9997379183769226,0.5794795155525208,0.5104610919952393,-0.0472632497549057,0.9823645353317261,0.17187848687171936,0.5251543521881104,-0.5714873671531677,0.9456021785736084,0.641399085521698,0.6417906880378723,-0.37509775161743164,0.9873183369636536,0.05994594097137451,0.5415492057800293,-1.1915377378463745,0.9568665623664856,0.6580811738967896,0.6850196719169617,-0.4717409312725067,0.976310133934021,0.015472382307052612,0.5355395674705505,-1.3190715312957764,0.9544278979301453,0.6437410116195679,0.6848770976066589,-0.5738579034805298,0.9791343212127686,0.0028045177459716797,0.5171859860420227,-1.4256073236465454,0.9611443281173706,0.6331681609153748,0.6756173968315125,-0.42340028285980225,0.9800287485122681,0.0300142765045166,0.5180810689926147,-1.252987265586853,0.9591081142425537,0.49800822138786316,0.6326597929000854,0.07294899225234985,0.9984355568885803,0.31976425647735596,0.6495659351348877,-0.07232695817947388,0.9986245632171631,0.4857823848724365,0.8404322862625122,0.25149622559547424,0.9800370931625366,0.3375074863433838,0.872069239616394,0.06399325281381607,0.9729059338569641,0.48537012934684753,0.9558910131454468,1.0613129138946533,0.9189897179603577,0.3582141697406769,0.9900725483894348,0.683778703212738,0.915037214756012,0.46858522295951843,0.9689144492149353,1.122605323791504,0.8703991770744324,0.366208553314209,0.9903857111930847,0.7288289070129395,0.6847493052482605,0.5322327613830566,1.023691177368164,0.8473286628723145,0.8658632040023804,0.3673451542854309,1.078501582145691,0.34813424944877625,0.8030000329017639
19812.65722730603,0.45211195945739746,0.23034510016441345,-0.8678317070007324,0.9999873638153076,0.453823447227478,0.20724517107009888,-0.8074260950088501,0.9999812841415405,0.4612516462802887,0.206231027841568,-0.80772465467453,0.9999792575836182,0.4685857594013214,0.20526129007339478,-0.8078539967536926,0.999977707862854,0.4223024547100067,0.20795229077339172,-0.8379648923873901,0.9999758005142212,0.4054403603076935,0.20734214782714844,-0.8380579352378845,0.9999709129333496,0.38713333010673523,0.20703569054603577,-0.8381471633911133,0.9999644756317139,0.45714735984802246,0.21213510632514954,-0.43954572081565857,0.999982476234436,0.3397372364997864,0.2169036865234375,-0.5925423502922058,0.9999698400497437,0.45903530716896057,0.2527671456336975,-0.728945255279541,0.9999922513961792,0.42714858055114746,0.2553905248641968,-0.7719696164131165,0.9999904632568359,0.5414028763771057,0.34924864768981934,-0.23519249260425568,0.9999542236328125,0.1950421780347824,0.36230194568634033,-0.40100228786468506,0.9996985197067261,0.5781103372573853,0.5103906393051147,-0.08736475557088852,0.982570469379425,0.17075514793395996,0.5244953632354736,-0.5981670618057251,0.9448649883270264,0.6396650075912476,0.6434661746025085,-0.42830216884613037,0.9876695275306702,0.07122907042503357,0.5377722978591919,-1.2399632930755615,0.9559224843978882,0.6579546928405762,0.6860832571983337,-0.5279216170310974,0.9763832092285156,0.026680171489715576,0.533345103263855,-1.3701518774032593,0.9515125751495361,0.6427537202835083,0.6860028505325317,-0.627860963344574,0.9789828062057495,0.020568490028381348,0.5148756504058838,-1.4694315195083618,0.9579592943191528,0.6305973529815674,0.6761983036994934,-0.47535398602485657,0.979794979095459,0.049629807472229004,0.5140910148620605,-1.2978038787841797,0.9552561044692993,0.4945521056652069,0.6340137720108032,0.07432787120342255,0.9980283379554749,0.31743282079696655,0.6491888165473938,-0.07381755113601685,0.9981626868247986,0.48214825987815857,0.8438473343849182,0.23729607462882996,0.9652907252311707,0.3358389735221863,0.872261643409729,0.05696661397814751,0.9605111479759216,0.4835127890110016,0.9628984332084656,1.0058645009994507,0.8836506605148315,0.35573214292526245,0.9887177348136902,0.6605700850486755,0.8871217370033264,0.4637538492679596,0.9722211956977844,1.0625373125076294,0.8299493789672852,0.3735099732875824,1.0182793140411377,0.7036836743354797,0.6261168122291565,0.5380181074142456,1.0283912420272827,0.7801928520202637,0.8323186039924622,0.37668249011039734,1.0862241983413696,0.3151763677597046,0.7677915096282959
19829.323893972698,0.45620134472846985,0.23455360531806946,-0.8675196766853333,0.9999909400939941,0.45636221766471863,0.21091300249099731,-0.8080918192863464,0.999985933303833,0.4629572927951813,0.20953986048698425,-0.8083401322364807,0.9999845027923584,0.46950098872184753,0.20819872617721558,-0.8084361553192139,0.9999827146530151,0.42726078629493713,0.21259182691574097,-0.8437642455101013,0.9999829530715942,0.41097086668014526,0.21249118447303772,-0.8438445925712585,0.9999798536300659,0.39143136143684387,0.21255537867546082,-0.8439171314239502,0.9999747276306152,0.4548446238040924,0.21474719047546387,-0.44048449397087097,0.9999868869781494,0.3392914831638336,0.22201213240623474,-0.616043746471405,0.9999790191650391,0.4628852903842926,0.2552485466003418,-0.728062093257904,0.9999943971633911,0.4322013854980469,0.25931480526924133,-0.7775478959083557,0.9999934434890747,0.5391977429389954,0.3494976758956909,-0.22185909748077393,0.9999574422836304,0.19549846649169922,0.3672119379043579,-0.43825170397758484,0.9998040795326233,0.5785211324691772,0.5097276568412781,-0.05790415406227112,0.9803395867347717,0.18031275272369385,0.5267958641052246,-0.630794882774353,0.9537411332130432,0.6410543322563171,0.6429502367973328,-0.39012160897254944,0.9869296550750732,0.07213085889816284,0.5429549813270569,-1.2518986463546753,0.9664415121078491,0.6587886810302734,0.6858329772949219,-0.4852542281150818,0.9755522608757019,0.02434372901916504,0.5374444723129272,-1.3824002742767334,0.9640827178955078,0.6447951793670654,0.6860313415527344,-0.5880718231201172,0.9783560633659363,0.028925657272338867,0.5157895088195801,-1.4846524000167847,0.9689872860908508,0.6334046125411987,0.6763822436332703,-0.43856731057167053,0.9791937470436096,0.05402061343193054,0.5153477787971497,-1.310536503791809,0.9657183289527893,0.49759572744369507,0.6350025534629822,0.09204986691474915,0.9980447292327881,0.3231939375400543,0.6528773307800293,-0.09154172241687775,0.9985862970352173,0.48530954122543335,0.8389491438865662,0.308722585439682,0.9748432636260986,0.33760684728622437,0.8741101622581482,0.0444636195898056,0.9760500192642212,0.48337700963020325,0.9561859965324402,1.069871187210083,0.9191597104072571,0.35882192850112915,0.9935526251792908,0.6213539838790894,0.9279201626777649,0.4616980254650116,0.9701351523399353,1.1265335083007812,0.8778576850891113,0.3694404065608978,1.0259239673614502,0.661005437374115,0.7031735181808472,0.5446631908416748,1.0217148065567017,0.8514701724052429,0.8848947882652283,0.3836202323436737,1.0926737785339355,0.2669088542461395,0.8347534537315369
19845.990560639366,0.4548375904560089,0.2368011176586151,-0.8228324055671692,0.9999803304672241,0.4565049111843109,0.2134629487991333,-0.7664127349853516,0.999969482421875,0.46317121386528015,0.21227344870567322,-0.7667049169540405,0.9999662637710571,0.4696832597255707,0.21106037497520447,-0.7668578624725342,0.9999642372131348,0.42720016837120056,0.21480882167816162,-0.804402232170105,0.9999631643295288,0.41079986095428467,0.2142472267150879,-0.8045160174369812,0.9999558925628662,0.391364723443985,0.21377858519554138,-0.8046301007270813,0.9999479055404663,0.454585462808609,0.21634086966514587,-0.40654119849205017,0.9999710321426392,0.3395032286643982,0.22178632020950317,-0.5928191542625427,0.9999562501907349,0.4602994918823242,0.25727716088294983,-0.6844426393508911,0.9999876022338867,0.4303763508796692,0.2608778476715088,-0.7371035218238831,0.9999850988388062,0.5367657542228699,0.34851428866386414,-0.1964845359325409,0.999935507774353,0.19121524691581726,0.3667309582233429,-0.40724146366119385,0.9997382760047913,0.5811623334884644,0.5077728033065796,-0.03841782361268997,0.9751925468444824,0.1761406511068344,0.527099609375,-0.5646036267280579,0.947089433670044,0.6390870213508606,0.6403014659881592,-0.3760862350463867,0.9798505306243896,0.060509681701660156,0.5404257774353027,-1.1374833583831787,0.9598909616470337,0.6583184003829956,0.6840937733650208,-0.46995648741722107,0.9639809131622314,0.01337343454360962,0.5372478365898132,-1.2569154500961304,0.9578986763954163,0.6457764506340027,0.6849708557128906,-0.573174238204956,0.9681243896484375,0.0027714967727661133,0.5202710032463074,-1.366660237312317,0.9641106128692627,0.634540319442749,0.6757494807243347,-0.42523786425590515,0.9703401327133179,0.028540102764964104,0.5188465118408203,-1.1980218887329102,0.9611619114875793,0.49621471762657166,0.6357073783874512,0.08377615362405777,0.9975515007972717,0.32014647126197815,0.6514216661453247,-0.08328031003475189,0.9981295466423035,0.4828777313232422,0.845061182975769,0.2584386467933655,0.9732480645179749,0.33259865641593933,0.8788385391235352,0.019867202267050743,0.9685177206993103,0.48545506596565247,0.959168016910553,1.0016525983810425,0.9107954502105713,0.35425451397895813,0.9956638813018799,0.5826603174209595,0.9082772731781006,0.46612000465393066,0.9711207747459412,1.0562734603881836,0.8652502298355103,0.3756380081176758,1.0274767875671387,0.6211782097816467,0.6546754837036133,0.5379282832145691,1.0287833213806152,0.7780966758728027,0.8676802515983582,0.3759733736515045,1.0959497690200806,0.2283191978931427,0.8021492958068848
19862.657227306034,0.4548785984516144,0.23594710230827332,-0.8782798647880554,0.999988317489624,0.455685019493103,0.21222162246704102,-0.8197914958000183,0.999982476234436,0.4625570476055145,0.21080321073532104,-0.8200860619544983,0.9999808073043823,0.46926888823509216,0.20940044522285461,-0.8202825784683228,0.9999798536300659,0.4250596761703491,0.21372023224830627,-0.8541299104690552,0.9999768733978271,0.4080493450164795,0.21342268586158752,-0.8541803956031799,0.9999716281890869,0.38879072666168213,0.21330827474594116,-0.8542367815971375,0.9999651908874512,0.4552735686302185,0.21503347158432007,-0.4535113275051117,0.9999842643737793,0.337618350982666,0.2219882607460022,-0.6247961521148682,0.9999690055847168,0.46244385838508606,0.25651291012763977,-0.7381733655929565,0.9999924898147583,0.43069544434547424,0.25973600149154663,-0.7865557670593262,0.9999898672103882,0.5404156446456909,0.3486602008342743,-0.2526920437812805,0.9999560117721558,0.19459499418735504,0.36707744002342224,-0.41566935181617737,0.9996663331985474,0.5782507658004761,0.511582612991333,-0.10627422481775284,0.982560932636261,0.17662931978702545,0.5276959538459778,-0.5841884613037109,0.9293016195297241,0.6434962749481201,0.6447417140007019,-0.44631215929985046,0.9869167804718018,0.06061980128288269,0.5383952856063843,-1.1995394229888916,0.9532894492149353,0.6608067750930786,0.6864928603172302,-0.5463241338729858,0.9752364158630371,0.011445343494415283,0.534003734588623,-1.325556993484497,0.952022135257721,0.6464407444000244,0.6868254542350769,-0.6482539176940918,0.9781867861747742,-0.0004826486110687256,0.5159183144569397,-1.4333215951919556,0.9589465260505676,0.6353464126586914,0.6774391531944275,-0.4947566092014313,0.9790725111961365,0.02742532081902027,0.5149027705192566,-1.2610642910003662,0.9562864899635315,0.49511218070983887,0.6351086497306824,0.06627777218818665,0.9978703260421753,0.3221520185470581,0.6508921980857849,-0.06576789170503616,0.9979873895645142,0.48327285051345825,0.8459446430206299,0.23242297768592834,0.9736315608024597,0.3366686999797821,0.8728926777839661,0.054839178919792175,0.967462956905365,0.4885520040988922,0.9588490724563599,0.9780038595199585,0.907139778137207,0.35378578305244446,0.9907639026641846,0.6473705768585205,0.908042848110199,0.46926212310791016,0.9708650708198547,1.031518816947937,0.8514524102210999,0.35481321811676025,0.9905109405517578,0.6887526512145996,0.6599887609481812,0.5377942323684692,1.0266375541687012,0.7486798167228699,0.8564278483390808,0.36258766055107117,1.0830941200256348,0.3045039176940918,0.801281750202179
19879.3238939727,0.4540207087993622,0.23652365803718567,-0.8987247943878174,0.9999833106994629,0.45595240592956543,0.2126362919807434,-0.8432730436325073,0.9999740123748779,0.4627775251865387,0.21130481362342834,-0.8435291647911072,0.9999707937240601,0.4695849120616913,0.20999562740325928,-0.8436663746833801,0.9999682903289795,0.4255591332912445,0.2140580415725708,-0.8782366514205933,0.9999696016311646,0.4088573455810547,0.21346357464790344,-0.8783541321754456,0.9999638795852661,0.38957834243774414,0.2129741609096527,-0.8784562349319458,0.9999575614929199,0.45577043294906616,0.2151806652545929,-0.481951504945755,0.9999744892120361,0.33859261870384216,0.2210695445537567,-0.6554298400878906,0.9999642372131348,0.46018335223197937,0.25703659653663635,-0.7596749067306519,0.9999889135360718,0.4294232428073883,0.26066380739212036,-0.808665931224823,0.9999876022338867,0.5389716625213623,0.34838011860847473,-0.264688104391098,0.9999327659606934,0.19153183698654175,0.36437317728996277,-0.4543357789516449,0.9997290968894958,0.5771116614341736,0.510574996471405,-0.09811791032552719,0.9778228402137756,0.17183040082454681,0.5301088094711304,-0.6254758834838867,0.9500483870506287,0.6404768228530884,0.6427030563354492,-0.41796958446502686,0.981860339641571,0.06560215353965759,0.5366553068161011,-1.2139989137649536,0.961661159992218,0.6592596769332886,0.6863381862640381,-0.5107189416885376,0.9663543701171875,0.020442187786102295,0.5333887934684753,-1.3359134197235107,0.9577224850654602,0.6447115540504456,0.6869589686393738,-0.6117711663246155,0.970032811164856,0.017987221479415894,0.5107765793800354,-1.4378958940505981,0.9635574817657471,0.6327379941940308,0.6774199604988098,-0.46544772386550903,0.9719936847686768,0.0365028977394104,0.5118101239204407,-1.271394968032837,0.9605706930160522,0.4971826374530792,0.6329161524772644,0.07642208784818649,0.997665524482727,0.32022786140441895,0.6490091681480408,-0.07595194876194,0.9981751441955566,0.4850183427333832,0.8441030383110046,0.27155956625938416,0.973372757434845,0.3348142206668854,0.8724445104598999,0.05685463547706604,0.9693603515625,0.48643574118614197,0.9577688574790955,1.0265685319900513,0.9079647064208984,0.35524284839630127,0.9892569184303284,0.6434587836265564,0.9091558456420898,0.4661732316017151,0.9691530466079712,1.0819133520126343,0.8585292100906372,0.37429988384246826,1.0189932584762573,0.6849916577339172,0.667772114276886,0.5358371734619141,1.0288352966308594,0.802035927772522,0.8611951470375061,0.3670790195465088,1.0868959426879883,0.2966468036174774,0.8014819025993347
19895.99056063937,0.4572521150112152,0.23347455263137817,-0.8149896264076233,0.9999845027923584,0.45869848132133484,0.2090611457824707,-0.7535399794578552,0.999976634979248,0.4656064510345459,0.2076714038848877,-0.7538496255874634,0.999974250793457,0.47219136357307434,0.2063683271408081,-0.7539977431297302,0.9999725818634033,0.42826467752456665,0.21089357137680054,-0.7863300442695618,0.999970555305481,0.41078680753707886,0.21090295910835266,-0.7863637804985046,0.9999645948410034,0.3908960223197937,0.21114817261695862,-0.786429762840271,0.999956488609314,0.45799511671066284,0.21351873874664307,-0.38875311613082886,0.9999783039093018,0.3380928933620453,0.22101691365242004,-0.5509999990463257,0.9999637603759766,0.46391794085502625,0.2551868259906769,-0.6772667765617371,0.9999896287918091,0.4318942427635193,0.25922682881355286,-0.7229802012443542,0.9999876022338867,0.5399859547615051,0.3496668338775635,-0.1925930380821228,0.9999469518661499,0.19330300390720367,0.3663530945777893,-0.3704793453216553,0.9995929598808289,0.5800818204879761,0.5104759931564331,-0.027165735140442848,0.9782318472862244,0.1750301718711853,0.5276730060577393,-0.5677738785743713,0.9241028428077698,0.6413881778717041,0.6441183686256409,-0.3355485796928406,0.9838243722915649,0.0772438645362854,0.5413440465927124,-1.180450677871704,0.9365959167480469,0.6585406064987183,0.6873401999473572,-0.4284961223602295,0.970822811126709,0.0411284863948822,0.5339432954788208,-1.3064595460891724,0.9338079690933228,0.6429295539855957,0.6873742938041687,-0.5252280235290527,0.9741345643997192,0.028834374621510506,0.5145751237869263,-1.4045569896697998,0.9425522089004517,0.6316251754760742,0.6774158477783203,-0.3808565139770508,0.9751659035682678,0.05875342711806297,0.5139373540878296,-1.2374173402786255,0.9391723871231079,0.49642452597618103,0.6349578499794006,0.07750202715396881,0.9982942938804626,0.31676483154296875,0.6507758498191833,-0.07696137577295303,0.9982877373695374,0.4857637882232666,0.8399699926376343,0.2745148241519928,0.9722002148628235,0.340361088514328,0.8719609975814819,0.09213930368423462,0.9661504626274109,0.48535406589508057,0.9570136070251465,1.0455284118652344,0.9069340825080872,0.36092039942741394,0.9896913766860962,0.7117345333099365,0.9057557582855225,0.468254953622818,0.9702033400535583,1.1031221151351929,0.8567773699760437,0.368430495262146,0.9904261827468872,0.7577390670776367,0.6712421178817749,0.5343605279922485,1.0234363079071045,0.8277593851089478,0.8559516072273254,0.3741956055164337,1.075952172279358,0.3827489912509918,0.7931574583053589
19912.657227306037,0.45740750432014465,0.23361673951148987,-0.8418331146240234,0.9999853372573853,0.45850586891174316,0.20969703793525696,-0.7803019881248474,0.9999785423278809,0.46522387862205505,0.20842263102531433,-0.7806171178817749,0.999976396560669,0.4717448949813843,0.20718926191329956,-0.7807692289352417,0.9999752044677734,0.42890211939811707,0.2111920416355133,-0.8141594529151917,0.9999721050262451,0.4122219979763031,0.21115237474441528,-0.8141919374465942,0.9999657869338989,0.3926275968551636,0.2113388180732727,-0.8142519593238831,0.999957799911499,0.4578065276145935,0.21403226256370544,-0.4101741313934326,0.9999808073043823,0.3403535783290863,0.22094231843948364,-0.5767855644226074,0.9999650716781616,0.464102178812027,0.2551156282424927,-0.701886773109436,0.999990701675415,0.43312403559684753,0.25868016481399536,-0.7488859295845032,0.9999880790710449,0.5408223271369934,0.3501421809196472,-0.2077062875032425,0.9999500513076782,0.19396162033081055,0.3659617304801941,-0.38652870059013367,0.9996322393417358,0.5797502994537354,0.5105418562889099,-0.055291421711444855,0.9798657298088074,0.1725493222475052,0.5264334082603455,-0.5730751156806946,0.9302277565002441,0.6420283317565918,0.6444736123085022,-0.39380231499671936,0.9846805930137634,0.06976509094238281,0.5422088503837585,-1.2012540102005005,0.9465952515602112,0.659546971321106,0.6869733929634094,-0.4934803247451782,0.9716410040855408,0.025229930877685547,0.5364981889724731,-1.330858826637268,0.9441986083984375,0.6439563035964966,0.6870638132095337,-0.5954392552375793,0.9749451279640198,0.027177393436431885,0.5157725214958191,-1.4362646341323853,0.9521113038063049,0.6323201656341553,0.6775500774383545,-0.44248509407043457,0.9760282039642334,0.05353140830993652,0.5153056979179382,-1.2620489597320557,0.9494259357452393,0.49589186906814575,0.6345507502555847,0.07533964514732361,0.9981305003166199,0.31669241189956665,0.650343120098114,-0.07471111416816711,0.9982635378837585,0.48567405343055725,0.8413699269294739,0.2584460973739624,0.975788414478302,0.33664843440055847,0.8720932006835938,0.07702317833900452,0.9691787958145142,0.485404908657074,0.9612011909484863,1.0234501361846924,0.9097066521644592,0.3591514825820923,0.990397572517395,0.6927706003189087,0.9063774943351746,0.46849560737609863,0.974004328250885,1.0788999795913696,0.8538501262664795,0.36722591519355774,0.9921938180923462,0.7368857264518738,0.6633589863777161,0.5361114144325256,1.025002360343933,0.7891425490379333,0.8529326319694519,0.36754855513572693,1.077726125717163,0.3506920039653778,0.7920974493026733
19929.323893972705,0.45636633038520813,0.23294207453727722,-0.8610920310020447,0.9999877214431763,0.4578975439071655,0.20871341228485107,-0.7999247312545776,0.9999815225601196,0.4647596776485443,0.20742928981781006,-0.8002157211303711,0.9999796152114868,0.4713452458381653,0.2062254548072815,-0.8003276586532593,0.9999783039093018,0.42777422070503235,0.21031349897384644,-0.8319162130355835,0.9999765157699585,0.41065919399261475,0.210342139005661,-0.8319571614265442,0.9999716281890869,0.3909585773944855,0.21066197752952576,-0.8320197463035583,0.9999650716781616,0.457343190908432,0.2134602665901184,-0.43371251225471497,0.9999823570251465,0.33902254700660706,0.22075197100639343,-0.5926565527915955,0.999969482421875,0.46309542655944824,0.2544552981853485,-0.7232651114463806,0.9999921321868896,0.4315904676914215,0.25822341442108154,-0.7679826021194458,0.9999904632568359,0.5411972999572754,0.3508555591106415,-0.23802664875984192,0.9999531507492065,0.1935931146144867,0.36613035202026367,-0.40248724818229675,0.9996421337127686,0.5806162357330322,0.5108248591423035,-0.09209193289279938,0.982950747013092,0.1713060587644577,0.5271116495132446,-0.5922452807426453,0.9367437958717346,0.6421477198600769,0.6453253030776978,-0.4289231598377228,0.9868929982185364,0.07485228776931763,0.5424862504005432,-1.212606430053711,0.9450920820236206,0.659251868724823,0.6881706714630127,-0.5291300415992737,0.9748095870018005,0.02865108661353588,0.5366015434265137,-1.3405805826187134,0.9407520294189453,0.6441296339035034,0.6881171464920044,-0.6266913414001465,0.9776905179023743,0.03030589409172535,0.5160922408103943,-1.4416800737380981,0.9488407373428345,0.6327705383300781,0.6783522367477417,-0.47546300292015076,0.9785503149032593,0.05918118357658386,0.5153303146362305,-1.2711340188980103,0.9463093280792236,0.496364951133728,0.6343556642532349,0.074122354388237,0.9981170892715454,0.318448007106781,0.6502211093902588,-0.07355253398418427,0.9982341527938843,0.4863647520542145,0.8400320410728455,0.27285993099212646,0.9749225378036499,0.3373771905899048,0.8701507449150085,0.08204331994056702,0.9713749885559082,0.4846305251121521,0.9591905474662781,1.0325140953063965,0.917105495929718,0.3591010272502899,0.9879397749900818,0.6860798001289368,0.9148155450820923,0.46485745906829834,0.9719111919403076,1.0878615379333496,0.865609347820282,0.36457452178001404,0.9887319207191467,0.7292004227638245,0.6829121112823486,0.5389649868011475,1.022445797920227,0.803239107131958,0.8703103065490723,0.3743560016155243,1.0764176845550537,0.3455839157104492,0.8086255788803101
19945.990560639373,0.45510855317115784,0.2306583821773529,-0.7448133826255798,0.9999889135360718,0.4570189416408539,0.20742586255073547,-0.6825013160705566,0.9999836683273315,0.464215487241745,0.2063644528388977,-0.6827864050865173,0.9999823570251465,0.471183180809021,0.20535871386528015,-0.6828844547271729,0.9999814033508301,0.42656728625297546,0.20842504501342773,-0.7155126333236694,0.9999791383743286,0.4100757837295532,0.20808938145637512,-0.7155262231826782,0.9999752044677734,0.3911818861961365,0.2080535888671875,-0.715564489364624,0.9999685287475586,0.4577693045139313,0.21299898624420166,-0.336942583322525,0.9999854564666748,0.3398606777191162,0.21863171458244324,-0.5005447268486023,0.9999722242355347,0.4622080326080322,0.25281211733818054,-0.6167668104171753,0.999992847442627,0.4302380681037903,0.2559329867362976,-0.6627610921859741,0.9999909400939941,0.5404589176177979,0.35219886898994446,-0.17952962219715118,0.999951958656311,0.19370396435260773,0.36795324087142944,-0.3406837284564972,0.9995811581611633,0.5798376798629761,0.5096118450164795,-0.031135907396674156,0.9798040390014648,0.16161641478538513,0.5216800570487976,-0.5480868816375732,0.9201509952545166,0.6416701078414917,0.6456835269927979,-0.3135228753089905,0.9853745698928833,0.07188594341278076,0.5402864813804626,-1.1440999507904053,0.9219534397125244,0.6576333045959473,0.6879957914352417,-0.39949530363082886,0.9733759164810181,0.0232621431350708,0.5400076508522034,-1.2625826597213745,0.9204291105270386,0.6428863406181335,0.6873432397842407,-0.49188128113746643,0.9763575196266174,0.025401443243026733,0.5178935527801514,-1.3570940494537354,0.9306817650794983,0.6323208212852478,0.677162230014801,-0.3561955988407135,0.9774801731109619,0.028304457664489746,0.5052762031555176,-1.199803352355957,0.9293763041496277,0.49575385451316833,0.6348280310630798,0.06949382275342941,0.9983068704605103,0.32086944580078125,0.6507999897003174,-0.06892912089824677,0.9983512163162231,0.4854902923107147,0.8336869478225708,0.2578638195991516,0.9750256538391113,0.33943307399749756,0.8652529716491699,0.09379757940769196,0.9683547019958496,0.48556503653526306,0.9529286623001099,1.0081614255905151,0.914456844329834,0.35767096281051636,0.9843461513519287,0.682069718837738,0.9083514213562012,0.4691322147846222,0.9657164216041565,1.06429922580719,0.8591635823249817,0.3763577342033386,1.0041190385818481,0.7250930070877075,0.679999589920044,0.5314939022064209,1.019128441810608,0.8056384921073914,0.8612168431282043,0.37602782249450684,1.0709900856018066,0.3692437708377838,0.791290819644928
19962.65722730604,0.454872727394104,0.23104199767112732,-0.8365654945373535,0.999987006187439,0.45697975158691406,0.20717892050743103,-0.7788949012756348,0.9999805688858032,0.46409568190574646,0.2060113251209259,-0.7791623473167419,0.9999791383743286,0.4713450074195862,0.20481806993484497,-0.7792692184448242,0.9999780654907227,0.4259946346282959,0.20875200629234314,-0.8105639219284058,0.9999750852584839,0.40862607955932617,0.20860591530799866,-0.8106167316436768,0.999970555305481,0.3892920911312103,0.20866304636001587,-0.8106666207313538,0.9999631643295288,0.4587376117706299,0.21177712082862854,-0.4348698556423187,0.9999818801879883,0.33819448947906494,0.2186104953289032,-0.5926511883735657,0.9999655485153198,0.4617246389389038,0.2539762556552887,-0.7072879076004028,0.9999914169311523,0.4287375509738922,0.2575053572654724,-0.7515630722045898,0.9999892711639404,0.5423731207847595,0.3497985005378723,-0.2587885856628418,0.9999414682388306,0.19501739740371704,0.366515576839447,-0.4149768054485321,0.9995546936988831,0.5785345435142517,0.5093526244163513,-0.10817763954401016,0.9776615500450134,0.16917744278907776,0.5263576507568359,-0.5947858095169067,0.9174338579177856,0.6412979960441589,0.6445273160934448,-0.3872292637825012,0.98189777135849,0.07014837861061096,0.5378099083900452,-1.1687670946121216,0.9226369857788086,0.6567621231079102,0.6873059868812561,-0.47447454929351807,0.96755051612854,0.020700663328170776,0.5342192649841309,-1.2851582765579224,0.9226801991462708,0.6425864100456238,0.6870439052581787,-0.5687132477760315,0.9712544083595276,0.005782365798950195,0.5161647796630859,-1.3862969875335693,0.9333019256591797,0.632005512714386,0.6764093041419983,-0.4310706853866577,0.9733951091766357,0.038196414709091187,0.5150980353355408,-1.2272422313690186,0.9331356883049011,0.49866044521331787,0.631498396396637,0.06924623250961304,0.9980699419975281,0.3227500021457672,0.6472695469856262,-0.06870138645172119,0.998171329498291,0.48629671335220337,0.8314318060874939,0.27888432145118713,0.9775238037109375,0.3389202654361725,0.8631130456924438,0.09637843817472458,0.9745688438415527,0.4836108982563019,0.9519641995429993,1.008739709854126,0.9320452809333801,0.35402974486351013,0.9843824505805969,0.6714913249015808,0.9263882637023926,0.4653836190700531,0.9646465182304382,1.0623325109481812,0.8774310946464539,0.35911792516708374,0.9856464266777039,0.7131093144416809,0.7089604139328003,0.5292009115219116,1.0204486846923828,0.7995045781135559,0.8865178823471069,0.37321963906288147,1.0698328018188477,0.3546140789985657,0.8249975442886353
19979.32389397271,0.4551561176776886,0.2316635549068451,-0.8549704551696777,0.9999842643737793,0.45806634426116943,0.20759835839271545,-0.7964509129524231,0.9999761581420898,0.4652945399284363,0.2063848376274109,-0.7967157959938049,0.999974250793457,0.4723680913448334,0.20510682463645935,-0.796845018863678,0.9999730587005615,0.4275904595851898,0.2095828354358673,-0.828658938407898,0.999970555305481,0.4102822542190552,0.2096916139125824,-0.8287221193313599,0.9999650716781616,0.39084574580192566,0.20991161465644836,-0.8287856578826904,0.9999563694000244,0.4595573842525482,0.2117462456226349,-0.44223514199256897,0.9999771118164062,0.338527649641037,0.21947124600410461,-0.6023939251899719,0.9999598264694214,0.4613192081451416,0.2545774579048157,-0.7212885618209839,0.9999895095825195,0.42800000309944153,0.2579072415828705,-0.7662627100944519,0.9999873638153076,0.5405981540679932,0.3492794930934906,-0.24935774505138397,0.9999291896820068,0.19636480510234833,0.3647386431694031,-0.4208771288394928,0.9995825886726379,0.5778259038925171,0.5091494917869568,-0.1014910414814949,0.9734068512916565,0.1755216270685196,0.5250151753425598,-0.5993657112121582,0.9112662672996521,0.6392312049865723,0.6452979445457458,-0.3994581699371338,0.9772327542304993,0.06907972693443298,0.5370507836341858,-1.1784231662750244,0.9094852209091187,0.6555030345916748,0.6875718832015991,-0.49032652378082275,0.9599088430404663,0.015207111835479736,0.5372360348701477,-1.2978664636611938,0.9095977544784546,0.6421027183532715,0.6877453923225403,-0.5872554183006287,0.9644977450370789,0.016162782907485962,0.5216135382652283,-1.3990341424942017,0.9216328263282776,0.6320098042488098,0.6769066452980042,-0.44516393542289734,0.9670000076293945,0.03291285037994385,0.5226927399635315,-1.236941933631897,0.9213704466819763,0.49776458740234375,0.6302709579467773,0.0787220448255539,0.9975060820579529,0.3220108151435852,0.6457154750823975,-0.07816064357757568,0.9980480670928955,0.48656630516052246,0.833102285861969,0.2998134195804596,0.9744798541069031,0.34055522084236145,0.8636584281921387,0.0706263929605484,0.9742540717124939,0.48215192556381226,0.9506512880325317,1.0373259782791138,0.9229240417480469,0.3558969795703888,0.9837738275527954,0.6280965805053711,0.9258089065551758,0.4604438841342926,0.9628645181655884,1.091395616531372,0.8662511706352234,0.37176182866096497,1.0069081783294678,0.6664610505104065,0.7026868462562561,0.5319815874099731,1.0166442394256592,0.8234080076217651,0.8748438954353333,0.3747684955596924,1.0748252868652344,0.2912032902240753,0.8220177292823792
19995.990560639377,0.4550358057022095,0.2304113507270813,-0.8171842098236084,0.9999864101409912,0.45727819204330444,0.2067146599292755,-0.7573705315589905,0.9999796152114868,0.46445244550704956,0.20565080642700195,-0.7576576471328735,0.9999780654907227,0.47171080112457275,0.2046370506286621,-0.7577856779098511,0.9999767541885376,0.4261762797832489,0.20789527893066406,-0.7893494963645935,0.9999737739562988,0.40923386812210083,0.20758870244026184,-0.7893836498260498,0.9999688863754272,0.3902391195297241,0.20752686262130737,-0.7894576787948608,0.9999608993530273,0.45908787846565247,0.21156221628189087,-0.40465807914733887,0.9999817609786987,0.33989548683166504,0.21708405017852783,-0.5638198852539062,0.999966025352478,0.461748331785202,0.25306206941604614,-0.6845566630363464,0.9999909400939941,0.42931944131851196,0.25575339794158936,-0.7293391823768616,0.9999886751174927,0.5430566668510437,0.3512352705001831,-0.2234441637992859,0.9999427795410156,0.19426415860652924,0.3653401732444763,-0.3824581503868103,0.9995755553245544,0.5813464522361755,0.5119508504867554,-0.06651602685451508,0.9767951369285583,0.16335013508796692,0.5274214744567871,-0.5706911683082581,0.9129120111465454,0.6428229808807373,0.6464698910713196,-0.3545756936073303,0.981123149394989,0.06407910585403442,0.5373876094818115,-1.1653058528900146,0.9193448424339294,0.6580744981765747,0.6884518265724182,-0.44212839007377625,0.9665079712867737,0.0010596811771392822,0.5257623195648193,-1.2836191654205322,0.9190630316734314,0.643425703048706,0.6880643367767334,-0.5384337306022644,0.9702852368354797,-0.002754300832748413,0.515473484992981,-1.3873345851898193,0.9301245212554932,0.6328208446502686,0.6775730848312378,-0.39933812618255615,0.9721583724021912,0.031174182891845703,0.5146775245666504,-1.2249263525009155,0.9296506643295288,0.4974006712436676,0.633073627948761,0.06811767816543579,0.9981359243392944,0.3201811611652374,0.6480830311775208,-0.067543625831604,0.9983188509941101,0.4844723641872406,0.8350743055343628,0.2665579915046692,0.9783454537391663,0.33956342935562134,0.866344153881073,0.08800701051950455,0.9710953235626221,0.48510801792144775,0.956623911857605,1.0184216499328613,0.9276239275932312,0.35691964626312256,0.9891846776008606,0.6755861639976501,0.9179044961929321,0.46807676553726196,0.9684394001960754,1.0734843015670776,0.8714247941970825,0.3774860203266144,1.0077121257781982,0.7178016304969788,0.690836489200592,0.5276461839675903,1.0259902477264404,0.7981544733047485,0.8735477924346924,0.3694911301136017,1.0764906406402588,0.34445151686668396,0.8071526288986206
20012.657227306045,0.4542389512062073,0.23207557201385498,-0.8545102477073669,0.9999856948852539,0.45774897933006287,0.20816254615783691,-0.7944368124008179,0.9999785423278809,0.4651225209236145,0.2069471776485443,-0.7947154641151428,0.9999767541885376,0.4724159240722656,0.20568767189979553,-0.7948430776596069,0.9999759197235107,0.4264654219150543,0.21012920141220093,-0.8264154195785522,0.9999721050262451,0.40919259190559387,0.21012142300605774,-0.8264678716659546,0.9999662637710571,0.389922559261322,0.2102419137954712,-0.8265256285667419,0.9999573230743408,0.46048253774642944,0.21195465326309204,-0.43704500794410706,0.9999797344207764,0.33898594975471497,0.21899917721748352,-0.5967171788215637,0.9999592304229736,0.46119534969329834,0.2544669210910797,-0.7202200293540955,0.9999904632568359,0.4281156063079834,0.2577298581600189,-0.7650992274284363,0.9999876022338867,0.5414084196090698,0.3511529564857483,-0.2539117634296417,0.9999449253082275,0.19430303573608398,0.365280419588089,-0.40892884135246277,0.9995571970939636,0.580713152885437,0.5106967687606812,-0.10977835208177567,0.9790971875190735,0.166244238615036,0.5256174802780151,-0.5860683917999268,0.9056587219238281,0.6412473320960999,0.6468223929405212,-0.41127586364746094,0.9832079410552979,0.048479318618774414,0.5384272933006287,-1.1722553968429565,0.9073492288589478,0.6562662124633789,0.6884444952011108,-0.5026893019676208,0.9692873358726501,-0.01081278920173645,0.5274882316589355,-1.2910547256469727,0.9082823395729065,0.6418594121932983,0.6881311535835266,-0.5999646186828613,0.9727593660354614,-0.02909013442695141,0.5079618692398071,-1.397491693496704,0.9208251237869263,0.6314811706542969,0.677291214466095,-0.4566514790058136,0.97409987449646,0.02406841516494751,0.5200517773628235,-1.2334471940994263,0.9211704134941101,0.49753767251968384,0.6312365531921387,0.07487402856349945,0.9980102181434631,0.32258403301239014,0.6464602947235107,-0.07435677200555801,0.9982858300209045,0.48589369654655457,0.8321911096572876,0.29336926341056824,0.9765735864639282,0.3390185236930847,0.8620324730873108,0.08504892140626907,0.9739675521850586,0.48226040601730347,0.9534778594970703,1.039520263671875,0.9293153285980225,0.35633453726768494,0.9834861755371094,0.664844274520874,0.9287772178649902,0.46259358525276184,0.9661750197410583,1.094339370727539,0.8778603672981262,0.3732984662055969,1.0049313306808472,0.7055253982543945,0.7116419672966003,0.5315580368041992,1.0186989307403564,0.8250786662101746,0.8854724168777466,0.37124067544937134,1.072703242301941,0.3334667682647705,0.8310967683792114
20029.323893972713,0.4536401927471161,0.23096773028373718,-0.8329311013221741,0.9999816417694092,0.4568904936313629,0.20653307437896729,-0.7726738452911377,0.999974250793457,0.46440279483795166,0.2053106129169464,-0.7729902863502502,0.9999731779098511,0.47194281220436096,0.20412859320640564,-0.7732115983963013,0.9999723434448242,0.4246329367160797,0.20825877785682678,-0.804905116558075,0.9999642372131348,0.4064878225326538,0.20825478434562683,-0.804955244064331,0.9999569654464722,0.38771867752075195,0.20845109224319458,-0.8050479888916016,0.9999445676803589,0.46125608682632446,0.21117767691612244,-0.41052430868148804,0.9999803304672241,0.3378554880619049,0.21848183870315552,-0.5698067545890808,0.9999535083770752,0.4618581533432007,0.2537926137447357,-0.6955621838569641,0.9999890327453613,0.427377849817276,0.2569989264011383,-0.7405685186386108,0.9999836683273315,0.5425029397010803,0.34976816177368164,-0.21782808005809784,0.9999446868896484,0.1958720088005066,0.36459091305732727,-0.3722533881664276,0.9994264841079712,0.5807239413261414,0.5106831192970276,-0.04859936609864235,0.9741713404655457,0.15836802124977112,0.5257270336151123,-0.554458737373352,0.8734294176101685,0.6427561044692993,0.6465685963630676,-0.32369929552078247,0.9766525030136108,0.04085591435432434,0.5390971302986145,-1.1531586647033691,0.8763685822486877,0.657257080078125,0.6896419525146484,-0.40769141912460327,0.9594263434410095,-0.012976229190826416,0.5246315002441406,-1.268870234489441,0.8812772035598755,0.6435375213623047,0.6889978051185608,-0.5067208409309387,0.9640441536903381,-0.031436413526535034,0.5053958892822266,-1.3759663105010986,0.8970240354537964,0.6338529586791992,0.6782730221748352,-0.36882126331329346,0.9660128355026245,-0.0018255412578582764,0.5046241283416748,-1.2145010232925415,0.8983832001686096,0.5001614093780518,0.6327868700027466,0.062215931713581085,0.9977899789810181,0.3231772184371948,0.6497732996940613,-0.06162525340914726,0.9978880286216736,0.4856412708759308,0.83878493309021,0.21864275634288788,0.9756503105163574,0.3418668508529663,0.8678237199783325,0.07465220242738724,0.9577257633209229,0.48790228366851807,0.9580463767051697,1.0070725679397583,0.9058548212051392,0.3603370189666748,0.9888671636581421,0.690028190612793,0.8874177932739258,0.47133341431617737,0.9685666561126709,1.065335988998413,0.8256155848503113,0.381703644990921,1.0140349864959717,0.7346452474594116,0.6127181053161621,0.5285390615463257,1.0260844230651855,0.7774254679679871,0.829491913318634,0.36491459608078003,1.0837231874465942,0.3485178053379059,0.7525806427001953
20045.99056063938,0.4594843089580536,0.23075321316719055,-0.7799401879310608,0.9999847412109375,0.46025270223617554,0.20747411251068115,-0.7185450196266174,0.9999783039093018,0.4668511748313904,0.2063695788383484,-0.7188463807106018,0.999976396560669,0.47322359681129456,0.2052907645702362,-0.7189801335334778,0.999975323677063,0.4309726059436798,0.2085505723953247,-0.7545781135559082,0.9999713897705078,0.4146159887313843,0.2082117795944214,-0.7546122670173645,0.9999650716781616,0.3950779438018799,0.20811575651168823,-0.7546776533126831,0.9999556541442871,0.45667481422424316,0.21207958459854126,-0.3656303286552429,0.9999812841415405,0.34177786111831665,0.21852627396583557,-0.5429600477218628,0.9999630451202393,0.46527379751205444,0.2529095411300659,-0.6479218006134033,0.9999912977218628,0.434613972902298,0.25636914372444153,-0.697841465473175,0.9999886751174927,0.538253664970398,0.3501807451248169,-0.1918696016073227,0.9999480247497559,0.19259113073349,0.36601901054382324,-0.3767959475517273,0.9995908141136169,0.5780677795410156,0.5116269588470459,-0.04409073665738106,0.9773499369621277,0.1629580706357956,0.526485025882721,-0.5732385516166687,0.9249318838119507,0.6417726278305054,0.6463785767555237,-0.3545165956020355,0.9841103553771973,0.0689665675163269,0.5383347272872925,-1.1682461500167847,0.9322798848152161,0.6558438539505005,0.688735842704773,-0.4474456310272217,0.9714623093605042,0.022944211959838867,0.5348052978515625,-1.2892825603485107,0.9320472478866577,0.6410268545150757,0.6887502670288086,-0.5431364178657532,0.9747837781906128,-0.010766685009002686,0.5001451969146729,-1.3905551433563232,0.9415292143821716,0.6310532689094543,0.6789236068725586,-0.39969366788864136,0.9760684967041016,0.017079204320907593,0.5000708699226379,-1.2269214391708374,0.9399980306625366,0.4998631179332733,0.6349266171455383,0.084689199924469,0.9981623291969299,0.32470136880874634,0.6514307856559753,-0.08410067856311798,0.9983683228492737,0.4865635931491852,0.8395414352416992,0.2858210802078247,0.9706821441650391,0.34171491861343384,0.8692349195480347,0.07402542978525162,0.9656717777252197,0.4846695363521576,0.956492006778717,1.0798448324203491,0.8934997320175171,0.3591974675655365,0.9861878752708435,0.6864175796508789,0.8922716379165649,0.46409958600997925,0.9684836864471436,1.1406185626983643,0.8454702496528625,0.37286892533302307,1.011282205581665,0.7318987250328064,0.6447560787200928,0.5351718664169312,1.0207123756408691,0.8795197010040283,0.8338852524757385,0.37779906392097473,1.0795220136642456,0.3633629083633423,0.758993923664093
20062.65722730605,0.4599059224128723,0.2315410077571869,-0.7065939903259277,0.9999830722808838,0.4607956111431122,0.20802733302116394,-0.6450680494308472,0.9999762773513794,0.46746817231178284,0.20691773295402527,-0.6454060673713684,0.9999750852584839,0.4739387035369873,0.2058141529560089,-0.6456267833709717,0.9999744892120361,0.43124520778656006,0.20929065346717834,-0.6807270646095276,0.9999669790267944,0.4145318865776062,0.2089782953262329,-0.6807662844657898,0.9999604225158691,0.39488428831100464,0.20887979865074158,-0.6808439493179321,0.9999493360519409,0.45735880732536316,0.21277031302452087,-0.29727500677108765,0.9999823570251465,0.34103628993034363,0.21915367245674133,-0.47093334794044495,0.9999606609344482,0.4656286835670471,0.2539805471897125,-0.5757665634155273,0.9999908208847046,0.4343591630458832,0.2573823928833008,-0.6248398423194885,0.9999867677688599,0.5386314988136292,0.3504454493522644,-0.12477879971265793,0.9999505281448364,0.19528824090957642,0.36691048741340637,-0.3131343722343445,0.9995357990264893,0.5801696181297302,0.5116944313049316,0.04627074673771858,0.9756327867507935,0.16378597915172577,0.5277374386787415,-0.5046707391738892,0.914527416229248,0.640533447265625,0.646530032157898,-0.22334443032741547,0.9822061061859131,0.0679556131362915,0.5400882959365845,-1.0982728004455566,0.9248877763748169,0.655184268951416,0.6889846324920654,-0.30753666162490845,0.9692313075065613,0.019807636737823486,0.534654438495636,-1.215584635734558,0.9271369576454163,0.6404367685317993,0.688792884349823,-0.4030384123325348,0.9728375673294067,-0.012513965368270874,0.5022432804107666,-1.3179101943969727,0.937351405620575,0.6297892928123474,0.679023027420044,-0.26684409379959106,0.9741019010543823,0.015767544507980347,0.5019955635070801,-1.1570457220077515,0.9357022643089294,0.500618577003479,0.6378785371780396,0.08175865560770035,0.9981985688209534,0.3228684365749359,0.6543013453483582,-0.08115056902170181,0.9982390403747559,0.4847313165664673,0.8483019471168518,0.20564021170139313,0.9694678783416748,0.3438475430011749,0.8784750699996948,0.047549132257699966,0.9547156095504761,0.4846935272216797,0.9601284265518188,1.0153422355651855,0.8666020035743713,0.36087366938591003,0.9952663779258728,0.6671596169471741,0.8608236908912659,0.46577969193458557,0.9697932600975037,1.0781277418136597,0.8036107420921326,0.3751787841320038,1.0206023454666138,0.7139108777046204,0.5759565830230713,0.5508441925048828,1.0341415405273438,0.8201055526733398,0.7820734977722168,0.3810313045978546,1.089796543121338,0.3468044698238373,0.7011768817901611
20079.323893972716,0.454636812210083,0.23125594854354858,-0.8484370708465576,0.9999841451644897,0.4582568109035492,0.20766061544418335,-0.7892098426818848,0.999976396560669,0.46579501032829285,0.20648396015167236,-0.7895005941390991,0.9999747276306152,0.4734453856945038,0.20532706379890442,-0.7896757125854492,0.9999737739562988,0.426311731338501,0.2088707685470581,-0.8214010000228882,0.9999699592590332,0.40884608030319214,0.20841330289840698,-0.8214828372001648,0.9999638795852661,0.3901546001434326,0.20812135934829712,-0.8215886950492859,0.9999549388885498,0.46217337250709534,0.21186012029647827,-0.4298962652683258,0.999981164932251,0.3400609791278839,0.21707448363304138,-0.5882553458213806,0.9999605417251587,0.46177569031715393,0.25367051362991333,-0.7121933102607727,0.9999915361404419,0.42857909202575684,0.25639796257019043,-0.7570518255233765,0.9999890327453613,0.5439929962158203,0.3515917658805847,-0.23656420409679413,0.9999383687973022,0.19225327670574188,0.36371755599975586,-0.3994283378124237,0.9995825886726379,0.5794143676757812,0.5114775896072388,-0.0770813375711441,0.9754508137702942,0.16631750762462616,0.5225507616996765,-0.5886242389678955,0.8897334337234497,0.6377385258674622,0.6461131572723389,-0.3754447400569916,0.975276529788971,0.08872225880622864,0.537115216255188,-1.199358344078064,0.8843863606452942,0.6544157266616821,0.6875498294830322,-0.46665632724761963,0.9579030275344849,0.04170370101928711,0.5389596819877625,-1.3219139575958252,0.8894719481468201,0.6395682096481323,0.6873127222061157,-0.5647302269935608,0.9627342820167542,0.02787974663078785,0.5251781344413757,-1.421271800994873,0.9032115340232849,0.6284363865852356,0.6762653589248657,-0.4207156002521515,0.9643539190292358,0.05933213233947754,0.5217904448509216,-1.2570441961288452,0.9007225036621094,0.4989031255245209,0.63052898645401,0.0694781020283699,0.9975047707557678,0.31977617740631104,0.6449887156486511,-0.06890227645635605,0.9979652166366577,0.4871150553226471,0.8354833126068115,0.24856442213058472,0.9771832227706909,0.339992880821228,0.8681235313415527,0.06467198580503464,0.9692979454994202,0.48417508602142334,0.959045946598053,1.0321414470672607,0.9156497716903687,0.3580768406391144,0.9919347763061523,0.6592646241188049,0.9122107625007629,0.46615782380104065,0.9677163362503052,1.0907769203186035,0.8441348075866699,0.37664568424224854,1.0131982564926147,0.7013506889343262,0.668854296207428,0.5276292562484741,1.0236648321151733,0.8077371120452881,0.8618859052658081,0.3821716010570526,1.0802276134490967,0.3141918480396271,0.7995758056640625
20095.990560639384,0.4610860347747803,0.23669511079788208,-0.8165956139564514,0.9999816417694092,0.46243229508399963,0.2127019762992859,-0.7585417628288269,0.9999737739562988,0.4690260589122772,0.21132275462150574,-0.7588485479354858,0.9999712705612183,0.47547897696495056,0.20995616912841797,-0.7590325474739075,0.9999698400497437,0.4333433210849762,0.21427100896835327,-0.7957196235656738,0.9999662637710571,0.4170977473258972,0.2136789858341217,-0.7958055734634399,0.9999591112136841,0.39731431007385254,0.21307387948036194,-0.7959141135215759,0.9999490976333618,0.45994114875793457,0.21505868434906006,-0.396679162979126,0.999976634979248,0.3442559540271759,0.22069811820983887,-0.5798441767692566,0.9999592304229736,0.4664716124534607,0.2578352689743042,-0.6779724955558777,0.9999890327453613,0.4356747269630432,0.26171404123306274,-0.7297568917274475,0.9999864101409912,0.538930356502533,0.3499971628189087,-0.1977531611919403,0.9999536275863647,0.1967921257019043,0.3626365661621094,-0.3983500301837921,0.9996541738510132,0.5770493745803833,0.5113353133201599,-0.03857283294200897,0.9777042865753174,0.16360269486904144,0.525611400604248,-0.5845231413841248,0.9270148873329163,0.6387101411819458,0.6454270482063293,-0.3461604118347168,0.984124481678009,0.0604531466960907,0.5410324335098267,-1.1634423732757568,0.9314404726028442,0.6556241512298584,0.6884254217147827,-0.43591248989105225,0.9713401198387146,-0.007651001214981079,0.5249127149581909,-1.2812902927398682,0.9308200478553772,0.6403432488441467,0.6883242130279541,-0.5342851877212524,0.974585235118866,-0.025629043579101562,0.5047594308853149,-1.3888394832611084,0.940670907497406,0.6293647289276123,0.6786025166511536,-0.391842782497406,0.9754251837730408,0.003541231155395508,0.5048106908798218,-1.223607063293457,0.9385601878166199,0.4993654489517212,0.6353268623352051,0.08719917386770248,0.9978103041648865,0.32260191440582275,0.6529796123504639,-0.08664525300264359,0.998155415058136,0.4873034954071045,0.8439568281173706,0.29209473729133606,0.9673669934272766,0.3416910171508789,0.8737554550170898,0.04858699440956116,0.9604426622390747,0.4829656779766083,0.9564890265464783,1.0569891929626465,0.8832778334617615,0.3589384853839874,0.9895756244659424,0.6264756917953491,0.883115291595459,0.4630321264266968,0.9681696891784668,1.1147797107696533,0.8349510431289673,0.371437668800354,1.0180704593658447,0.6678866147994995,0.6201256513595581,0.5339285135269165,1.022129774093628,0.8485852479934692,0.8225124478340149,0.3775815963745117,1.0858443975448608,0.28736618161201477,0.748072624206543
20112.657227306052,0.461505651473999,0.2307635247707367,-0.7958719730377197,0.9999839067459106,0.46300944685935974,0.20745056867599487,-0.7319866418838501,0.9999771118164062,0.46986639499664307,0.2064814567565918,-0.7322859764099121,0.9999750852584839,0.4763103425502777,0.20564627647399902,-0.7324268817901611,0.9999737739562988,0.43267545104026794,0.2081815004348755,-0.7675716280937195,0.9999704360961914,0.41609036922454834,0.2077222764492035,-0.7676220536231995,0.999964714050293,0.39672237634658813,0.2074773609638214,-0.7677026391029358,0.9999550580978394,0.4610176682472229,0.2129119634628296,-0.3639877140522003,0.9999793767929077,0.3444683253765106,0.21745097637176514,-0.5394079089164734,0.9999631643295288,0.4673822224140167,0.25258100032806396,-0.6580121517181396,0.9999902248382568,0.43572813272476196,0.2555028200149536,-0.7075275182723999,0.9999879598617554,0.5374475717544556,0.3506925404071808,-0.17047303915023804,0.9999479055404663,0.1974465250968933,0.3641839325428009,-0.37158912420272827,0.9995635151863098,0.5781777501106262,0.5108351707458496,0.00077868124935776,0.9768072962760925,0.16382946074008942,0.5268218517303467,-0.5781747698783875,0.9160702228546143,0.6380913257598877,0.6447808742523193,-0.28983259201049805,0.9847974181175232,0.07216939330101013,0.5385349988937378,-1.1833325624465942,0.9203977584838867,0.6540946364402771,0.6874104142189026,-0.37866494059562683,0.9725214242935181,0.020881682634353638,0.534899115562439,-1.306665301322937,0.9201881289482117,0.6389089226722717,0.687319278717041,-0.475064218044281,0.9756518602371216,0.0009526908397674561,0.5001225471496582,-1.406874656677246,0.9306813478469849,0.6279550790786743,0.6774170398712158,-0.33414626121520996,0.9763245582580566,0.0268383901566267,0.4998601973056793,-1.2410343885421753,0.9282464981079102,0.49962228536605835,0.6367494463920593,0.09156502783298492,0.9982240796089172,0.3204348683357239,0.6533471941947937,-0.09101304411888123,0.9983539581298828,0.4872850477695465,0.842400074005127,0.2918913662433624,0.9686031341552734,0.34059223532676697,0.8707320690155029,0.06949476897716522,0.9619553089141846,0.48371925950050354,0.9581303596496582,1.0847996473312378,0.8934260606765747,0.36185017228126526,0.9936195611953735,0.6849405169487,0.8902593851089478,0.46467912197113037,0.9710395932197571,1.1453801393508911,0.8423169255256653,0.37327536940574646,1.0173795223236084,0.7302353978157043,0.6320134997367859,0.5376216173171997,1.021713137626648,0.8742863535881042,0.8373588919639587,0.3882664442062378,1.085319995880127,0.3477059602737427,0.7605975270271301
20129.32389397272,0.4568004608154297,0.23298165202140808,-0.8592285513877869,0.9999885559082031,0.46089473366737366,0.2087242305278778,-0.7991328835487366,0.9999829530715942,0.46829214692115784,0.20766082406044006,-0.7993980050086975,0.9999818801879883,0.47534090280532837,0.2065528929233551,-0.7995190024375916,0.9999805688858032,0.4309009313583374,0.21021726727485657,-0.8316469192504883,0.9999785423278809,0.41400277614593506,0.21001246571540833,-0.8317055106163025,0.9999741315841675,0.3949586749076843,0.20996320247650146,-0.8317554593086243,0.9999666213989258,0.4636874496936798,0.21252411603927612,-0.43614116311073303,0.9999847412109375,0.3436916768550873,0.21873944997787476,-0.5988672375679016,0.9999699592590332,0.4627876281738281,0.25527310371398926,-0.7224243879318237,0.9999927282333374,0.430260568857193,0.2576296925544739,-0.7681699395179749,0.9999905824661255,0.5407209992408752,0.3505609631538391,-0.2464044988155365,0.9999476671218872,0.19692733883857727,0.3626538813114166,-0.40711307525634766,0.9996641874313354,0.5780089497566223,0.512889564037323,-0.10193434357643127,0.979194700717926,0.16643308103084564,0.5209565758705139,-0.5951309204101562,0.9221417307853699,0.6371117830276489,0.6467490792274475,-0.4197649359703064,0.9838712215423584,0.07082149386405945,0.5403133630752563,-1.20950186252594,0.9235820174217224,0.6541971564292908,0.6885144114494324,-0.5158079862594604,0.9700441360473633,0.020243704319000244,0.539574384689331,-1.335012435913086,0.9220731854438782,0.6390925645828247,0.6883223056793213,-0.6153251528739929,0.9733840227127075,0.015686601400375366,0.5226430892944336,-1.436945915222168,0.9323748350143433,0.6269822716712952,0.6784324645996094,-0.4663375914096832,0.9743942618370056,0.015922337770462036,0.5080974698066711,-1.2692853212356567,0.9315490126609802,0.5002585053443909,0.6314703822135925,0.07149593532085419,0.9975257515907288,0.3237585723400116,0.6486701369285583,-0.07086969166994095,0.9982609152793884,0.4878046214580536,0.831544816493988,0.3021396994590759,0.9745413064956665,0.33806946873664856,0.8680839538574219,0.0735955759882927,0.9708325862884521,0.4817824065685272,0.9494603872299194,1.0657540559768677,0.9109964370727539,0.35748782753944397,0.9863039255142212,0.6376762986183167,0.9146527647972107,0.46098849177360535,0.965711236000061,1.1225506067276,0.8553547859191895,0.3657011091709137,0.9879370927810669,0.6757734417915344,0.6781054139137268,0.5321965217590332,1.0180878639221191,0.8511916995048523,0.858747661113739,0.36851781606674194,1.0817896127700806,0.2899143397808075,0.7991909384727478
20145.990560639388,0.45956677198410034,0.23178958892822266,-0.8143141269683838,0.9999874830245972,0.4641665816307068,0.20816606283187866,-0.7526854872703552,0.9999802112579346,0.4714427888393402,0.20749136805534363,-0.7529494762420654,0.9999790191650391,0.47801628708839417,0.2067652940750122,-0.7530122995376587,0.999976396560669,0.43448391556739807,0.20866000652313232,-0.786765992641449,0.9999754428863525,0.4174908995628357,0.20817986130714417,-0.7867621779441833,0.999971866607666,0.39768552780151367,0.20819765329360962,-0.7867689728736877,0.9999639987945557,0.46472081542015076,0.21270716190338135,-0.3901529610157013,0.9999802112579346,0.3438001871109009,0.21740716695785522,-0.5597634315490723,0.9999680519104004,0.46329793334007263,0.2543313801288605,-0.6787689328193665,0.9999909400939941,0.43104925751686096,0.256284236907959,-0.7263810038566589,0.9999892711639404,0.5377471446990967,0.34839823842048645,-0.2015715390443802,0.9999372959136963,0.19415028393268585,0.3638227581977844,-0.3734561502933502,0.9997023940086365,0.5777295231819153,0.5095064640045166,-0.047395192086696625,0.9738184213638306,0.1722840517759323,0.5201810002326965,-0.5623434782028198,0.9417290687561035,0.6332554817199707,0.6448335647583008,-0.374679833650589,0.9791669845581055,0.06717789173126221,0.5403810739517212,-1.1914246082305908,0.9510690569877625,0.6533705592155457,0.6880663633346558,-0.46986037492752075,0.9628161787986755,0.028190195560455322,0.5378257632255554,-1.320724606513977,0.9484165906906128,0.6393125057220459,0.6886799335479736,-0.5709750652313232,0.9668267965316772,0.016430914402008057,0.5220494866371155,-1.418792486190796,0.9553112387657166,0.626384973526001,0.6789255738258362,-0.4230298101902008,0.968838095664978,0.04435467720031738,0.5210508704185486,-1.249617338180542,0.9531179070472717,0.49654126167297363,0.6349896192550659,0.07256348431110382,0.9979361295700073,0.31887155771255493,0.6506730318069458,-0.0719512477517128,0.9984257221221924,0.48797914385795593,0.8358923196792603,0.30672571063041687,0.9799224138259888,0.34083518385887146,0.8657755851745605,0.07876822352409363,0.9786376357078552,0.4886475205421448,0.9568679332733154,1.0597951412200928,0.9324270486831665,0.3569207191467285,0.985717236995697,0.6481450200080872,0.9290308356285095,0.47166597843170166,0.9715512990951538,1.1141561269760132,0.8758792877197266,0.36149412393569946,0.9873949885368347,0.687131941318512,0.7163748145103455,0.5384945273399353,1.0232534408569336,0.8342282772064209,0.884896457195282,0.36810144782066345,1.0751028060913086,0.3069727122783661,0.8306666612625122
20162.657227306056,0.45764365792274475,0.2327793836593628,-0.8917368054389954,0.9999854564666748,0.4630044996738434,0.20878487825393677,-0.8301777243614197,0.9999772310256958,0.4703992009162903,0.20798608660697937,-0.8304550647735596,0.999975323677063,0.47712934017181396,0.20717006921768188,-0.8305705189704895,0.9999730587005615,0.4331483840942383,0.20964741706848145,-0.8622800707817078,0.9999710321426392,0.4160066246986389,0.20938003063201904,-0.8623183369636536,0.9999651908874512,0.39629703760147095,0.20960941910743713,-0.8623573780059814,0.9999558925628662,0.46482473611831665,0.21296149492263794,-0.4530492126941681,0.9999778270721436,0.3427380919456482,0.21877971291542053,-0.6145426034927368,0.9999607801437378,0.4615129232406616,0.2552671730518341,-0.7492334842681885,0.9999895095825195,0.42871975898742676,0.2573651671409607,-0.7947583794593811,0.9999871253967285,0.5386761426925659,0.3481009006500244,-0.25065091252326965,0.9999371767044067,0.193752259016037,0.36258724331855774,-0.4014281630516052,0.9996138215065002,0.5795616507530212,0.5100460052490234,-0.09678544104099274,0.977627158164978,0.16616299748420715,0.5170276165008545,-0.5883992910385132,0.9246385097503662,0.6333557367324829,0.6474776864051819,-0.430198609828949,0.9812167882919312,0.07165724039077759,0.537547767162323,-1.2254058122634888,0.9309343099594116,0.651150107383728,0.6905493140220642,-0.5286002159118652,0.9650528430938721,0.03602144122123718,0.5342715382575989,-1.3554657697677612,0.9269880652427673,0.6371423602104187,0.6911786198616028,-0.6316674947738647,0.9687220454216003,0.016346663236618042,0.5180966258049011,-1.453938603401184,0.9363681674003601,0.624723494052887,0.6805772185325623,-0.4785657823085785,0.969961941242218,0.04737851023674011,0.5169780850410461,-1.2836767435073853,0.9339863657951355,0.4976623058319092,0.6328740119934082,0.06433895230293274,0.9979730248451233,0.31916213035583496,0.6481658220291138,-0.06373972445726395,0.9983643889427185,0.4871550500392914,0.8386555910110474,0.266144335269928,0.9819351434707642,0.3394554853439331,0.8699097633361816,0.0814906656742096,0.9770833253860474,0.48823732137680054,0.9612401723861694,1.043304204940796,0.9367632269859314,0.358483225107193,0.9931221008300781,0.689666211605072,0.9366265535354614,0.47106295824050903,0.9745227694511414,1.0995261669158936,0.8862815499305725,0.36739152669906616,0.9941378235816956,0.7316144704818726,0.7216259241104126,0.5394939184188843,1.02664053440094,0.8061642646789551,0.8947147130966187,0.35986781120300293,1.0790292024612427,0.33579370379447937,0.849021315574646
20179.323893972723,0.4648718535900116,0.23255211114883423,-0.8349095582962036,0.9999898672103882,0.46677282452583313,0.2087520956993103,-0.7754411697387695,0.9999850988388062,0.4735320210456848,0.2076931595802307,-0.7756785750389099,0.9999837875366211,0.47966450452804565,0.2065061628818512,-0.7757575511932373,0.9999817609786987,0.43754348158836365,0.21071740984916687,-0.8101081252098083,0.9999827146530151,0.42115217447280884,0.21059393882751465,-0.8101369142532349,0.9999802112579346,0.4012191593647003,0.21085402369499207,-0.8101575970649719,0.9999750852584839,0.46329939365386963,0.2130374312400818,-0.4208868741989136,0.9999861717224121,0.346128910779953,0.2200021743774414,-0.5927634835243225,0.999980092048645,0.4692758619785309,0.25475171208381653,-0.7016580700874329,0.999993085861206,0.43716832995414734,0.25824132561683655,-0.7497807145118713,0.9999926090240479,0.5427038669586182,0.35058602690696716,-0.22950398921966553,0.9999363422393799,0.19984932243824005,0.36495062708854675,-0.4238485097885132,0.9997321963310242,0.580501139163971,0.5125782489776611,-0.06100039556622505,0.9740666151046753,0.17091640830039978,0.522611141204834,-0.6226220726966858,0.952537477016449,0.6362836360931396,0.6456204652786255,-0.3455978035926819,0.9807294011116028,0.06835940480232239,0.5380972027778625,-1.2263814210891724,0.9561595916748047,0.6533756256103516,0.6878658533096313,-0.4342113733291626,0.9655454754829407,0.03035259246826172,0.5323470234870911,-1.3518699407577515,0.9527243971824646,0.6391833424568176,0.6881995797157288,-0.5296497344970703,0.9692782759666443,0.01889568567276001,0.5147393345832825,-1.4472742080688477,0.9591951966285706,0.6272972822189331,0.6788730025291443,-0.39040514826774597,0.9715422987937927,0.049875348806381226,0.5143923163414001,-1.2826223373413086,0.9574877023696899,0.5006251931190491,0.6353673338890076,0.08035457134246826,0.997962236404419,0.32365334033966064,0.6526480317115784,-0.07968371361494064,0.9985234141349792,0.4881736934185028,0.8372443318367004,0.32265591621398926,0.9752875566482544,0.3409867286682129,0.8700170516967773,0.09286221116781235,0.9730561375617981,0.4825182855129242,0.9511367082595825,1.093418836593628,0.9086623191833496,0.3558618128299713,0.9871605634689331,0.6744999289512634,0.9108597040176392,0.461390882730484,0.9659673571586609,1.1522935628890991,0.863440990447998,0.3621569275856018,0.9861872792243958,0.7168763875961304,0.6902147531509399,0.5330909490585327,1.0187411308288574,0.8953080177307129,0.851330578327179,0.373686283826828,1.0788283348083496,0.34678682684898376,0.7840036153793335
