time,X_NOSE,Y_NOSE,Z_NOSE,visibility_NOSE,X_LEFT_EYE_INNER,Y_LEFT_EYE_INNER,Z_LEFT_EYE_INNER,visibility_LEFT_EYE_INNER,X_LEFT_EYE,Y_LEFT_EYE,Z_LEFT_EYE,visibility_LEFT_EYE,X_LEFT_EYE_OUTER,Y_LEFT_EYE_OUTER,Z_LEFT_EYE_OUTER,visibility_LEFT_EYE_OUTER,X_RIGHT_EYE_OUTER,Y_RIGHT_EYE_OUTER,Z_RIGHT_EYE_OUTER,visibility_RIGHT_EYE_OUTER,X_RIGHT_EYE,Y_RIGHT_EYE,Z_RIGHT_EYE,visibility_RIGHT_EYE,X_RIGHT_EYE_OUTER,Y_RIGHT_EYE_OUTER,Z_RIGHT_EYE_OUTER,visibility_RIGHT_EYE_OUTER,X_LEFT_EAR,Y_LEFT_EAR,Z_LEFT_EAR,visibility_LEFT_EAR,X_RIGHT_EAR,Y_RIGHT_EAR,Z_RIGHT_EAR,visibility_RIGHT_EAR,X_MOUTH_LEFT,Y_MOUTH_LEFT,Z_MOUTH_LEFT,visibility_MOUTH_LEFT,X_MOUTH_RIGHT,Y_MOUTH_RIGHT,Z_MOUTH_RIGHT,visibility_MOUTH_RIGHT,X_LEFT_SHOULDER,Y_LEFT_SHOULDER,Z_LEFT_SHOULDER,visibility_LEFT_SHOULDER,X_RIGHT_SHOULDER,Y_RIGHT_SHOULDER,Z_RIGHT_SHOULDER,visibility_RIGHT_SHOULDER,X_LEFT_ELBOW,Y_LEFT_ELBOW,Z_LEFT_ELBOW,visibility_LEFT_ELBOW,X_RIGHT_ELBOW,Y_RIGHT_ELBOW,Z_RIGHT_ELBOW,visibility_RIGHT_ELBOW,X_LEFT_WRIST,Y_LEFT_WRIST,Z_LEFT_WRIST,visibility_LEFT_WRIST,X_RIGHT_WRIST,Y_RIGHT_WRIST,Z_RIGHT_WRIST,visibility_RIGHT_WRIST,X_LEFT_PINKY,Y_LEFT_PINKY,Z_LEFT_PINKY,visibility_LEFT_PINKY,X_RIGHT_PINKY,Y_RIGHT_PINKY,Z_RIGHT_PINKY,visibility_RIGHT_PINKY,X_LEFT_INDEX,Y_LEFT_INDEX,Z_LEFT_INDEX,visibility_LEFT_INDEX,X_RIGHT_INDEX,Y_RIGHT_INDEX,Z_RIGHT_INDEX,visibility_RIGHT_INDEX,X_LEFT_THUMB,Y_LEFT_THUMB,Z_LEFT_THUMB,visibility_LEFT_THUMB,X_RIGHT_THUMB,Y_RIGHT_THUMB,Z_RIGHT_THUMB,visibility_RIGHT_THUMB,X_LEFT_HIP,Y_LEFT_HIP,Z_LEFT_HIP,visibility_LEFT_HIP,X_RIGHT_HIP,Y_RIGHT_HIP,Z_RIGHT_HIP,visibility_RIGHT_HIP,X_LEFT_KNEE,Y_LEFT_KNEE,Z_LEFT_KNEE,visibility_LEFT_KNEE,X_RIGHT_KNEE,Y_RIGHT_KNEE,Z_RIGHT_KNEE,visibility_RIGHT_KNEE,X_LEFT_ANKLE,Y_LEFT_ANKLE,Z_LEFT_ANKLE,visibility_LEFT_ANKLE,X_RIGHT_ANKLE,Y_RIGHT_ANKLE,Z_RIGHT_ANKLE,visibility_RIGHT_ANKLE,X_LEFT_HEEL,Y_LEFT_HEEL,Z_LEFT_HEEL,visibility_LEFT_HEEL,X_RIGHT_HEEL,Y_RIGHT_HEEL,Z_RIGHT_HEEL,visibility_RIGHT_HEEL,X_LEFT_FOOT_INDEX,Y_LEFT_FOOT_INDEX,Z_LEFT_FOOT_INDEX,visibility_LEFT_FOOT_INDEX,X_RIGHT_FOOT_INDEX,Y_RIGHT_FOOT_INDEX,Z_RIGHT_FOOT_INDEX,visibility_RIGHT_FOOT_INDEX
15213.262270498348,0.5032492876052856,0.2772879898548126,-0.5465836524963379,0.9999314546585083,0.516585648059845,0.25692039728164673,-0.5159785747528076,0.999881386756897,0.5267162322998047,0.2564650774002075,-0.5162286162376404,0.9998743534088135,0.5356703996658325,0.25620320439338684,-0.5165218710899353,0.999882698059082,0.48354196548461914,0.2568225860595703,-0.5265601277351379,0.9998180270195007,0.4694126844406128,0.25649362802505493,-0.5265730619430542,0.9997995495796204,0.4576849937438965,0.2565280795097351,-0.5267794728279114,0.9997895359992981,0.5441876649856567,0.2610965669155121,-0.27459752559661865,0.9998890161514282,0.4337460696697235,0.2643730640411377,-0.32920557260513306,0.9997439980506897,0.5185098052024841,0.2980475127696991,-0.4489673674106598,0.9999502897262573,0.47854119539260864,0.2987096309661865,-0.46455812454223633,0.999909520149231,0.6164698600769043,0.3779461085796356,-0.1402284950017929,0.9999392032623291,0.35359808802604675,0.3770100772380829,-0.18237195909023285,0.9997044205665588,0.6355204582214355,0.52876216173172,-0.03585434332489967,0.9459844827651978,0.3133552670478821,0.5269571542739868,-0.26936963200569153,0.8990790247917175,0.6689060926437378,0.6517948508262634,-0.2112838476896286,0.9534358382225037,0.1678982675075531,0.5684454441070557,-0.6932113170623779,0.9513466954231262,0.6858429908752441,0.6914482712745667,-0.260936439037323,0.9298087358474731,0.10704859346151352,0.5753434300422668,-0.7716864943504333,0.9503465294837952,0.6715795993804932,0.6944938898086548,-0.3373276889324188,0.9385145306587219,0.09415659308433533,0.564914345741272,-0.8640674352645874,0.9583848118782043,0.6604971885681152,0.686405599117279,-0.24374142289161682,0.9427171349525452,0.11802464723587036,0.5631613731384277,-0.7433628439903259,0.9574021100997925,0.5769789218902588,0.6431084275245667,0.00909645389765501,0.9971141815185547,0.4273899793624878,0.6474260091781616,-0.008999294601380825,0.9953340888023376,0.5617645382881165,0.8657280802726746,-0.13042646646499634,0.5805251598358154,0.4299452602863312,0.8661231994628906,-0.09567166119813919,0.3446419835090637,0.5478684306144714,1.0467016696929932,0.22952130436897278,0.29265734553337097,0.44568586349487305,1.020031452178955,0.2131091058254242,0.2605324685573578,0.5423468351364136,1.0660474300384521,0.24905380606651306,0.17062558233737946,0.45755523443222046,1.0705983638763428,0.23011472821235657,0.12481722235679626,0.5534646511077881,1.1182645559310913,-0.0007411637925542891,0.23633870482444763,0.4459616243839264,1.126702070236206,-0.06018805131316185,0.21886548399925232
15229.928937165014,0.5024706125259399,0.2771432101726532,-0.5667234063148499,0.9999417066574097,0.5162092447280884,0.2567920386791229,-0.534908652305603,0.9999004602432251,0.5263843536376953,0.25636282563209534,-0.5351702570915222,0.999894380569458,0.5354312658309937,0.256146103143692,-0.5354744791984558,0.9999014139175415,0.4828694760799408,0.256603866815567,-0.5456681251525879,0.9998432397842407,0.4687713086605072,0.25622889399528503,-0.5456822514533997,0.9998263716697693,0.4568292498588562,0.25620198249816895,-0.5458881855010986,0.9998168349266052,0.5442385077476501,0.2610386610031128,-0.28783971071243286,0.9999092817306519,0.4331662356853485,0.26396629214286804,-0.343362033367157,0.99978107213974,0.5179399251937866,0.2979062795639038,-0.4671914279460907,0.9999587535858154,0.477377325296402,0.2985297441482544,-0.4830544888973236,0.9999234676361084,0.6162719130516052,0.3779940605163574,-0.14933785796165466,0.9999463558197021,0.3531390130519867,0.37711039185523987,-0.18933704495429993,0.9997140765190125,0.6356500387191772,0.5290091037750244,-0.04428059607744217,0.950282871723175,0.31339889764785767,0.5273950695991516,-0.2766619026660919,0.8992618918418884,0.6690465211868286,0.6515840291976929,-0.22981330752372742,0.9563274383544922,0.1662280261516571,0.5683282017707825,-0.7122090458869934,0.9513261914253235,0.6861629486083984,0.6913040280342102,-0.28187990188598633,0.9334917664527893,0.1052405908703804,0.5741098523139954,-0.7927560806274414,0.9503719210624695,0.6722069978713989,0.6943703889846802,-0.3605036735534668,0.9418275952339172,0.09196025133132935,0.5635786652565002,-0.8877989053726196,0.958462119102478,0.6611301302909851,0.6862881779670715,-0.2634338140487671,0.9455808401107788,0.11652334779500961,0.5623907446861267,-0.7636772990226746,0.9575247168540955,0.5766574144363403,0.6429474949836731,0.008063661865890026,0.9972667694091797,0.42746421694755554,0.6473257541656494,-0.0079347537830472,0.9953889846801758,0.5613976120948792,0.8656207919120789,-0.13655994832515717,0.5952842831611633,0.4294130206108093,0.8659579157829285,-0.09468336403369904,0.3558589220046997,0.5471433997154236,1.046553134918213,0.2288215160369873,0.3014717996120453,0.44889289140701294,1.0500397682189941,0.21896599233150482,0.2683263123035431,0.5414467453956604,1.0661076307296753,0.24842245876789093,0.17747879028320312,0.45794785022735596,1.069980502128601,0.236081063747406,0.13202333450317383,0.552883505821228,1.1176793575286865,-0.005615914706140757,0.24234387278556824,0.4451427459716797,1.1255009174346924,-0.057287491858005524,0.22350873053073883
15246.59560383168,0.49809569120407104,0.27748164534568787,-0.6387919783592224,0.9999473094940186,0.5131542682647705,0.25715118646621704,-0.6059185862541199,0.9999092817306519,0.5231595039367676,0.25669851899147034,-0.6061831712722778,0.9999045133590698,0.5328142046928406,0.2565067410469055,-0.6065027117729187,0.999910831451416,0.47923392057418823,0.2571240961551666,-0.6151561141014099,0.999850869178772,0.4659539461135864,0.2569073438644409,-0.615170419216156,0.9998338222503662,0.4540563225746155,0.2569199800491333,-0.6153739094734192,0.9998237490653992,0.5427356362342834,0.2617380917072296,-0.348236083984375,0.9999216794967651,0.4329665005207062,0.2644813060760498,-0.3970038592815399,0.9997875094413757,0.514980137348175,0.2978037893772125,-0.5352254509925842,0.9999635219573975,0.47305992245674133,0.2984643876552582,-0.5491847395896912,0.999930739402771,0.6165481805801392,0.37817126512527466,-0.19692881405353546,0.9999480247497559,0.3534259796142578,0.37613019347190857,-0.21755044162273407,0.9997062087059021,0.6358091831207275,0.5291616320610046,-0.08264032751321793,0.9584960341453552,0.3136340379714966,0.5268098711967468,-0.2864725887775421,0.8928072452545166,0.6701133847236633,0.6529748439788818,-0.27999523282051086,0.9593464732170105,0.1653246283531189,0.5673899054527283,-0.7333679795265198,0.9494994282722473,0.687007486820221,0.6929826736450195,-0.336785227060318,0.9371560215950012,0.10538124293088913,0.5720247030258179,-0.8158317804336548,0.9489381909370422,0.6730710864067078,0.6959657073020935,-0.4200797975063324,0.9450806975364685,0.09156692028045654,0.5615141987800598,-0.9175081849098206,0.9573412537574768,0.6622791290283203,0.6879062652587891,-0.3156171441078186,0.9486508369445801,0.11644870042800903,0.5609429478645325,-0.787554144859314,0.9564449191093445,0.5777977705001831,0.6429532766342163,0.002232733415439725,0.9972555041313171,0.42833247780799866,0.6474553942680359,-0.0020627332851290703,0.9952793121337891,0.5618371963500977,0.8672518730163574,-0.1481148898601532,0.6268377304077148,0.42963266372680664,0.8625703454017639,-0.09387718141078949,0.39964765310287476,0.5456523299217224,1.0471458435058594,0.2364361584186554,0.3369196653366089,0.45061957836151123,1.0503435134887695,0.22610148787498474,0.30933696031570435,0.5396599173545837,1.066877841949463,0.2568909227848053,0.19974267482757568,0.46122631430625916,1.0708943605422974,0.24310334026813507,0.15902215242385864,0.551081657409668,1.117721438407898,-0.004722468089312315,0.2667385935783386,0.44284600019454956,1.1250704526901245,-0.055723872035741806,0.2512400448322296
15263.262270498346,0.5042951107025146,0.27692168951034546,-0.565642774105072,0.999923825263977,0.5167155265808105,0.2568601369857788,-0.535210907459259,0.9998756647109985,0.5269069075584412,0.2563660144805908,-0.5354632139205933,0.9998656511306763,0.5357750058174133,0.25601649284362793,-0.535770058631897,0.9998763799667358,0.4847286641597748,0.25670796632766724,-0.5463719367980957,0.9998088479042053,0.47073471546173096,0.25629884004592896,-0.5464070439338684,0.9997866749763489,0.4593594968318939,0.2563159167766571,-0.5466246604919434,0.9997798800468445,0.5444236993789673,0.26112350821495056,-0.2935884892940521,0.9998769760131836,0.43503591418266296,0.264235258102417,-0.3518903851509094,0.999729573726654,0.5194768905639648,0.29777419567108154,-0.4676886796951294,0.9999432563781738,0.48036623001098633,0.2983159124851227,-0.4843694567680359,0.9998985528945923,0.6167908906936646,0.37798771262168884,-0.1618424654006958,0.9999270439147949,0.35251379013061523,0.37689587473869324,-0.20096443593502045,0.9996637105941772,0.6352981328964233,0.5293594598770142,-0.05757196620106697,0.9367690682411194,0.31555214524269104,0.5276369452476501,-0.28151175379753113,0.8978565335273743,0.6710379123687744,0.6517363786697388,-0.22135941684246063,0.9415120482444763,0.16696083545684814,0.5677478313446045,-0.6854552626609802,0.9467422962188721,0.6880155801773071,0.6915897727012634,-0.2681765556335449,0.9140374660491943,0.10597005486488342,0.5733382105827332,-0.7579730749130249,0.94583660364151,0.6732197999954224,0.6945810914039612,-0.34099364280700684,0.9249044060707092,0.08821797370910645,0.5625711679458618,-0.848936140537262,0.9547705054283142,0.6624571084976196,0.6866772770881653,-0.25219711661338806,0.9318061470985413,0.11530090123414993,0.5610954761505127,-0.734371542930603,0.9539387226104736,0.5806915163993835,0.6434161067008972,0.006286078132688999,0.9967702627182007,0.43097999691963196,0.6488535404205322,-0.006230905186384916,0.9946051239967346,0.5614604949951172,0.8683773279190063,-0.14500181376934052,0.48985132575035095,0.4348076283931732,0.8684567213058472,-0.09844183176755905,0.2661021649837494,0.5537577867507935,1.047217845916748,0.22204138338565826,0.23390014469623566,0.452499657869339,1.05190110206604,0.21125848591327667,0.2098439782857895,0.5496190786361694,1.0663594007492065,0.24359580874443054,0.16228795051574707,0.4613267779350281,1.0711990594863892,0.22932788729667664,0.10511647909879684,0.5632873773574829,1.1183910369873047,0.007824578322470188,0.19875314831733704,0.45163077116012573,1.1282652616500854,-0.053022317588329315,0.17950142920017242
15279.928937165012,0.5049983263015747,0.277042418718338,-0.5547311305999756,0.9999184608459473,0.5172807574272156,0.2568672001361847,-0.524986743927002,0.99986732006073,0.5274121761322021,0.2563435733318329,-0.5252318978309631,0.9998570680618286,0.5361491441726685,0.2559370696544647,-0.5255335569381714,0.9998683929443359,0.48539474606513977,0.2568932771682739,-0.5366333723068237,0.999797523021698,0.471190869808197,0.2565681040287018,-0.5366663336753845,0.9997753500938416,0.45979392528533936,0.2566574513912201,-0.5368810892105103,0.9997679591178894,0.5445845723152161,0.2610171437263489,-0.2865315079689026,0.9998660087585449,0.43502485752105713,0.2646597921848297,-0.34698718786239624,0.9997177720069885,0.5200216770172119,0.2978323698043823,-0.45776376128196716,0.9999384880065918,0.4813278615474701,0.2985570430755615,-0.47503378987312317,0.999890923500061,0.6168306469917297,0.3778917193412781,-0.1550072282552719,0.9999241828918457,0.3528004288673401,0.3768974840641022,-0.2011929452419281,0.9996587038040161,0.6350874304771423,0.5291761159896851,-0.04922459274530411,0.9302564263343811,0.3155903220176697,0.5273568034172058,-0.2795066833496094,0.900897204875946,0.670408308506012,0.6510722637176514,-0.20608489215373993,0.937384307384491,0.16587713360786438,0.5676551461219788,-0.6707853674888611,0.9470589756965637,0.6873984336853027,0.6911612153053284,-0.2508305013179779,0.908751904964447,0.10483557730913162,0.5735940933227539,-0.7411890029907227,0.9457441568374634,0.6729219555854797,0.6943982243537903,-0.3223394751548767,0.9202176332473755,0.08742615580558777,0.5628074407577515,-0.8305864334106445,0.9546729326248169,0.6621134877204895,0.6865454912185669,-0.23633767664432526,0.927774965763092,0.11460927128791809,0.5612165927886963,-0.7187941670417786,0.9538594484329224,0.580309271812439,0.6420625448226929,0.008526472374796867,0.996769905090332,0.43111497163772583,0.6475867033004761,-0.0084928497672081,0.9946115016937256,0.5612485408782959,0.867541491985321,-0.1408340036869049,0.4750433564186096,0.4371606111526489,0.8676602244377136,-0.10000399500131607,0.25574520230293274,0.5545669198036194,1.0470305681228638,0.21761934459209442,0.2305467128753662,0.4526062309741974,1.0510382652282715,0.2059764862060547,0.20320366322994232,0.5501728653907776,1.0663496255874634,0.238497793674469,0.1589249223470688,0.4609472155570984,1.070131778717041,0.2239205688238144,0.09971224516630173,0.5646798610687256,1.1177963018417358,0.0035659668501466513,0.19640623033046722,0.4529604911804199,1.1275399923324585,-0.05687488988041878,0.1761551797389984
15296.595603831678,0.5047540068626404,0.2765597701072693,-0.5594539046287537,0.9999210834503174,0.5168513059616089,0.25634288787841797,-0.5287813544273376,0.9998723268508911,0.5268921852111816,0.25573956966400146,-0.5290390253067017,0.999862551689148,0.5356812477111816,0.2552700340747833,-0.5293480753898621,0.9998730421066284,0.48495423793792725,0.256539523601532,-0.5403813719749451,0.9998027682304382,0.47084367275238037,0.2562589943408966,-0.5404110550880432,0.999779999256134,0.4594568610191345,0.2563576102256775,-0.5406331419944763,0.9997716546058655,0.543947696685791,0.2603207528591156,-0.2857634723186493,0.9998761415481567,0.4348863959312439,0.2642877995967865,-0.34591424465179443,0.9997264742851257,0.5199028849601746,0.29705291986465454,-0.46092498302459717,0.9999418258666992,0.4811455309391022,0.2979511618614197,-0.4781428873538971,0.9998950958251953,0.616446316242218,0.3776567876338959,-0.15276378393173218,0.9999282360076904,0.35318246483802795,0.3765186667442322,-0.1962832510471344,0.9996645450592041,0.6350764036178589,0.5291000604629517,-0.04806448519229889,0.9345617890357971,0.31615149974823,0.5271821618080139,-0.2808628976345062,0.8957522511482239,0.670593798160553,0.6513781547546387,-0.21528032422065735,0.9410337209701538,0.16755267977714539,0.5678170919418335,-0.6903159022331238,0.9465577602386475,0.6878777146339417,0.6913391351699829,-0.2625828981399536,0.9137994050979614,0.10655871778726578,0.5734735131263733,-0.763862669467926,0.945866048336029,0.673112690448761,0.6944285035133362,-0.3359234035015106,0.9247866272926331,0.08930515497922897,0.562872052192688,-0.8554022312164307,0.95480877161026,0.6621868014335632,0.6865519881248474,-0.24647560715675354,0.931522011756897,0.11595813184976578,0.5613798499107361,-0.7395848035812378,0.9538547396659851,0.5806463956832886,0.6431698203086853,0.007319668773561716,0.9968432188034058,0.43107688426971436,0.6485128998756409,-0.007248195819556713,0.9946969747543335,0.5612984299659729,0.8680864572525024,-0.1452111452817917,0.4892706573009491,0.43629810214042664,0.868601381778717,-0.10011152923107147,0.2645377218723297,0.5540468096733093,1.0478578805923462,0.2240075021982193,0.23132789134979248,0.4524383246898651,1.0517594814300537,0.21228203177452087,0.20689207315444946,0.5498309135437012,1.0671089887619019,0.2455904632806778,0.1612221747636795,0.4612715542316437,1.0711565017700195,0.23051506280899048,0.10491015017032623,0.5641511678695679,1.1187374591827393,0.008394379168748856,0.19599458575248718,0.4511698782444,1.127755045890808,-0.053073666989803314,0.17736122012138367
15313.262270498344,0.5037990808486938,0.2761332392692566,-0.5626874566078186,0.9999270439147949,0.5163878798484802,0.25587764382362366,-0.5326471924781799,0.9998800754547119,0.5264999270439148,0.2553389370441437,-0.5328922867774963,0.9998711347579956,0.5354591608047485,0.2549327313899994,-0.5331933498382568,0.9998811483383179,0.48398858308792114,0.2559050917625427,-0.5437153577804565,0.9998146891593933,0.4700314700603485,0.2556054890155792,-0.5437405705451965,0.9997939467430115,0.45855841040611267,0.2556721270084381,-0.5439541339874268,0.9997859597206116,0.5440256595611572,0.26004382967948914,-0.29243120551109314,0.999879002571106,0.43464305996894836,0.26364073157310486,-0.3503010869026184,0.9997394680976868,0.5189903974533081,0.29645904898643494,-0.46524205803871155,0.9999455213546753,0.4794926941394806,0.29736071825027466,-0.48174989223480225,0.9999021291732788,0.6167469620704651,0.3778533339500427,-0.15772020816802979,0.9999309778213501,0.3534737825393677,0.3759903311729431,-0.20347490906715393,0.9996856451034546,0.6351896524429321,0.5290178060531616,-0.05251603201031685,0.9345657825469971,0.31585240364074707,0.5264949798583984,-0.2816411554813385,0.9030904173851013,0.6709113121032715,0.6509125828742981,-0.21536073088645935,0.9414525628089905,0.16585776209831238,0.5678582191467285,-0.6780080199241638,0.9484795331954956,0.6874593496322632,0.6908619403839111,-0.2617717981338501,0.9133778214454651,0.10437342524528503,0.5733328461647034,-0.749948263168335,0.9469649195671082,0.673078179359436,0.6941545605659485,-0.33435794711112976,0.9243729710578918,0.08807772397994995,0.5625308156013489,-0.8406575322151184,0.9557278752326965,0.6624603271484375,0.6862292885780334,-0.24621008336544037,0.9311416149139404,0.11451379209756851,0.5611032843589783,-0.7266958355903625,0.9549263715744019,0.5789257287979126,0.6414283514022827,0.01009030919522047,0.9969758987426758,0.43016374111175537,0.6461048722267151,-0.010049433447420597,0.9949277639389038,0.5595213174819946,0.8667129874229431,-0.14085890352725983,0.47649821639060974,0.43652623891830444,0.8664610385894775,-0.10189374536275864,0.26429450511932373,0.5532440543174744,1.047421932220459,0.21512873470783234,0.234989732503891,0.4517272114753723,1.0504908561706543,0.20615074038505554,0.20645108819007874,0.5482032299041748,1.067158818244934,0.2353515774011612,0.160932719707489,0.4597858786582947,1.069711685180664,0.2239728569984436,0.10131746530532837,0.56413334608078,1.1174131631851196,-0.00498722679913044,0.19809508323669434,0.45236194133758545,1.1266462802886963,-0.060457877814769745,0.17775511741638184
15329.92893716501,0.5020750164985657,0.2752014994621277,-0.5064891576766968,0.9999457597732544,0.5155001878738403,0.2553924322128296,-0.47808218002319336,0.9999046325683594,0.5258232355117798,0.2551615834236145,-0.478318989276886,0.9998934268951416,0.5351638793945312,0.2551398277282715,-0.4786015450954437,0.9999027252197266,0.4819064140319824,0.25477519631385803,-0.48837441205978394,0.9998607635498047,0.4680541455745697,0.2543681561946869,-0.48840469121932983,0.9998432397842407,0.45582741498947144,0.2543375790119171,-0.48860010504722595,0.9998412132263184,0.544922411441803,0.26088619232177734,-0.25252532958984375,0.9998922348022461,0.4328973889350891,0.2624710202217102,-0.30761653184890747,0.9998034834861755,0.5172547698020935,0.29625385999679565,-0.41497695446014404,0.9999573230743408,0.4757693111896515,0.29651564359664917,-0.4306084215641022,0.9999289512634277,0.6150245070457458,0.37726500630378723,-0.13537926971912384,0.9999369382858276,0.35115575790405273,0.37636598944664,-0.18044260144233704,0.9997569918632507,0.6343869566917419,0.5291697978973389,-0.03839448094367981,0.9379040002822876,0.3130272924900055,0.5283540487289429,-0.25658437609672546,0.9148698449134827,0.6702721118927002,0.6510406732559204,-0.1870630830526352,0.9475027918815613,0.15917715430259705,0.5681120157241821,-0.6285405158996582,0.9535883665084839,0.6883967518806458,0.6898227334022522,-0.23098082840442657,0.9215890765190125,0.09749460220336914,0.5727905035018921,-0.6968176364898682,0.9512743949890137,0.6747174263000488,0.693289041519165,-0.3003265857696533,0.9311968684196472,0.08282309770584106,0.5611165761947632,-0.7837644219398499,0.9592822790145874,0.6638941168785095,0.6852038502693176,-0.21632003784179688,0.9376745223999023,0.10929268598556519,0.5605689287185669,-0.6753583550453186,0.9590538144111633,0.5798631906509399,0.6418538689613342,0.011541886255145073,0.9975075721740723,0.4304923117160797,0.6467824578285217,-0.011573750525712967,0.9959971904754639,0.5640121698379517,0.8686765432357788,-0.11754322797060013,0.5131619572639465,0.43451762199401855,0.8692472577095032,-0.08676034212112427,0.29682064056396484,0.5558496117591858,1.0476906299591064,0.2240137755870819,0.25815537571907043,0.44721704721450806,1.051666498184204,0.22241367399692535,0.23309142887592316,0.5500161647796631,1.0677417516708374,0.24371975660324097,0.175493061542511,0.4549315869808197,1.0704584121704102,0.24126318097114563,0.10742872208356857,0.5711150169372559,1.1171221733093262,0.016143599525094032,0.2215528041124344,0.4473326504230499,1.1285183429718018,-0.032066598534584045,0.20235688984394073
15346.595603831676,0.5038142204284668,0.275473028421402,-0.5817739367485046,0.9999477863311768,0.5181456208229065,0.2552788257598877,-0.5516665577888489,0.9999027252197266,0.5282217264175415,0.25526902079582214,-0.5518937706947327,0.9998958110809326,0.5367405414581299,0.25559696555137634,-0.5521605014801025,0.999900221824646,0.4854981601238251,0.2546986937522888,-0.5619838833808899,0.9998534917831421,0.4706464111804962,0.2544063925743103,-0.5620333552360535,0.9998406171798706,0.45821794867515564,0.2544790506362915,-0.5622190833091736,0.9998315572738647,0.5455613136291504,0.2610059082508087,-0.314078688621521,0.9998939037322998,0.43320468068122864,0.26241132616996765,-0.36968299746513367,0.9997956156730652,0.517048716545105,0.29656562209129333,-0.48572590947151184,0.9999583959579468,0.47732722759246826,0.29649248719215393,-0.5015632510185242,0.9999293088912964,0.616260826587677,0.3771211504936218,-0.1814567744731903,0.9999392032623291,0.3513684868812561,0.37666651606559753,-0.21897286176681519,0.9997469782829285,0.6329439878463745,0.5281667113304138,-0.07322107255458832,0.9430188536643982,0.3125731348991394,0.5285664796829224,-0.2793377935886383,0.9229415059089661,0.6687337756156921,0.6515388488769531,-0.23347309231758118,0.9494757652282715,0.1652429699897766,0.5675637722015381,-0.6620256900787354,0.9599792957305908,0.6863489151000977,0.6907718181610107,-0.27966392040252686,0.9251248240470886,0.10565659403800964,0.571458637714386,-0.7335832118988037,0.9579901099205017,0.674378514289856,0.6946794986724854,-0.35264506936073303,0.9342553615570068,0.08918297290802002,0.5604443550109863,-0.8246263265609741,0.9650753736495972,0.6640092730522156,0.6853304505348206,-0.264239102602005,0.9404468536376953,0.1154293343424797,0.5598089694976807,-0.7105475664138794,0.9644581079483032,0.5799851417541504,0.6419824957847595,0.006136601325124502,0.9978023171424866,0.42919057607650757,0.646344006061554,-0.00612146919593215,0.9959831237792969,0.5643929243087769,0.8638099431991577,-0.13477680087089539,0.5176047086715698,0.4328869581222534,0.8634763360023499,-0.08312675356864929,0.30649229884147644,0.5536085963249207,1.0446271896362305,0.20340707898139954,0.2833627760410309,0.44463154673576355,1.013787031173706,0.23289333283901215,0.24089877307415009,0.5478856563568115,1.0650432109832764,0.2218794971704483,0.18911126255989075,0.45604103803634644,1.0645569562911987,0.2516036331653595,0.11902637779712677,0.5677649974822998,1.11383056640625,-0.016008561477065086,0.24552249908447266,0.4453415870666504,1.1223185062408447,-0.02490903064608574,0.21228645741939545
15363.262270498342,0.5035027861595154,0.2745088040828705,-0.5560547113418579,0.9999349117279053,0.5171151757240295,0.25417497754096985,-0.5276519656181335,0.9998785257339478,0.5276896357536316,0.25393787026405334,-0.5278759002685547,0.9998701810836792,0.5369220972061157,0.25388258695602417,-0.5281408429145813,0.9998787641525269,0.48452216386795044,0.25404971837997437,-0.5373358130455017,0.999821126461029,0.47003456950187683,0.2538406550884247,-0.5373668074607849,0.9998021721839905,0.4579261839389801,0.2540442645549774,-0.5375537872314453,0.9997945427894592,0.5471891164779663,0.2599519193172455,-0.3007040321826935,0.999869704246521,0.4328992962837219,0.26283159852027893,-0.35209089517593384,0.9997368454933167,0.5182420015335083,0.2956715524196625,-0.4639407992362976,0.9999450445175171,0.4776940643787384,0.29625195264816284,-0.4785381853580475,0.9999061822891235,0.6167197227478027,0.37733694911003113,-0.18020354211330414,0.9999195337295532,0.35131505131721497,0.37714630365371704,-0.2119593769311905,0.9996758699417114,0.6317571401596069,0.5286843776702881,-0.0799306109547615,0.9322443604469299,0.3122295141220093,0.5277348756790161,-0.2710619270801544,0.9111686944961548,0.6681736707687378,0.6531182527542114,-0.22362960875034332,0.9387351870536804,0.157964289188385,0.5673409700393677,-0.6222564578056335,0.949095606803894,0.6860290765762329,0.6926336288452148,-0.2650682330131531,0.911724865436554,0.09687471389770508,0.5716055631637573,-0.6870132088661194,0.9461731910705566,0.6737199425697327,0.6959497928619385,-0.3346271216869354,0.9217438101768494,0.08188626170158386,0.5605380535125732,-0.7754215002059937,0.9550899863243103,0.6631155014038086,0.6867148280143738,-0.2528087794780731,0.9292910695075989,0.10807397961616516,0.5599585175514221,-0.6694910526275635,0.9553940296173096,0.5781892538070679,0.6429745554924011,0.005051407031714916,0.9973586201667786,0.4276953339576721,0.6459527015686035,-0.005097582936286926,0.9957908391952515,0.5636761784553528,0.8612893223762512,-0.11687244474887848,0.5997974872589111,0.43526026606559753,0.8637326955795288,-0.07903394848108292,0.38357579708099365,0.5442520976066589,1.0201654434204102,0.21930626034736633,0.3637869656085968,0.4436640739440918,1.0142271518707275,0.21409909427165985,0.3246769905090332,0.5421580076217651,1.060754418373108,0.2377849519252777,0.21617832779884338,0.4576326012611389,1.0647238492965698,0.2307572215795517,0.14946603775024414,0.5602698922157288,1.11165189743042,0.006784012541174889,0.3051193654537201,0.442716509103775,1.1211657524108887,-0.04074548929929733,0.277559369802475
15379.928937165008,0.5051532983779907,0.2738237679004669,-0.616797149181366,0.999933123588562,0.5180427432060242,0.2537040114402771,-0.5845054388046265,0.9998831748962402,0.5283896327018738,0.25341638922691345,-0.5847577452659607,0.9998776912689209,0.5372776985168457,0.25330865383148193,-0.5850462913513184,0.9998852014541626,0.48618707060813904,0.2537561357021332,-0.5964047312736511,0.999815046787262,0.47167694568634033,0.25364765524864197,-0.596451461315155,0.9997960925102234,0.459671288728714,0.25395408272743225,-0.5966530442237854,0.9997826218605042,0.5466785430908203,0.25941938161849976,-0.3365738093852997,0.9998846054077148,0.43356451392173767,0.26291316747665405,-0.3982895016670227,0.9997300505638123,0.5193912982940674,0.2948080897331238,-0.5170089602470398,0.9999459981918335,0.4796818494796753,0.29548951983451843,-0.5346505641937256,0.9999024868011475,0.6161231398582458,0.3775705099105835,-0.19717566668987274,0.9999308586120605,0.3521586060523987,0.3768843412399292,-0.23147962987422943,0.999640703201294,0.6322095394134521,0.5286068916320801,-0.09000333398580551,0.9390237331390381,0.31254875659942627,0.5267022252082825,-0.2894667387008667,0.903691828250885,0.6692637801170349,0.6526122689247131,-0.26560065150260925,0.9439923763275146,0.1600112020969391,0.5674066543579102,-0.6794022917747498,0.947375476360321,0.6868212223052979,0.6926646828651428,-0.3141132593154907,0.917723536491394,0.09834139794111252,0.5704600811004639,-0.7506736516952515,0.9452044367790222,0.6742916107177734,0.6961494088172913,-0.39075058698654175,0.9275802373886108,0.08362087607383728,0.5600675344467163,-0.8463855981826782,0.9543413519859314,0.6637896299362183,0.6868464350700378,-0.2983863055706024,0.9333130121231079,0.11011666059494019,0.5599184632301331,-0.7299351096153259,0.9539404511451721,0.578935980796814,0.6411787867546082,0.00351444142870605,0.9973635077476501,0.428475946187973,0.6447323560714722,-0.003461988177150488,0.995433509349823,0.5650320053100586,0.8594518899917603,-0.13745364546775818,0.5858756899833679,0.4367946982383728,0.86177659034729,-0.0896986871957779,0.3529989719390869,0.5452751517295837,1.020014762878418,0.22014576196670532,0.3417517840862274,0.45182445645332336,1.0438563823699951,0.2180054932832718,0.3007526397705078,0.541961133480072,1.0609347820281982,0.2391279637813568,0.20486941933631897,0.46136996150016785,1.0638734102249146,0.2346048206090927,0.1490788757801056,0.5571056604385376,1.1106297969818115,-0.009036058560013771,0.2876434326171875,0.44452163577079773,1.1180524826049805,-0.05209352821111679,0.2607272267341614
15396.595603831674,0.503235399723053,0.27555763721466064,-0.5878609418869019,0.9999454021453857,0.5164577960968018,0.2559266686439514,-0.555368959903717,0.9999071359634399,0.527065634727478,0.2557069659233093,-0.5556350946426392,0.9998995065689087,0.5363630056381226,0.2556212544441223,-0.5559484362602234,0.999906063079834,0.4843944013118744,0.2552441358566284,-0.5660172700881958,0.9998542070388794,0.4704723358154297,0.25476983189582825,-0.5660325884819031,0.9998338222503662,0.4589325487613678,0.25466883182525635,-0.5662445425987244,0.9998261332511902,0.5466424226760864,0.26137635111808777,-0.30633485317230225,0.999915599822998,0.434744268655777,0.26278454065322876,-0.36205369234085083,0.9997970461845398,0.5182205438613892,0.29690220952033997,-0.48750704526901245,0.99996018409729,0.4774188697338104,0.2968730032444,-0.5034968256950378,0.9999278783798218,0.6155309081077576,0.3782464563846588,-0.171547532081604,0.9999390840530396,0.352725088596344,0.3760993778705597,-0.19883467257022858,0.999674916267395,0.6337989568710327,0.5302072167396545,-0.06573067605495453,0.945382297039032,0.3123108744621277,0.5266755223274231,-0.2822108566761017,0.8784964680671692,0.6692273020744324,0.6522783041000366,-0.2482995092868805,0.9495219588279724,0.1673555076122284,0.5679695010185242,-0.7122043371200562,0.9392585158348083,0.6865795254707336,0.6925081610679626,-0.29879769682884216,0.9271408319473267,0.10565963387489319,0.5707044005393982,-0.7895861268043518,0.9402877688407898,0.6745221614837646,0.6951879858970642,-0.37670162320137024,0.9360747933387756,0.08826178312301636,0.5604485273361206,-0.885013997554779,0.9500037431716919,0.6644741296768188,0.6867603659629822,-0.2813989818096161,0.9410859942436218,0.11668327450752258,0.5604596138000488,-0.7636897563934326,0.9496719241142273,0.5790279507637024,0.6453157663345337,0.00240086717531085,0.9977838397026062,0.42676451802253723,0.650266170501709,-0.002296913182362914,0.9961548447608948,0.5637495517730713,0.8704403638839722,-0.1402370184659958,0.643248438835144,0.4307798743247986,0.8678280711174011,-0.07827871292829514,0.3998907804489136,0.546633243560791,1.047767162322998,0.247620090842247,0.3642275035381317,0.4523177146911621,1.0513405799865723,0.25393590331077576,0.3356351852416992,0.5413011908531189,1.067026138305664,0.2698917090892792,0.22203028202056885,0.46379759907722473,1.0713715553283691,0.273340106010437,0.1722058802843094,0.5568394064903259,1.1198654174804688,0.025907987728714943,0.29800164699554443,0.4418957531452179,1.1271193027496338,-0.010891558602452278,0.27501150965690613
15413.26227049834,0.5028294920921326,0.2737690806388855,-0.7104538083076477,0.9999339580535889,0.5159769058227539,0.25446611642837524,-0.6757848858833313,0.9998804330825806,0.5260758996009827,0.2545035779476166,-0.6760445237159729,0.9998748302459717,0.5351554155349731,0.25487273931503296,-0.6763409972190857,0.9998772144317627,0.4841254651546478,0.2538202106952667,-0.6872860789299011,0.9998084902763367,0.47022175788879395,0.2535652220249176,-0.6873323321342468,0.9997898936271667,0.45823556184768677,0.25375139713287354,-0.6875359416007996,0.999772846698761,0.5449116230010986,0.2609021067619324,-0.4066762328147888,0.999894380569458,0.43355196714401245,0.2618536651134491,-0.4661652147769928,0.9997430443763733,0.5169233083724976,0.2948046326637268,-0.6023857593536377,0.9999516010284424,0.47798871994018555,0.29411831498146057,-0.6194584369659424,0.9999141693115234,0.6148322820663452,0.37708598375320435,-0.2408522069454193,0.9999334812164307,0.35119009017944336,0.37955960631370544,-0.26712483167648315,0.9996496438980103,0.6298896670341492,0.5276266932487488,-0.11162276566028595,0.946466863155365,0.31081557273864746,0.5304664373397827,-0.3152070641517639,0.8902570009231567,0.668647050857544,0.6520761847496033,-0.3160738945007324,0.9444108009338379,0.16763946413993835,0.5679026246070862,-0.7472795248031616,0.9406957030296326,0.6855143308639526,0.6912550926208496,-0.37237951159477234,0.9194990396499634,0.10886389762163162,0.5683512091636658,-0.828886091709137,0.9402194619178772,0.6748642921447754,0.6951237320899963,-0.45879441499710083,0.9289897084236145,0.09447029232978821,0.5575370192527771,-0.9344061017036438,0.9501213431358337,0.6644184589385986,0.685284435749054,-0.35357046127319336,0.9345571994781494,0.11905926465988159,0.5581268072128296,-0.8026906251907349,0.9494895339012146,0.5826078653335571,0.6432743668556213,0.00024838646641001105,0.9975481629371643,0.42848333716392517,0.6483582854270935,-5.990604040562175e-05,0.9955235719680786,0.5667561888694763,0.866383969783783,-0.12576518952846527,0.7045761346817017,0.4288266599178314,0.8621723651885986,-0.06499950587749481,0.4961572587490082,0.5502134561538696,1.0430015325546265,0.2811587452888489,0.4414047598838806,0.4391648471355438,1.0107390880584717,0.29043376445770264,0.4061930477619171,0.5433018207550049,1.0632356405258179,0.30289384722709656,0.2554469108581543,0.46330970525741577,1.0657665729522705,0.31030604243278503,0.21703757345676422,0.5602661967277527,1.112906575202942,0.032027218490839005,0.3634234368801117,0.4374435842037201,1.1202850341796875,0.00695189880207181,0.33665797114372253
15429.928937165007,0.5065942406654358,0.2738626301288605,-0.817952036857605,0.9999616146087646,0.5194002389907837,0.2542249858379364,-0.7829565405845642,0.9999300241470337,0.5294234156608582,0.25408679246902466,-0.7832145690917969,0.9999263286590576,0.5383418202400208,0.25404810905456543,-0.7835165858268738,0.999927282333374,0.48765644431114197,0.2537314295768738,-0.7949011325836182,0.9998809099197388,0.47292500734329224,0.2533430755138397,-0.794941782951355,0.9998668432235718,0.46114903688430786,0.25331130623817444,-0.7951212525367737,0.9998534917831421,0.5467629432678223,0.25981733202934265,-0.5022532939910889,0.9999420642852783,0.4344829022884369,0.26136550307273865,-0.5635536313056946,0.9998364448547363,0.5200918316841125,0.29490339756011963,-0.705091118812561,0.999975323677063,0.4813690483570099,0.29465457797050476,-0.7227367758750916,0.9999538660049438,0.6135537624359131,0.37799277901649475,-0.31986546516418457,0.999958872795105,0.3504330515861511,0.3771932125091553,-0.33362868428230286,0.9997461438179016,0.6290937066078186,0.52961665391922,-0.17710843682289124,0.9620989561080933,0.3128606677055359,0.5279288291931152,-0.3441203534603119,0.9147396683692932,0.6699920892715454,0.6525433659553528,-0.39609295129776,0.9545844793319702,0.17045944929122925,0.5665568709373474,-0.7640761733055115,0.9539727568626404,0.6868187785148621,0.6932538747787476,-0.4599551260471344,0.9295629262924194,0.11026135832071304,0.5692459344863892,-0.8471052646636963,0.9511073231697083,0.6753424406051636,0.6966791152954102,-0.5513786673545837,0.9378695487976074,0.0966285988688469,0.5572533011436462,-0.9622263312339783,0.959417462348938,0.6644936800003052,0.6872617602348328,-0.4363316297531128,0.9427891373634338,0.1215384304523468,0.5565323233604431,-0.822896420955658,0.9588512778282166,0.5792737603187561,0.6393942832946777,-0.009532471187412739,0.9978418350219727,0.4291928708553314,0.645208477973938,0.009796823374927044,0.9956986904144287,0.5649325251579285,0.8612723350524902,-0.12337180972099304,0.7360557317733765,0.42572474479675293,0.8567594289779663,-0.04410119354724884,0.5381596684455872,0.5407976508140564,1.0150387287139893,0.3032914102077484,0.4704141616821289,0.4427415132522583,1.0093491077423096,0.3247845768928528,0.4370570778846741,0.5421760678291321,1.057781457901001,0.3258020579814911,0.2815541625022888,0.4674118459224701,1.059457540512085,0.34539201855659485,0.25724077224731445,0.5578897595405579,1.1070802211761475,0.04330230504274368,0.3944794535636902,0.4375659227371216,1.1122530698776245,0.033293649554252625,0.3701770007610321
15446.595603831673,0.5056034922599792,0.2735447883605957,-0.7623027563095093,0.9999651908874512,0.5195758938789368,0.25436311960220337,-0.7274916768074036,0.9999347925186157,0.5296441912651062,0.2545458674430847,-0.72774338722229,0.9999308586120605,0.53856360912323,0.25476500391960144,-0.7280285954475403,0.9999309778213501,0.4875829517841339,0.25316962599754333,-0.7395204901695251,0.9998936653137207,0.47262921929359436,0.2524806261062622,-0.7395700216293335,0.9998821020126343,0.4607166349887848,0.2521764636039734,-0.7397490739822388,0.9998705387115479,0.5473130941390991,0.2606186270713806,-0.45479410886764526,0.999943733215332,0.4342595040798187,0.2600040137767792,-0.5171221494674683,0.9998542070388794,0.5185673832893372,0.29543551802635193,-0.6529303789138794,0.9999765157699585,0.47979843616485596,0.294016569852829,-0.6708539724349976,0.9999576807022095,0.61327064037323,0.3775523006916046,-0.28428885340690613,0.9999582767486572,0.3496996760368347,0.37743812799453735,-0.3076009154319763,0.9997742772102356,0.6300745606422424,0.5286648869514465,-0.1452321857213974,0.9601594805717468,0.3130340278148651,0.5279106497764587,-0.3423382639884949,0.913661539554596,0.6703473925590515,0.6517723202705383,-0.3520813286304474,0.9567152857780457,0.17364487051963806,0.566368043422699,-0.7748101949691772,0.9573075175285339,0.6877655386924744,0.6925061941146851,-0.41178953647613525,0.9345365166664124,0.11369147896766663,0.5688009858131409,-0.8595603704452515,0.9556949734687805,0.6760762929916382,0.6955171227455139,-0.5013653635978699,0.9422221779823303,0.09982383251190186,0.5573225021362305,-0.9686514735221863,0.9630113840103149,0.6648992300033569,0.6862045526504517,-0.39103013277053833,0.946957528591156,0.1234416663646698,0.5566132664680481,-0.8316636085510254,0.9621134996414185,0.57961106300354,0.6419753432273865,-0.006035747937858105,0.9982538819313049,0.42806994915008545,0.6466177105903625,0.006275496445596218,0.9965909719467163,0.5646267533302307,0.864260196685791,-0.11875215172767639,0.752138614654541,0.42548298835754395,0.8600892424583435,-0.04020731523633003,0.5654019713401794,0.5415747761726379,1.016357660293579,0.3039626479148865,0.4958362877368927,0.44371965527534485,1.0104444026947021,0.3352292478084564,0.47172677516937256,0.5416067838668823,1.057310938835144,0.3270469903945923,0.30559366941452026,0.4676724374294281,1.0586942434310913,0.3572627305984497,0.27406778931617737,0.5602824687957764,1.1078393459320068,0.055927012115716934,0.4223031997680664,0.43758660554885864,1.1134631633758545,0.055658500641584396,0.4016280472278595
15463.262270498339,0.5026498436927795,0.27373766899108887,-0.7070828676223755,0.9999266862869263,0.5162654519081116,0.2541314363479614,-0.6700918078422546,0.9998805522918701,0.5265529155731201,0.2540631890296936,-0.6704070568084717,0.9998726844787598,0.5360499620437622,0.25417062640190125,-0.6707465052604675,0.9998779296875,0.48406529426574707,0.25319066643714905,-0.6825003623962402,0.9997983574867249,0.47002869844436646,0.25262609124183655,-0.6825133562088013,0.9997701048851013,0.4588187634944916,0.25242310762405396,-0.6827500462532043,0.999755322933197,0.5463059544563293,0.26058635115623474,-0.38920894265174866,0.9999005794525146,0.43485528230667114,0.2607472538948059,-0.45278412103652954,0.9997276663780212,0.518077552318573,0.2947392463684082,-0.594928503036499,0.9999533891677856,0.4770388603210449,0.29385536909103394,-0.6131656765937805,0.9999151229858398,0.6144012808799744,0.37757182121276855,-0.2196364551782608,0.9999312162399292,0.35178011655807495,0.3772205710411072,-0.2472905069589615,0.9996104836463928,0.6328985095024109,0.5311387777328491,-0.09125972539186478,0.9506360292434692,0.3114491105079651,0.5293306112289429,-0.28492283821105957,0.8813849687576294,0.669465184211731,0.6546472311019897,-0.3239445686340332,0.9453063607215881,0.16237646341323853,0.5682814717292786,-0.7260313034057617,0.9367903470993042,0.6852372884750366,0.6950508952140808,-0.3881808817386627,0.9188406467437744,0.09905797243118286,0.5715991258621216,-0.8098488450050354,0.9364535808563232,0.674736499786377,0.6977596879005432,-0.4773145020008087,0.9288203120231628,0.0799495279788971,0.5602548718452454,-0.9228883385658264,0.9471759796142578,0.6641058921813965,0.6897283792495728,-0.3633038103580475,0.9337894916534424,0.11127054691314697,0.5602190494537354,-0.7842137813568115,0.9463613033294678,0.5804625749588013,0.6464483737945557,0.0026731169782578945,0.9968432188034058,0.42845436930656433,0.6519394516944885,-0.002367091365158558,0.99403315782547,0.5661588907241821,0.8717304468154907,-0.1394340991973877,0.6309045553207397,0.4303041696548462,0.8697746992111206,-0.08262597769498825,0.4136008322238922,0.5473031401634216,1.0508252382278442,0.30303364992141724,0.33362653851509094,0.45650532841682434,1.0533909797668457,0.285639226436615,0.3164716362953186,0.5396541953086853,1.071134328842163,0.328044056892395,0.22306843101978302,0.46843209862709045,1.0743030309677124,0.30664485692977905,0.18453074991703033,0.5566820502281189,1.1205964088439941,0.05405987799167633,0.26885637640953064,0.44681498408317566,1.1266775131225586,-0.007244926877319813,0.25306159257888794
15479.928937165005,0.502197802066803,0.274345338344574,-0.7142177820205688,0.999922513961792,0.5160424113273621,0.25468340516090393,-0.6778625249862671,0.9998742341995239,0.5264387130737305,0.2545904219150543,-0.6781783699989319,0.9998661279678345,0.535967230796814,0.25468552112579346,-0.6785225868225098,0.9998724460601807,0.4836157560348511,0.2537730634212494,-0.6899987459182739,0.9997867941856384,0.4696461856365204,0.2531748414039612,-0.6900102496147156,0.9997552037239075,0.45841947197914124,0.252952516078949,-0.6902503967285156,0.9997387528419495,0.546369731426239,0.260833203792572,-0.3972006142139435,0.9998964071273804,0.4348468780517578,0.26107877492904663,-0.4594769775867462,0.9997068047523499,0.5177645683288574,0.2953628599643707,-0.6018206477165222,0.9999499320983887,0.4766543209552765,0.2944263517856598,-0.6197012066841125,0.9999072551727295,0.6147110462188721,0.3773843050003052,-0.22719243168830872,0.9999299049377441,0.3518478274345398,0.3766394257545471,-0.2534608542919159,0.999593198299408,0.6332621574401855,0.5310980677604675,-0.09988672286272049,0.9501301646232605,0.31142735481262207,0.5292532444000244,-0.2933410406112671,0.8729366064071655,0.6695569157600403,0.6544734835624695,-0.3284365236759186,0.943615734577179,0.1591361165046692,0.5686701536178589,-0.7334036827087402,0.9310299754142761,0.6853007674217224,0.6948510408401489,-0.39177510142326355,0.9167401790618896,0.09708825498819351,0.572756826877594,-0.8164977431297302,0.9313000440597534,0.6746413707733154,0.6976979970932007,-0.480583518743515,0.9269956350326538,0.0775301456451416,0.5611793398857117,-0.9295550584793091,0.9428573250770569,0.6642478108406067,0.6896923780441284,-0.36754274368286133,0.9321574568748474,0.11005837470293045,0.5608164668083191,-0.7916603684425354,0.942275881767273,0.5805939435958862,0.645941972732544,0.0016933772712945938,0.9966977834701538,0.4276461601257324,0.6516237258911133,-0.0013770215446129441,0.993812084197998,0.5658652186393738,0.8703850507736206,-0.13576172292232513,0.632237434387207,0.43024250864982605,0.8686916828155518,-0.07788200676441193,0.41187795996665955,0.5428958535194397,1.034936785697937,0.3027123808860779,0.3371403217315674,0.45704734325408936,1.0517951250076294,0.2879542410373688,0.31827282905578613,0.5404130220413208,1.0691957473754883,0.3274567723274231,0.22715167701244354,0.46915897727012634,1.0726059675216675,0.3088267743587494,0.18714746832847595,0.5569685697555542,1.11864173412323,0.05523053929209709,0.2713850140571594,0.44684165716171265,1.1250300407409668,-0.0032239705324172974,0.2534174621105194
15496.59560383167,0.5019647479057312,0.27547672390937805,-0.7338945269584656,0.9999439716339111,0.5169706344604492,0.2555462419986725,-0.6979848146438599,0.999904990196228,0.527475118637085,0.25555169582366943,-0.6982676982879639,0.9999004602432251,0.5368932485580444,0.2557792663574219,-0.6985843777656555,0.9999041557312012,0.48286357522010803,0.25418341159820557,-0.7095782160758972,0.9998370409011841,0.4686819314956665,0.25330033898353577,-0.7096155285835266,0.9998189806938171,0.456617534160614,0.2529175877571106,-0.7098355889320374,0.9998021721839905,0.5474701523780823,0.26150691509246826,-0.41888636350631714,0.9999179840087891,0.43344366550445557,0.2611055076122284,-0.4800455868244171,0.9997708201408386,0.5170662999153137,0.29672545194625854,-0.6221966743469238,0.9999617338180542,0.4754466712474823,0.29557353258132935,-0.6397317051887512,0.9999289512634277,0.6144539713859558,0.3786112070083618,-0.24600383639335632,0.999943733215332,0.35027265548706055,0.3777652382850647,-0.26983848214149475,0.9996422529220581,0.6332772374153137,0.5313233733177185,-0.11520317196846008,0.9608358144760132,0.3117319345474243,0.5292531251907349,-0.3160477578639984,0.8926504850387573,0.6695218086242676,0.6554099321365356,-0.33288809657096863,0.9593085050582886,0.16492518782615662,0.5679426193237305,-0.7688305974006653,0.9472088813781738,0.6859843730926514,0.695562481880188,-0.3950187563896179,0.9364929795265198,0.10226848721504211,0.5704361200332642,-0.8533114790916443,0.9466454982757568,0.6746534109115601,0.6981821060180664,-0.4830913543701172,0.9446150660514832,0.08422926068305969,0.5594403147697449,-0.9629984498023987,0.9556625485420227,0.6638168096542358,0.6899473071098328,-0.37098991870880127,0.948129415512085,0.11373966932296753,0.5594614744186401,-0.8257424831390381,0.9546443819999695,0.579606831073761,0.6456804871559143,0.0012888616183772683,0.9971617460250854,0.4292233884334564,0.6502969264984131,-0.0010352714452892542,0.9947025179862976,0.5621016621589661,0.8694431185722351,-0.1445339471101761,0.617813229560852,0.430788516998291,0.8638979196548462,-0.08871588110923767,0.3954039216041565,0.5414152145385742,1.035942554473877,0.2770593464374542,0.3401014506816864,0.4530092775821686,1.0509693622589111,0.2632075250148773,0.31529971957206726,0.5385334491729736,1.0681862831115723,0.3001653254032135,0.2292165756225586,0.46364375948905945,1.0713577270507812,0.28251442313194275,0.17995606362819672,0.5533920526504517,1.1183322668075562,0.030131887644529343,0.27492421865463257,0.44537460803985596,1.1252825260162354,-0.028867578133940697,0.25508442521095276
15513.262270498337,0.5124253034591675,0.2762176990509033,-0.6450536251068115,0.9999438524246216,0.5261622071266174,0.25707507133483887,-0.6067649722099304,0.9999115467071533,0.5350462794303894,0.25741297006607056,-0.6070756316184998,0.9999085664749146,0.5432812571525574,0.2578376233577728,-0.6074002981185913,0.9999097585678101,0.49560725688934326,0.25546443462371826,-0.6238916516304016,0.9998482465744019,0.4819337725639343,0.2547367513179779,-0.6239123344421387,0.9998295307159424,0.4686482846736908,0.2539695203304291,-0.6241233944892883,0.9998086094856262,0.5477397441864014,0.2634774446487427,-0.32630106806755066,0.9999316930770874,0.4382934868335724,0.2618512213230133,-0.4122500419616699,0.9998093247413635,0.5232387185096741,0.297387033700943,-0.5330897569656372,0.9999644756317139,0.48701995611190796,0.29552263021469116,-0.5577598810195923,0.9999340772628784,0.6122803092002869,0.37942013144493103,-0.16531285643577576,0.999955415725708,0.3500975966453552,0.3795973062515259,-0.2220716029405594,0.9996529817581177,0.631311297416687,0.531753659248352,-0.030419843271374702,0.9543807506561279,0.310107946395874,0.5310948491096497,-0.28238141536712646,0.8998304009437561,0.6680411100387573,0.6544731259346008,-0.2571426331996918,0.9627828001976013,0.1568707823753357,0.5686567425727844,-0.7334268093109131,0.9508790969848633,0.6848931312561035,0.6947667002677917,-0.3186795711517334,0.9438334703445435,0.0940788984298706,0.5727258920669556,-0.8187040686607361,0.9502301216125488,0.6748461723327637,0.696758508682251,-0.40815380215644836,0.9508975744247437,0.07439389824867249,0.5608505010604858,-0.9290255904197693,0.9586206078529358,0.6633206009864807,0.6885066628456116,-0.29641178250312805,0.9534897208213806,0.10590893775224686,0.5606616139411926,-0.7909995317459106,0.9574759602546692,0.579454243183136,0.6515369415283203,0.008097438141703606,0.9977055191993713,0.42662930488586426,0.6558432579040527,-0.007739999331533909,0.9952457547187805,0.5625110864639282,0.8720974326133728,-0.14259284734725952,0.643947422504425,0.4290057420730591,0.8681584596633911,-0.07788273692131042,0.38563141226768494,0.5443580746650696,1.0495429039001465,0.30485865473747253,0.3115834593772888,0.4559260606765747,1.0507721900939941,0.3071247637271881,0.28047698736190796,0.5365694761276245,1.0693432092666626,0.33109328150749207,0.2136496603488922,0.4677407145500183,1.0713207721710205,0.3304971158504486,0.16835945844650269,0.5528124570846558,1.1210792064666748,0.06693767756223679,0.2544372081756592,0.44491222500801086,1.124971628189087,0.025587620213627815,0.23334863781929016
15529.928937165003,0.5105809569358826,0.2762049734592438,-0.6649749279022217,0.9999406337738037,0.5245601534843445,0.25671499967575073,-0.6267995834350586,0.9999055862426758,0.5340579152107239,0.25707340240478516,-0.6271089315414429,0.9999023675918579,0.5425906777381897,0.2574111819267273,-0.6274358034133911,0.9999035596847534,0.4931704103946686,0.2549440264701843,-0.6428835988044739,0.9998393058776855,0.47863465547561646,0.2539944052696228,-0.6429029107093811,0.9998210072517395,0.4661217927932739,0.2532387375831604,-0.6431148052215576,0.9998005032539368,0.5491201877593994,0.26306745409965515,-0.3447369933128357,0.9999260902404785,0.437528520822525,0.26120898127555847,-0.4256350100040436,0.9997995495796204,0.5223796963691711,0.2975112795829773,-0.5523229241371155,0.9999624490737915,0.48493796586990356,0.29575327038764954,-0.5755435228347778,0.9999313354492188,0.6129283905029297,0.3792335093021393,-0.17853234708309174,0.9999500513076782,0.3504844307899475,0.3786122798919678,-0.22970730066299438,0.9996360540390015,0.6320583820343018,0.5318494439125061,-0.04226145148277283,0.9536635875701904,0.3106958568096161,0.5306804180145264,-0.2887621819972992,0.896111011505127,0.668864905834198,0.6542254090309143,-0.27195975184440613,0.9598162770271301,0.16059982776641846,0.5694130659103394,-0.7490057349205017,0.9501293897628784,0.6855387687683105,0.6945046782493591,-0.3342828154563904,0.9398839473724365,0.09837043285369873,0.5739224553108215,-0.8359559178352356,0.9497866630554199,0.6753685474395752,0.6965907216072083,-0.42466655373573303,0.9474632143974304,0.07869842648506165,0.5621296763420105,-0.9459015727043152,0.9582529067993164,0.6640976667404175,0.6884440779685974,-0.3116062879562378,0.9504556059837341,0.1087614893913269,0.5616029500961304,-0.8065198063850403,0.957048773765564,0.5797057151794434,0.6508409976959229,0.00691421702504158,0.9974285960197449,0.427298367023468,0.6556158065795898,-0.006565292831510305,0.9947572946548462,0.5622528791427612,0.8718141913414001,-0.14185230433940887,0.6541140079498291,0.42993035912513733,0.8706334829330444,-0.07594317942857742,0.3950878381729126,0.5449175238609314,1.050694227218628,0.29639703035354614,0.3229237496852875,0.4566507041454315,1.0512479543685913,0.30351585149765015,0.2854897975921631,0.5375615358352661,1.070636510848999,0.32120487093925476,0.20989029109477997,0.46854379773139954,1.071908712387085,0.32592061161994934,0.1687988042831421,0.551557183265686,1.12224543094635,0.051619354635477066,0.2593465745449066,0.44612088799476624,1.1254570484161377,0.017931774258613586,0.2353871911764145
15546.595603831669,0.5120055079460144,0.27590593695640564,-0.61085045337677,0.999946117401123,0.525749921798706,0.25676098465919495,-0.5733083486557007,0.9999150037765503,0.534859836101532,0.2570967376232147,-0.573616623878479,0.9999120235443115,0.5432345867156982,0.2574642598628998,-0.573941707611084,0.999914288520813,0.4950931668281555,0.2552294135093689,-0.5895500779151917,0.9998569488525391,0.4811877906322479,0.25453123450279236,-0.5895540118217468,0.9998387098312378,0.46816226840019226,0.2538030743598938,-0.5897602438926697,0.9998225569725037,0.548455536365509,0.26324930787086487,-0.3012959063053131,0.9999332427978516,0.4380491375923157,0.2618214786052704,-0.38250353932380676,0.9998210072517395,0.5231906175613403,0.297279417514801,-0.5022844672203064,0.999964714050293,0.48660773038864136,0.2954736053943634,-0.5256041884422302,0.9999356269836426,0.612097978591919,0.3795161545276642,-0.15025587379932404,0.9999535083770752,0.3505159020423889,0.3794810175895691,-0.20107927918434143,0.9996559619903564,0.6314874291419983,0.5318363904953003,-0.022656071931123734,0.9511560797691345,0.31020599603652954,0.5309299230575562,-0.26508408784866333,0.8969405889511108,0.6689150929450989,0.6540449857711792,-0.24283407628536224,0.9603214859962463,0.15711700916290283,0.5686593651771545,-0.7101054191589355,0.9504736065864563,0.685623288154602,0.6945491433143616,-0.3025125563144684,0.9412295818328857,0.09396874904632568,0.5725647807121277,-0.7939282059669495,0.9500124454498291,0.6754358410835266,0.6966204643249512,-0.39026209712028503,0.9484560489654541,0.07418781518936157,0.5606560111045837,-0.9020610451698303,0.9584221243858337,0.6639837026596069,0.6883817315101624,-0.2813011407852173,0.9514145851135254,0.10578926652669907,0.5606464147567749,-0.7668287754058838,0.9575282335281372,0.5785183310508728,0.651261031627655,0.006218066439032555,0.9976392984390259,0.42568036913871765,0.655471920967102,-0.00587542774155736,0.9952319264411926,0.5619146823883057,0.8720159530639648,-0.1453251838684082,0.6622811555862427,0.42951059341430664,0.8714850544929504,-0.07606058567762375,0.3961823284626007,0.5455594062805176,1.0516244173049927,0.27232232689857483,0.3237326741218567,0.4567565619945526,1.0526103973388672,0.2861938774585724,0.2821979820728302,0.5384207367897034,1.0716404914855957,0.29559698700904846,0.20281533896923065,0.4689437448978424,1.0734292268753052,0.3074449598789215,0.16332481801509857,0.5520229935646057,1.123548984527588,0.03263319283723831,0.2579650282859802,0.44537055492401123,1.1268515586853027,0.008027375675737858,0.2327284812927246
15563.262270498335,0.5043672323226929,0.27447012066841125,-0.680847704410553,0.9999462366104126,0.518403947353363,0.25534480810165405,-0.6410514116287231,0.9999105930328369,0.5286396145820618,0.255555123090744,-0.6413717269897461,0.9999072551727295,0.5379930138587952,0.25593268871307373,-0.6416928172111511,0.9999074935913086,0.4861793518066406,0.2534645199775696,-0.6552044153213501,0.9998482465744019,0.47189468145370483,0.25246018171310425,-0.6552097201347351,0.9998297691345215,0.4604588449001312,0.2519196569919586,-0.6554251909255981,0.9998113512992859,0.5474516153335571,0.26221606135368347,-0.3525021970272064,0.9999278783798218,0.4352530241012573,0.26024720072746277,-0.42404186725616455,0.9998062252998352,0.5183349251747131,0.2955482602119446,-0.5663949847221375,0.9999669790267944,0.4776522219181061,0.29368099570274353,-0.5869337916374207,0.9999411106109619,0.612393319606781,0.37857189774513245,-0.178989976644516,0.9999493360519409,0.3493337035179138,0.37773987650871277,-0.22519832849502563,0.9996563196182251,0.630344808101654,0.5313290357589722,-0.04500988498330116,0.9561459422111511,0.31101900339126587,0.5286187529563904,-0.2836158573627472,0.8883200883865356,0.670589029788971,0.653615415096283,-0.2977732717990875,0.9591551423072815,0.17452973127365112,0.570716917514801,-0.7634423971176147,0.9485015273094177,0.6870176792144775,0.6951930522918701,-0.36604657769203186,0.9392372965812683,0.11327927559614182,0.5733981132507324,-0.8556476831436157,0.9484638571739197,0.6759011149406433,0.6973293423652649,-0.4579819440841675,0.9468896389007568,0.09863674640655518,0.5635727047920227,-0.966582179069519,0.9569322466850281,0.6651024222373962,0.6889953017234802,-0.3387564718723297,0.9496303200721741,0.122173011302948,0.5631260275840759,-0.821673572063446,0.9553288817405701,0.5767170190811157,0.6510635614395142,0.00788966752588749,0.9976810216903687,0.4234558641910553,0.6560266017913818,-0.0075468625873327255,0.9952126741409302,0.5636174082756042,0.8706126809120178,-0.13364945352077484,0.6887233853340149,0.42993032932281494,0.8710575103759766,-0.06964051723480225,0.4430389702320099,0.5461690425872803,1.0521130561828613,0.31795915961265564,0.3705908954143524,0.44943270087242126,1.0322790145874023,0.32959482073783875,0.32390668988227844,0.5386511087417603,1.072150707244873,0.3433714210987091,0.23349575698375702,0.47036561369895935,1.0731563568115234,0.35338878631591797,0.18933983147144318,0.5529290437698364,1.1234723329544067,0.0634591206908226,0.29918909072875977,0.4477272033691406,1.1258702278137207,0.03725622594356537,0.2697151005268097
15579.928937165001,0.5050320625305176,0.27438607811927795,-0.668411135673523,0.999931812286377,0.518866240978241,0.25516432523727417,-0.6285678744316101,0.999889612197876,0.5290302634239197,0.25534895062446594,-0.628889262676239,0.9998862743377686,0.5383208394050598,0.25568944215774536,-0.6292088031768799,0.999887228012085,0.48666200041770935,0.25343212485313416,-0.6426202654838562,0.999813973903656,0.4722835123538971,0.25249385833740234,-0.6426309943199158,0.9997931122779846,0.4607575833797455,0.2520315945148468,-0.6428590416908264,0.9997715353965759,0.5473955869674683,0.26205378770828247,-0.3430512547492981,0.9999114274978638,0.43531033396720886,0.260485976934433,-0.41408079862594604,0.9997618794441223,0.5187061429023743,0.2954409420490265,-0.5553756952285767,0.9999574422836304,0.4783633351325989,0.29379332065582275,-0.5757961273193359,0.9999241828918457,0.6118167042732239,0.37895381450653076,-0.17444056272506714,0.9999394416809082,0.34970423579216003,0.37767907977104187,-0.21828055381774902,0.999595582485199,0.6305586099624634,0.5319832563400269,-0.04456326737999916,0.9524759650230408,0.3109099566936493,0.5290039777755737,-0.28518548607826233,0.8816176056861877,0.6701643466949463,0.6543883085250854,-0.2905280590057373,0.9553326368331909,0.1711483895778656,0.5701135396957397,-0.7678817510604858,0.9451287388801575,0.6869673728942871,0.6955511569976807,-0.3563675284385681,0.9344676733016968,0.1084471046924591,0.5717090964317322,-0.8587315678596497,0.945658266544342,0.6764860153198242,0.6976008415222168,-0.4470895528793335,0.9426611661911011,0.09370243549346924,0.5616663098335266,-0.9684159159660339,0.9546029567718506,0.6654238700866699,0.6893594264984131,-0.3308089077472687,0.9458020925521851,0.11805398017168045,0.5617035627365112,-0.8256714940071106,0.9530467391014099,0.5773016214370728,0.6503427624702454,0.006996412295848131,0.9973315000534058,0.4247414171695709,0.6555505394935608,-0.00664861872792244,0.9945856928825378,0.5637815594673157,0.8697975873947144,-0.13936960697174072,0.671617865562439,0.4302937090396881,0.8698517084121704,-0.07520084083080292,0.4182156026363373,0.5474913120269775,1.0524471998214722,0.29739078879356384,0.3467276394367218,0.4592393636703491,1.0520071983337402,0.30856192111968994,0.29653140902519226,0.5403326153755188,1.0726145505905151,0.3211860656738281,0.2141389697790146,0.4710303544998169,1.0729241371154785,0.33086293935775757,0.17420196533203125,0.5527616143226624,1.123694896697998,0.041088301688432693,0.2757832705974579,0.44953837990760803,1.1250542402267456,0.016169030219316483,0.24554836750030518
15596.595603831667,0.5120691657066345,0.27681711316108704,-0.6362671852111816,0.9999496936798096,0.5224214196205139,0.25689417123794556,-0.599120020866394,0.9999264478683472,0.5317644476890564,0.2565360963344574,-0.5994356274604797,0.9999247789382935,0.5403105616569519,0.2563462555408478,-0.599776566028595,0.9999254941940308,0.49297210574150085,0.2563551962375641,-0.6155843734741211,0.9998750686645508,0.47853922843933105,0.25570148229599,-0.615547776222229,0.9998581409454346,0.46687158942222595,0.2553129196166992,-0.615760862827301,0.9998387098312378,0.5453976392745972,0.26155000925064087,-0.3237273395061493,0.9999467134475708,0.43797844648361206,0.26254239678382874,-0.4056129455566406,0.9998599290847778,0.524049699306488,0.2976476848125458,-0.5262083411216736,0.9999724626541138,0.4874468147754669,0.2975419759750366,-0.5495715737342834,0.9999494552612305,0.6130954027175903,0.3796107769012451,-0.15460136532783508,0.9999555349349976,0.3494070768356323,0.37833693623542786,-0.22406059503555298,0.9996688365936279,0.6330425143241882,0.5310915112495422,-0.01379968412220478,0.9521291255950928,0.3105841279029846,0.5292263627052307,-0.3034243881702423,0.8908727765083313,0.6702166199684143,0.6515272855758667,-0.24127048254013062,0.9618973731994629,0.1708216369152069,0.569322943687439,-0.7791638970375061,0.9474850296974182,0.6863634586334229,0.6944910287857056,-0.3050457239151001,0.9438860416412354,0.10804755240678787,0.5731693506240845,-0.867716908454895,0.9486967325210571,0.6763908863067627,0.6962864398956299,-0.3943108916282654,0.9515014290809631,0.09220710396766663,0.5622552633285522,-0.9782915115356445,0.9573417901992798,0.6644745469093323,0.6870115399360657,-0.28092822432518005,0.9542490839958191,0.11659052968025208,0.5617274641990662,-0.8374737501144409,0.9571802616119385,0.5796347856521606,0.6510214805603027,0.014562096446752548,0.997478187084198,0.4261395335197449,0.6556477546691895,-0.014053412713110447,0.9950910806655884,0.5689034461975098,0.869995653629303,-0.13121403753757477,0.7127478718757629,0.4333677887916565,0.8698247671127319,-0.08353155851364136,0.43971019983291626,0.5494277477264404,1.0532608032226562,0.29538750648498535,0.34961605072021484,0.44336622953414917,1.0146033763885498,0.29783791303634644,0.26574912667274475,0.5411496758460999,1.0736175775527954,0.31888657808303833,0.22572176158428192,0.46782004833221436,1.0726218223571777,0.3211802542209625,0.1587831974029541,0.5599395036697388,1.1242386102676392,0.05271926894783974,0.24791474640369415,0.44724762439727783,1.126147985458374,0.019298415631055832,0.19789130985736847
15613.262270498333,0.5106723308563232,0.2765454053878784,-0.6271854639053345,0.9999701976776123,0.5222761631011963,0.2570209205150604,-0.5900940895080566,0.9999532699584961,0.5321362614631653,0.2568015456199646,-0.590400218963623,0.9999513626098633,0.5410258769989014,0.256771445274353,-0.5907145738601685,0.9999512434005737,0.492658793926239,0.2563236653804779,-0.605387806892395,0.9999208450317383,0.4782009422779083,0.25563323497772217,-0.605351984500885,0.9999090433120728,0.46658796072006226,0.25523242354393005,-0.605525553226471,0.9998970031738281,0.5482190847396851,0.26255810260772705,-0.32020676136016846,0.9999641180038452,0.438294380903244,0.26235225796699524,-0.3977660834789276,0.9999079704284668,0.5226243734359741,0.29804444313049316,-0.5198204517364502,0.9999812841415405,0.4848332405090332,0.2972067892551422,-0.5419292449951172,0.9999672174453735,0.6115903258323669,0.3808276653289795,-0.16164368391036987,0.9999611377716064,0.3495272696018219,0.37844452261924744,-0.2153119444847107,0.999754011631012,0.6320709586143494,0.5337052941322327,-0.015165474265813828,0.9530675411224365,0.31085798144340515,0.5294413566589355,-0.27111056447029114,0.8972168564796448,0.6718865036964417,0.6539085507392883,-0.22928066551685333,0.9620925188064575,0.17350363731384277,0.5697707533836365,-0.7183225154876709,0.9512729048728943,0.6882567405700684,0.6957429647445679,-0.2903195321559906,0.9446660280227661,0.11076443642377853,0.5742713809013367,-0.8025237917900085,0.951602041721344,0.6786117553710938,0.6976059079170227,-0.38051652908325195,0.9517883062362671,0.09551659971475601,0.5633372068405151,-0.9123284816741943,0.9596819877624512,0.6672561764717102,0.6890550851821899,-0.26907193660736084,0.9553845524787903,0.11937522888183594,0.5623666644096375,-0.7758511900901794,0.9599068760871887,0.5781102180480957,0.6512740850448608,0.01026891265064478,0.9980884194374084,0.4250340461730957,0.6557366251945496,-0.009809951297938824,0.9963405728340149,0.5690433979034424,0.8716532588005066,-0.12061427533626556,0.7329829931259155,0.43127691745758057,0.8672270774841309,-0.06302415579557419,0.50092613697052,0.5521925091743469,1.0489752292633057,0.31358063220977783,0.3868096172809601,0.45915716886520386,1.0485678911209106,0.31576797366142273,0.3354569375514984,0.5434616804122925,1.0693047046661377,0.33837559819221497,0.2517191767692566,0.47164371609687805,1.0688971281051636,0.33916279673576355,0.1982140690088272,0.5665945410728455,1.1201655864715576,0.08036833256483078,0.2863633334636688,0.4457222521305084,1.1228241920471191,0.04354345053434372,0.2540492117404938
15629.928937165,0.5113146305084229,0.27662038803100586,-0.6320153474807739,0.9999681711196899,0.5225205421447754,0.25709593296051025,-0.5944560170173645,0.9999511241912842,0.532271683216095,0.256820410490036,-0.5947561860084534,0.99994957447052,0.5410728454589844,0.25672194361686707,-0.5950641632080078,0.9999492168426514,0.4930809736251831,0.2564559280872345,-0.6107093095779419,0.999915599822998,0.47861015796661377,0.2557465136051178,-0.6106760501861572,0.9999035596847534,0.46683740615844727,0.2553258240222931,-0.6108555793762207,0.9998886585235596,0.5477367639541626,0.26229989528656006,-0.3217521607875824,0.9999626874923706,0.43819406628608704,0.26246559619903564,-0.40426984429359436,0.999902606010437,0.523026168346405,0.2980325520038605,-0.5236427187919617,0.9999809265136719,0.48591554164886475,0.29742294549942017,-0.5471331477165222,0.9999662637710571,0.6108358502388,0.3810635805130005,-0.15851807594299316,0.9999643564224243,0.3488629162311554,0.37960559129714966,-0.22161060571670532,0.9997392296791077,0.6324597597122192,0.5325812101364136,-0.013769540935754776,0.9574858546257019,0.3110281229019165,0.5287749767303467,-0.2831377685070038,0.899215817451477,0.6712517738342285,0.6531474590301514,-0.23665675520896912,0.9668691754341125,0.1727440357208252,0.5691366791725159,-0.737982451915741,0.9512798190116882,0.6873832941055298,0.694660484790802,-0.2998024523258209,0.9501562118530273,0.10896667838096619,0.5721777081489563,-0.823547899723053,0.9517595767974854,0.6782771944999695,0.6967480182647705,-0.38960397243499756,0.9567519426345825,0.09443366527557373,0.5614274144172668,-0.9340746402740479,0.9598140716552734,0.6671264171600342,0.6880394816398621,-0.27651429176330566,0.9596226811408997,0.11849954724311829,0.561002254486084,-0.7958207726478577,0.9599661827087402,0.57755446434021,0.6499057412147522,0.01477170642465353,0.9980936646461487,0.4269014596939087,0.6545162796974182,-0.014290988445281982,0.9962940812110901,0.5678921341896057,0.8694506883621216,-0.11345576494932175,0.7180973887443542,0.43230655789375305,0.8643397092819214,-0.06873822212219238,0.4773794412612915,0.5508230924606323,1.049302101135254,0.3136449158191681,0.37522849440574646,0.4600366950035095,1.048632264137268,0.31082817912101746,0.31309249997138977,0.5414696931838989,1.0698167085647583,0.3373796343803406,0.2534375488758087,0.47153446078300476,1.068540096282959,0.3338773846626282,0.18452651798725128,0.5666794180870056,1.1198339462280273,0.07480941712856293,0.2758772671222687,0.4501112103462219,1.122960090637207,0.03252342715859413,0.23613108694553375
15646.595603831665,0.5117560029029846,0.27667081356048584,-0.7244431376457214,0.9999746084213257,0.5229849219322205,0.2571801543235779,-0.688382089138031,0.9999589920043945,0.532604455947876,0.2568587064743042,-0.6886671185493469,0.9999581575393677,0.541376531124115,0.25671297311782837,-0.688980758190155,0.9999573230743408,0.4939163327217102,0.2564609944820404,-0.704246461391449,0.9999287128448486,0.47954341769218445,0.25570645928382874,-0.7042248845100403,0.9999183416366577,0.4680024981498718,0.2553057372570038,-0.7043884992599487,0.9999047517776489,0.5475232601165771,0.26191648840904236,-0.4096837639808655,0.9999707937240601,0.43905994296073914,0.26237595081329346,-0.4896959066390991,0.9999157190322876,0.5237139463424683,0.2979000508785248,-0.6126822829246521,0.9999854564666748,0.4862586557865143,0.2971063256263733,-0.6354988217353821,0.9999731779098511,0.6128212809562683,0.38009190559387207,-0.23356901109218597,0.9999736547470093,0.3494759202003479,0.3776634633541107,-0.28431689739227295,0.9997991919517517,0.632286548614502,0.5322080850601196,-0.08347009122371674,0.9659879207611084,0.31096965074539185,0.5287380814552307,-0.3234308958053589,0.9183670282363892,0.671511173248291,0.6534867286682129,-0.31570273637771606,0.969623327255249,0.17089539766311646,0.5690411329269409,-0.7652844786643982,0.9577071666717529,0.6876755952835083,0.6958296298980713,-0.3817828595638275,0.9521732330322266,0.1080731675028801,0.5738257169723511,-0.8513719439506531,0.9556328058242798,0.6781370639801025,0.6979941129684448,-0.47461292147636414,0.9586445093154907,0.09231644868850708,0.5632143020629883,-0.9653100967407227,0.9632033109664917,0.6667338013648987,0.6891832947731018,-0.35717594623565674,0.9616456627845764,0.11647698283195496,0.5622913837432861,-0.8244221806526184,0.9632440209388733,0.5778597593307495,0.6469404101371765,0.007481738459318876,0.9981107711791992,0.42555445432662964,0.6514263153076172,-0.00699664605781436,0.9962140917778015,0.5670293569564819,0.8639708757400513,-0.12143488973379135,0.7276443839073181,0.4303799569606781,0.8618409633636475,-0.05935017392039299,0.5124309659004211,0.5515598058700562,1.0437400341033936,0.3184501528739929,0.39526745676994324,0.4590998888015747,1.0441908836364746,0.32300865650177,0.350890189409256,0.5428097248077393,1.0639840364456177,0.3431713283061981,0.262631356716156,0.47215259075164795,1.064581274986267,0.3459172546863556,0.21487168967723846,0.5651842355728149,1.1151320934295654,0.07500194013118744,0.30371424555778503,0.4453352093696594,1.1185879707336426,0.04170437529683113,0.2724531590938568
15663.262270498331,0.5070551633834839,0.2810932695865631,-0.7202533483505249,0.999942421913147,0.5219483971595764,0.2617279887199402,-0.6862452030181885,0.9999117851257324,0.5324047803878784,0.26171690225601196,-0.686542272567749,0.9999086856842041,0.5414960980415344,0.2619204819202423,-0.6869118213653564,0.999911904335022,0.49041736125946045,0.25992482900619507,-0.6998041272163391,0.9998425245285034,0.4763059914112091,0.25871041417121887,-0.699751615524292,0.9998162388801575,0.4642626941204071,0.2578767240047455,-0.6999458074569702,0.9997928738594055,0.5503419041633606,0.2667861580848694,-0.4152447283267975,0.9999345541000366,0.43875494599342346,0.2639386057853699,-0.48421719670295715,0.9998052716255188,0.5204545259475708,0.3025434613227844,-0.6105454564094543,0.9999675750732422,0.48010432720184326,0.30067846179008484,-0.6302550435066223,0.9999384880065918,0.6115516424179077,0.38113728165626526,-0.24730871617794037,0.9999550580978394,0.34966030716896057,0.37931859493255615,-0.2772434651851654,0.9996034502983093,0.6331307888031006,0.5325607657432556,-0.09753888100385666,0.9575231075286865,0.31011050939559937,0.531471312046051,-0.29465097188949585,0.8841972351074219,0.6695488691329956,0.6535878777503967,-0.30064627528190613,0.9581643342971802,0.15784728527069092,0.570417046546936,-0.692296028137207,0.9337709546089172,0.6857408285140991,0.6953141689300537,-0.36098039150238037,0.9374153017997742,0.09407957643270493,0.5751252770423889,-0.7688049077987671,0.933842658996582,0.676360011100769,0.6971694827079773,-0.4484836459159851,0.9456965327262878,0.0796513557434082,0.5642930865287781,-0.8838653564453125,0.9454496502876282,0.6644202470779419,0.6873605847358704,-0.33885657787323,0.9498478770256042,0.10552704334259033,0.5634729862213135,-0.750864565372467,0.9469549655914307,0.5783624053001404,0.65089350938797,0.0024916580878198147,0.9969578981399536,0.4258861541748047,0.6549040675163269,-0.0020346075762063265,0.9930486679077148,0.5666064620018005,0.8711690902709961,-0.15033350884914398,0.6856144666671753,0.43241724371910095,0.8653859496116638,-0.055122654885053635,0.40911665558815,0.550868570804596,1.0497387647628784,0.2827507257461548,0.3145429790019989,0.45909231901168823,1.0475447177886963,0.3249085247516632,0.2545809745788574,0.5446115136146545,1.0696771144866943,0.30769917368888855,0.20660853385925293,0.4714045226573944,1.06764554977417,0.34877100586891174,0.1602894365787506,0.5578688383102417,1.1214840412139893,0.045690685510635376,0.22134222090244293,0.4487846791744232,1.121518850326538,0.05306679755449295,0.1863139122724533
15679.928937164997,0.5142518281936646,0.2764941155910492,-0.6043748259544373,0.9999476671218872,0.5253316760063171,0.2566347122192383,-0.5689023733139038,0.999923825263977,0.5342475771903992,0.2564624547958374,-0.5692154169082642,0.9999233484268188,0.542319118976593,0.25639867782592773,-0.569568932056427,0.9999240636825562,0.4954207241535187,0.2557465434074402,-0.5857551097869873,0.999871015548706,0.480727881193161,0.25498703122138977,-0.5857024192810059,0.9998528957366943,0.4684692323207855,0.2545126676559448,-0.5859142541885376,0.9998316764831543,0.5465677380561829,0.26184728741645813,-0.30151399970054626,0.9999474287033081,0.4392833411693573,0.2620803713798523,-0.3844847083091736,0.9998565912246704,0.5257623195648193,0.29702141880989075,-0.49665895104408264,0.999971866607666,0.4898378252983093,0.29684069752693176,-0.5203821063041687,0.9999479055404663,0.61309814453125,0.3794941306114197,-0.14085467159748077,0.9999574422836304,0.3498709797859192,0.37742194533348083,-0.2097223550081253,0.9996795654296875,0.6301741003990173,0.5306649208068848,0.0030196537263691425,0.9521780014038086,0.3101688325405121,0.5301932096481323,-0.26992151141166687,0.8981520533561707,0.6671905517578125,0.6526017785072327,-0.2099936306476593,0.9626316428184509,0.16525819897651672,0.5695849061012268,-0.7074401378631592,0.9510036110877991,0.6847913861274719,0.694496750831604,-0.27076297998428345,0.9456177353858948,0.10306445509195328,0.5742588043212891,-0.7901647090911865,0.9517571926116943,0.6746332049369812,0.6961569786071777,-0.35790395736694336,0.953018069267273,0.08682429790496826,0.5629860162734985,-0.901630163192749,0.960170567035675,0.6623800992965698,0.6863805651664734,-0.2484014332294464,0.9555708765983582,0.11232030391693115,0.5623155236244202,-0.7654639482498169,0.9598850011825562,0.578252911567688,0.6517879366874695,0.01531502977013588,0.9975149631500244,0.42394816875457764,0.6560395956039429,-0.01480984129011631,0.9950668811798096,0.56801438331604,0.8710960149765015,-0.1367989033460617,0.7044250965118408,0.43432217836380005,0.8666630387306213,-0.08364824950695038,0.4268711805343628,0.5527887940406799,1.0535365343093872,0.29797327518463135,0.3166101276874542,0.45502394437789917,1.0525732040405273,0.2975638508796692,0.24606306850910187,0.5443569421768188,1.073728084564209,0.3234122693538666,0.21395650506019592,0.4659539461135864,1.0730648040771484,0.32205334305763245,0.14931921660900116,0.5635191798210144,1.1250691413879395,0.06678110361099243,0.21853947639465332,0.4457000195980072,1.1256252527236938,0.02880495972931385,0.1802583783864975
15696.595603831664,0.5132470726966858,0.2765378952026367,-0.6055011749267578,0.9999454021453857,0.5248451232910156,0.25670987367630005,-0.5694689750671387,0.9999212026596069,0.5340715646743774,0.25655704736709595,-0.5697870850563049,0.9999207258224487,0.5422389507293701,0.2565661668777466,-0.5701438188552856,0.999921441078186,0.49470311403274536,0.25592148303985596,-0.5855092406272888,0.9998646974563599,0.48000553250312805,0.2552684247493744,-0.5854463577270508,0.9998449087142944,0.46775755286216736,0.25487273931503296,-0.585655152797699,0.9998225569725037,0.5474572777748108,0.2623099088668823,-0.30101171135902405,0.9999465942382812,0.4383021891117096,0.2626119554042816,-0.38026681542396545,0.9998481273651123,0.5250368118286133,0.2971261441707611,-0.4976140856742859,0.9999711513519287,0.4885324239730835,0.29708874225616455,-0.5202934741973877,0.9999459981918335,0.61244136095047,0.3794257938861847,-0.14265285432338715,0.9999556541442871,0.34916889667510986,0.3778088092803955,-0.20216871798038483,0.9996531009674072,0.629866898059845,0.5315804481506348,0.002679286990314722,0.9513192772865295,0.3090764582157135,0.5299414396286011,-0.26036137342453003,0.8899006843566895,0.6671445369720459,0.6532794237136841,-0.20908652245998383,0.9607792496681213,0.16396373510360718,0.5695345997810364,-0.702114462852478,0.9468326568603516,0.684969425201416,0.6951125264167786,-0.26973870396614075,0.943742036819458,0.10202232003211975,0.5737459063529968,-0.7847890853881836,0.9483026266098022,0.6746634244918823,0.6966562867164612,-0.35714849829673767,0.9512749314308167,0.08581650257110596,0.5627081394195557,-0.8966032862663269,0.9573253989219666,0.6624301671981812,0.6870694756507874,-0.24744461476802826,0.9540872573852539,0.11147090792655945,0.5622419714927673,-0.7604213356971741,0.9573004841804504,0.5784846544265747,0.6520366668701172,0.013082743622362614,0.9975153207778931,0.4235955476760864,0.6561718583106995,-0.012571476399898529,0.9949676394462585,0.5680170059204102,0.8712667226791382,-0.14435529708862305,0.7165543437004089,0.43365541100502014,0.8672811388969421,-0.08632688969373703,0.4374779462814331,0.5526883006095886,1.0533198118209839,0.3025800287723541,0.31720373034477234,0.45517492294311523,1.052464485168457,0.3045317232608795,0.24360057711601257,0.5444937944412231,1.0733617544174194,0.3292659819126129,0.21057721972465515,0.46649831533432007,1.072956919670105,0.33016717433929443,0.1496196836233139,0.5627623200416565,1.125199317932129,0.07317223399877548,0.216941237449646,0.44511333107948303,1.1253644227981567,0.038490742444992065,0.17650969326496124
15713.26227049833,0.5141686797142029,0.2781396806240082,-0.6279078125953674,0.9999467134475708,0.5253363847732544,0.258036345243454,-0.5925408601760864,0.9999217987060547,0.5345355272293091,0.25784316658973694,-0.5928528904914856,0.9999207258224487,0.5424906015396118,0.25782567262649536,-0.593210756778717,0.9999212026596069,0.495604544878006,0.2572357654571533,-0.6093311905860901,0.9998669624328613,0.48108360171318054,0.2565471827983856,-0.6092828512191772,0.9998490810394287,0.4687352776527405,0.2560347020626068,-0.6094966530799866,0.9998260140419006,0.5466374158859253,0.2628679871559143,-0.31931692361831665,0.9999463558197021,0.4389452338218689,0.2630899250507355,-0.40222421288490295,0.9998536109924316,0.5255359411239624,0.29867270588874817,-0.5174386501312256,0.9999721050262451,0.48995241522789,0.2984471321105957,-0.5411680340766907,0.9999475479125977,0.6129935383796692,0.3799195885658264,-0.14879228174686432,0.9999594688415527,0.34941956400871277,0.37784630060195923,-0.2200925350189209,0.9996857643127441,0.631525456905365,0.5310887694358826,-0.00214858609251678,0.9547125101089478,0.3103002905845642,0.5302996635437012,-0.2914701998233795,0.8948391675949097,0.6678355932235718,0.6526373028755188,-0.2205493450164795,0.964155375957489,0.16553130745887756,0.5696138143539429,-0.7545543313026428,0.9510474801063538,0.6854522228240967,0.6953436732292175,-0.28270524740219116,0.947281539440155,0.10412303358316422,0.5748681426048279,-0.841160237789154,0.9526471495628357,0.674727201461792,0.6970074772834778,-0.37083879113197327,0.9546197056770325,0.08839786052703857,0.5635234117507935,-0.9530779719352722,0.9609461426734924,0.6621711850166321,0.6870707273483276,-0.2592311501502991,0.9567376971244812,0.11332970857620239,0.5625120401382446,-0.8131389021873474,0.9603121280670166,0.5784661769866943,0.6529328227043152,0.015070473775267601,0.9974325299263,0.4247540831565857,0.656812310218811,-0.01456888485699892,0.9948403239250183,0.5680083632469177,0.8738417029380798,-0.14290736615657806,0.6897603273391724,0.4348287880420685,0.8687312006950378,-0.08758377283811569,0.4006117582321167,0.5518398880958557,1.0577601194381714,0.28487303853034973,0.30956903100013733,0.45224469900131226,1.0568232536315918,0.2863886058330536,0.23960627615451813,0.5437366962432861,1.0783140659332275,0.3090896010398865,0.20941168069839478,0.4628850221633911,1.077852725982666,0.30945858359336853,0.14703144133090973,0.5619030594825745,1.128566026687622,0.04658406972885132,0.2147381454706192,0.4425322711467743,1.1296465396881104,0.009352880530059338,0.17660675942897797
15729.928937164996,0.5137981176376343,0.27814170718193054,-0.620990514755249,0.999943733215332,0.5251251459121704,0.25804489850997925,-0.585582435131073,0.99991774559021,0.5343906283378601,0.25785335898399353,-0.585894763469696,0.9999165534973145,0.5424337387084961,0.257851243019104,-0.5862534046173096,0.9999171495437622,0.49529317021369934,0.2571991980075836,-0.6020181179046631,0.9998618364334106,0.48076289892196655,0.25646889209747314,-0.6019694805145264,0.9998434782028198,0.46852293610572815,0.25592994689941406,-0.6021878123283386,0.9998207688331604,0.5469180941581726,0.2628563344478607,-0.313094824552536,0.9999432563781738,0.43893295526504517,0.26291462779045105,-0.3942699134349823,0.9998496770858765,0.525263786315918,0.2986978590488434,-0.5108708143234253,0.9999704360961914,0.4894150495529175,0.29838892817497253,-0.5341136455535889,0.9999449253082275,0.613182008266449,0.3800469636917114,-0.14295558631420135,0.9999562501907349,0.34967631101608276,0.3778810203075409,-0.21433410048484802,0.9996805191040039,0.6318161487579346,0.5313565731048584,0.003405739087611437,0.9525430202484131,0.3102068305015564,0.5305507779121399,-0.2910799980163574,0.8913918733596802,0.6682248115539551,0.65296471118927,-0.21160759031772614,0.9621393084526062,0.1650618612766266,0.5696587562561035,-0.75931715965271,0.9499980211257935,0.6859680414199829,0.6959846019744873,-0.27278774976730347,0.9448754191398621,0.10313928127288818,0.5750443935394287,-0.8461868166923523,0.9518231749534607,0.6749656200408936,0.6976929306983948,-0.3605331480503082,0.9524880647659302,0.08753073215484619,0.5634982585906982,-0.9574974775314331,0.9602270722389221,0.6624126434326172,0.6879801750183105,-0.25002896785736084,0.9547910690307617,0.11266720294952393,0.5624698996543884,-0.8177680969238281,0.9596444368362427,0.5783877968788147,0.6533981561660767,0.015098066069185734,0.9974181652069092,0.42469409108161926,0.6573922634124756,-0.014605079777538776,0.9949305653572083,0.5669410824775696,0.8744105100631714,-0.1390853226184845,0.6947538256645203,0.43479761481285095,0.873813807964325,-0.08745431154966354,0.40175387263298035,0.5510945916175842,1.0584030151367188,0.28639328479766846,0.31139448285102844,0.4519657492637634,1.0574028491973877,0.28918012976646423,0.23417289555072784,0.5433292388916016,1.0789273977279663,0.31040000915527344,0.20541830360889435,0.4626144766807556,1.078309416770935,0.3126426935195923,0.1432528793811798,0.5600303411483765,1.129286527633667,0.048198457807302475,0.2141534686088562,0.4419666826725006,1.1301205158233643,0.014088618569076061,0.17258627712726593
15746.595603831662,0.516370952129364,0.27837103605270386,-0.6011545062065125,0.9999517202377319,0.5290371775627136,0.2587302327156067,-0.5654873847961426,0.9999303817749023,0.5380569100379944,0.25877586007118225,-0.5657979249954224,0.9999287128448486,0.5456094145774841,0.25901663303375244,-0.5661497116088867,0.9999302625656128,0.4992707669734955,0.25739043951034546,-0.5844173431396484,0.9998824596405029,0.4850948452949524,0.25673454999923706,-0.5843697190284729,0.9998646974563599,0.47174590826034546,0.2561423182487488,-0.5845558047294617,0.9998456239700317,0.5485363006591797,0.26367226243019104,-0.29811424016952515,0.9999496936798096,0.4399498701095581,0.26276710629463196,-0.3914557099342346,0.9998669624328613,0.5265033841133118,0.29942670464515686,-0.49307915568351746,0.9999728202819824,0.49149131774902344,0.2982727587223053,-0.5198308825492859,0.9999489784240723,0.6108448505401611,0.3797028660774231,-0.145713672041893,0.9999618530273438,0.3497745990753174,0.379242479801178,-0.21528850495815277,0.9996695518493652,0.6326543688774109,0.529975175857544,-0.012345998547971249,0.9501492381095886,0.3086335062980652,0.5295273661613464,-0.2810412347316742,0.9023311138153076,0.6684039831161499,0.6523134112358093,-0.22519181668758392,0.9608343839645386,0.157895028591156,0.5683382749557495,-0.7145885229110718,0.9494785666465759,0.686453640460968,0.694843590259552,-0.2850487530231476,0.9420204162597656,0.09433606266975403,0.5719285011291504,-0.796415388584137,0.9496356844902039,0.674908459186554,0.6968069076538086,-0.3691233694553375,0.9498037695884705,0.0733976662158966,0.5608872175216675,-0.9036979079246521,0.9584338665008545,0.6627568602561951,0.6872705221176147,-0.2622518539428711,0.9527920484542847,0.10653147101402283,0.5613325834274292,-0.77079838514328,0.9581541419029236,0.5767350792884827,0.6523963212966919,0.009871035814285278,0.9973695278167725,0.4260192811489105,0.656353235244751,-0.009424353018403053,0.9943720102310181,0.5659725666046143,0.8772892951965332,-0.14396043121814728,0.6431764960289001,0.4344226121902466,0.8753370046615601,-0.07721711695194244,0.3427388370037079,0.5528879761695862,1.060335397720337,0.25945761799812317,0.2769717276096344,0.45371630787849426,1.058987021446228,0.27707576751708984,0.2137879729270935,0.5462483167648315,1.0812041759490967,0.28194746375083923,0.18623824417591095,0.4648461937904358,1.0799791812896729,0.2985919713973999,0.13172517716884613,0.5619745850563049,1.1314749717712402,0.026561826467514038,0.2013131082057953,0.4444786608219147,1.132795810699463,0.006121688522398472,0.16508229076862335
15763.262270498328,0.510720431804657,0.2790173888206482,-0.5978385210037231,0.9999418258666992,0.5239779949188232,0.2586873769760132,-0.5635194778442383,0.9999121427536011,0.5338239669799805,0.2585884630680084,-0.5638119578361511,0.9999096393585205,0.5422899723052979,0.25873738527297974,-0.564153790473938,0.9999111890792847,0.49267852306365967,0.2574060261249542,-0.5782099962234497,0.9998598098754883,0.4780808389186859,0.2563934922218323,-0.5781700015068054,0.9998435974121094,0.4659767150878906,0.2556842267513275,-0.5783838629722595,0.9998258948326111,0.5489336252212524,0.2639296054840088,-0.29886457324028015,0.9999343156814575,0.43860045075416565,0.26263895630836487,-0.3720757067203522,0.9998456239700317,0.5229832530021667,0.2999908924102783,-0.4908471405506134,0.9999665021896362,0.4850673973560333,0.2993016839027405,-0.5118241906166077,0.9999411106109619,0.6124317646026611,0.3796939253807068,-0.13523760437965393,0.9999467134475708,0.3487165570259094,0.3778224289417267,-0.20109504461288452,0.9996943473815918,0.6318300366401672,0.5304675102233887,0.005287179723381996,0.9478592276573181,0.31057214736938477,0.5296474695205688,-0.2852121889591217,0.8927639126777649,0.6676974296569824,0.6522400379180908,-0.19535933434963226,0.9566903114318848,0.16987353563308716,0.5701028108596802,-0.7532640099525452,0.9512883424758911,0.6858861446380615,0.6955922245979309,-0.25322675704956055,0.937350869178772,0.10818430781364441,0.5753415822982788,-0.8396257758140564,0.9527046084403992,0.6738718748092651,0.697337806224823,-0.33810484409332275,0.9456568360328674,0.0923510268330574,0.563616156578064,-0.9457571506500244,0.9608004093170166,0.6615056395530701,0.6875296831130981,-0.23221853375434875,0.9487621784210205,0.11705439537763596,0.5626391172409058,-0.8096237182617188,0.9601767063140869,0.5772009491920471,0.6521181464195251,0.014042369090020657,0.9972525238990784,0.4243282675743103,0.6568005681037903,-0.01362204272300005,0.9949873685836792,0.5668967366218567,0.8739405870437622,-0.13392452895641327,0.6880361437797546,0.4345964789390564,0.8698890209197998,-0.07972896844148636,0.3976220488548279,0.5521475076675415,1.0607987642288208,0.2601909041404724,0.31926050782203674,0.45437443256378174,1.059850811958313,0.26902133226394653,0.24214670062065125,0.5446312427520752,1.0814565420150757,0.2810964584350586,0.1952361911535263,0.4650886654853821,1.080885648727417,0.289508193731308,0.13774989545345306,0.559855043888092,1.132778286933899,0.016907716169953346,0.22266338765621185,0.4461011290550232,1.1340148448944092,-0.009793099015951157,0.18237148225307465
15779.928937164994,0.512147843837738,0.2777232527732849,-0.642874538898468,0.999948263168335,0.5259037613868713,0.2575344145298004,-0.6068477034568787,0.9999231100082397,0.5355488657951355,0.2575721740722656,-0.6071577668190002,0.999921441078186,0.543880045413971,0.2577240765094757,-0.6075097322463989,0.9999210834503174,0.49459198117256165,0.2564350664615631,-0.6233471035957336,0.9998681545257568,0.47970107197761536,0.2556830644607544,-0.6232954263687134,0.9998503923416138,0.4674679934978485,0.2551438510417938,-0.6234967708587646,0.9998281002044678,0.5505788922309875,0.263303279876709,-0.3324125409126282,0.9999457597732544,0.43902766704559326,0.26280251145362854,-0.4143718183040619,0.999854326248169,0.5243750214576721,0.2993302643299103,-0.5322273969650269,0.9999732971191406,0.486333429813385,0.2981250286102295,-0.5556729435920715,0.9999507665634155,0.6137905716896057,0.3794161379337311,-0.16381624341011047,0.9999591112136841,0.3481575548648834,0.37862342596054077,-0.22821199893951416,0.999687671661377,0.6320919394493103,0.5299798846244812,-0.014713168144226074,0.954887866973877,0.3086612820625305,0.5292332768440247,-0.2863553464412689,0.9004356265068054,0.6669732332229614,0.6512704491615295,-0.23380348086357117,0.962135374546051,0.1672511100769043,0.5698069334030151,-0.7414146661758423,0.9526036977767944,0.6842882633209229,0.6933627724647522,-0.29679062962532043,0.9446841478347778,0.10555512458086014,0.5748845934867859,-0.8279139399528503,0.9538235068321228,0.672957181930542,0.6952897906303406,-0.3844449818134308,0.9521681666374207,0.08997547626495361,0.5642828941345215,-0.9396260380744934,0.9618539214134216,0.6605142951011658,0.6849220395088196,-0.27232271432876587,0.9549900889396667,0.11453071236610413,0.5632884502410889,-0.7997010350227356,0.9614300727844238,0.5764811635017395,0.6528481841087341,0.01142036821693182,0.9974182844161987,0.4227510094642639,0.656882107257843,-0.010891945101320744,0.9945427179336548,0.5663683414459229,0.8727936744689941,-0.1487531065940857,0.6739566922187805,0.43338602781295776,0.8674730062484741,-0.07849036157131195,0.38638848066329956,0.5509415864944458,1.05619478225708,0.2851833999156952,0.2904148995876312,0.45280417799949646,1.054824948310852,0.30644139647483826,0.22622238099575043,0.5432924032211304,1.0764505863189697,0.31021785736083984,0.20054441690444946,0.46378982067108154,1.0754516124725342,0.3307656943798065,0.1438465565443039,0.5601202845573425,1.1280900239944458,0.04897192493081093,0.2034454196691513,0.44387635588645935,1.1288105249404907,0.03190525248646736,0.16683728992938995
15796.59560383166,0.5119445323944092,0.2776249945163727,-0.6178907155990601,0.9999552965164185,0.5262936949729919,0.2577114999294281,-0.5817388892173767,0.9999324083328247,0.5360227227210999,0.25799036026000977,-0.5820542573928833,0.9999301433563232,0.5445518493652344,0.25839248299598694,-0.5824023485183716,0.999929666519165,0.49519234895706177,0.2558816373348236,-0.5977142453193665,0.9998841285705566,0.4805338680744171,0.25480395555496216,-0.5976617336273193,0.9998679161071777,0.4686368703842163,0.2539249658584595,-0.5978489518165588,0.9998496770858765,0.5514891743659973,0.2639091908931732,-0.31024065613746643,0.9999516010284424,0.43948936462402344,0.26101920008659363,-0.39018356800079346,0.9998704195022583,0.5237472057342529,0.29940634965896606,-0.5086934566497803,0.9999762773513794,0.4854311943054199,0.2972627580165863,-0.5315470099449158,0.9999568462371826,0.6142929792404175,0.3792053163051605,-0.14858387410640717,0.9999620914459229,0.34817174077033997,0.3784690797328949,-0.20719222724437714,0.999708354473114,0.632656991481781,0.5291082859039307,0.0010419458849355578,0.9566915035247803,0.3088874816894531,0.5288994908332825,-0.26409900188446045,0.8995004296302795,0.6665352582931519,0.6497085690498352,-0.21238860487937927,0.9636277556419373,0.17008891701698303,0.5699039101600647,-0.7199694514274597,0.9547556042671204,0.6840040683746338,0.6907837390899658,-0.27475646138191223,0.946622371673584,0.10953792929649353,0.5762850046157837,-0.8067411780357361,0.9562233686447144,0.6724367737770081,0.6929096579551697,-0.3611343801021576,0.9536001682281494,0.09580370783805847,0.5655812621116638,-0.9166348576545715,0.9637261629104614,0.659792423248291,0.682129442691803,-0.25007233023643494,0.9566294550895691,0.11866331100463867,0.5636484622955322,-0.7775214910507202,0.9631595015525818,0.5750597715377808,0.6554447412490845,0.010335233993828297,0.9977485537528992,0.4217384457588196,0.6588770747184753,-0.009835069067776203,0.9952713847160339,0.5647827982902527,0.8752366900444031,-0.14190024137496948,0.6564817428588867,0.4319346845149994,0.8703444004058838,-0.0745614618062973,0.3797389566898346,0.5495273470878601,1.0554741621017456,0.3009854257106781,0.27580225467681885,0.45177778601646423,1.0564684867858887,0.3118739426136017,0.22861576080322266,0.5421751141548157,1.0753254890441895,0.32761579751968384,0.19726137816905975,0.46272552013397217,1.0768742561340332,0.33683326840400696,0.14542339742183685,0.5589058995246887,1.127732515335083,0.0730331689119339,0.19727946817874908,0.4431329071521759,1.1311620473861694,0.040647342801094055,0.16953504085540771
15813.262270498326,0.5092288255691528,0.28036031126976013,-0.5687903761863708,0.9999576807022095,0.5247288346290588,0.26102614402770996,-0.5364531874656677,0.9999322891235352,0.5351740121841431,0.261305570602417,-0.5367239713668823,0.9999284744262695,0.544269859790802,0.26165059208869934,-0.5370311737060547,0.9999300241470337,0.4931449592113495,0.25869011878967285,-0.5508862137794495,0.9998958110809326,0.4783439338207245,0.2572140097618103,-0.5508612394332886,0.9998830556869507,0.4665704369544983,0.2560415267944336,-0.5510308742523193,0.9998725652694702,0.5525726079940796,0.26682862639427185,-0.2878432273864746,0.9999417066574097,0.4394277036190033,0.26265910267829895,-0.36090385913848877,0.9998738765716553,0.521582841873169,0.30265942215919495,-0.46782612800598145,0.9999709129333496,0.48184776306152344,0.3001233637332916,-0.48876574635505676,0.9999501705169678,0.611011803150177,0.3797052204608917,-0.15225347876548767,0.9999552965164185,0.3490028381347656,0.3803197741508484,-0.1966150850057602,0.9997422099113464,0.6348808407783508,0.5299093127250671,-0.032315466552972794,0.9513814449310303,0.3107728362083435,0.5323060154914856,-0.2549479603767395,0.9150465726852417,0.6676515936851501,0.6507315635681152,-0.22345587611198425,0.9603213667869568,0.16507211327552795,0.571807324886322,-0.6654293537139893,0.9593712687492371,0.6842283010482788,0.6918176412582397,-0.2775474190711975,0.9407787322998047,0.10308393836021423,0.5773334503173828,-0.7427884340286255,0.9584298133850098,0.6726864576339722,0.694011926651001,-0.35651078820228577,0.9481242299079895,0.08929112553596497,0.5652769207954407,-0.843110978603363,0.9655400514602661,0.660006046295166,0.6833205223083496,-0.2576414942741394,0.9519652128219604,0.11353889107704163,0.5639758706092834,-0.7183002233505249,0.9651517868041992,0.5790603160858154,0.6525235772132874,0.001560982782393694,0.9972066283226013,0.42604905366897583,0.6563603281974792,-0.0012639269698411226,0.994739830493927,0.5637761354446411,0.87479168176651,-0.14474095404148102,0.6203981637954712,0.43308088183403015,0.8688923120498657,-0.07761793583631516,0.35435980558395386,0.5513052940368652,1.060447335243225,0.21002374589443207,0.2745591402053833,0.45554760098457336,1.0605249404907227,0.22582244873046875,0.2310265153646469,0.5449492931365967,1.0814487934112549,0.2287672460079193,0.17737871408462524,0.46749094128608704,1.0816694498062134,0.2427472174167633,0.13351784646511078,0.5604045391082764,1.133105754852295,-0.015110320411622524,0.21126793324947357,0.44475749135017395,1.1359493732452393,-0.038019537925720215,0.18355292081832886
15829.928937164992,0.5091028213500977,0.2789115309715271,-0.583663821220398,0.9999536275863647,0.5238828063011169,0.25961798429489136,-0.5503175258636475,0.9999270439147949,0.534083366394043,0.2597949802875519,-0.5506069660186768,0.999922513961792,0.5430974364280701,0.260104238986969,-0.5509274005889893,0.9999231100082397,0.4919986426830292,0.25755575299263,-0.563765823841095,0.9998846054077148,0.47719645500183105,0.2562788724899292,-0.5637286305427551,0.9998694658279419,0.4654013216495514,0.255435049533844,-0.5639224052429199,0.9998576641082764,0.551595151424408,0.2654859721660614,-0.29342690110206604,0.999940037727356,0.439148873090744,0.26277947425842285,-0.3619711101055145,0.999866247177124,0.5215713381767273,0.30076754093170166,-0.4798218607902527,0.9999715089797974,0.48230454325675964,0.29887205362319946,-0.49939966201782227,0.9999517202377319,0.612247884273529,0.37941774725914,-0.14642326533794403,0.9999557733535767,0.3496411442756653,0.37942221760749817,-0.1916591078042984,0.9997417330741882,0.6335604786872864,0.5288639664649963,-0.015466085635125637,0.9519868493080139,0.31214964389801025,0.5320308804512024,-0.2579945921897888,0.9102364182472229,0.6673949956893921,0.64914470911026,-0.21685253083705902,0.9625992774963379,0.17161241173744202,0.5718736052513123,-0.6984997987747192,0.9601858258247375,0.6845591068267822,0.6894981265068054,-0.2745138704776764,0.9449198246002197,0.10890132188796997,0.5781764984130859,-0.7807093262672424,0.9600825309753418,0.6732043027877808,0.6919192671775818,-0.3564107120037079,0.9517756700515747,0.09544560313224792,0.5660778880119324,-0.8836528062820435,0.9668278098106384,0.6603063941001892,0.680801272392273,-0.2522657513618469,0.955072283744812,0.11922630667686462,0.5641932487487793,-0.7528523206710815,0.9662873148918152,0.578613817691803,0.6541740894317627,0.005873548798263073,0.9974998831748962,0.42461806535720825,0.6573699116706848,-0.005502415355294943,0.9952770471572876,0.5637041330337524,0.8735517859458923,-0.15002213418483734,0.6291701793670654,0.43279510736465454,0.8683311343193054,-0.0820469930768013,0.3661375343799591,0.5498079061508179,1.0569570064544678,0.24843305349349976,0.271914005279541,0.4551631212234497,1.0579496622085571,0.25803616642951965,0.23120714724063873,0.5424088835716248,1.0774606466293335,0.27132007479667664,0.18772168457508087,0.46692609786987305,1.0786980390548706,0.27870285511016846,0.13839735090732574,0.5605305433273315,1.1290333271026611,0.025367220863699913,0.20477616786956787,0.44526734948158264,1.1331356763839722,-0.00702411774545908,0.1782623827457428
15846.595603831658,0.5084373354911804,0.27924221754074097,-0.5883260369300842,0.9999569654464722,0.5237199664115906,0.25994834303855896,-0.5547800660133362,0.9999321699142456,0.5339691042900085,0.2601505219936371,-0.5550662875175476,0.9999281167984009,0.5430676937103271,0.2604968249797821,-0.5553853511810303,0.9999284744262695,0.4916568398475647,0.2578010857105255,-0.5683209300041199,0.9998929500579834,0.4768831133842468,0.2564564049243927,-0.5682792663574219,0.9998792409896851,0.46513068675994873,0.25554731488227844,-0.568468451499939,0.9998681545257568,0.5518999695777893,0.26593783497810364,-0.2964322865009308,0.9999445676803589,0.43919891119003296,0.26284176111221313,-0.36528778076171875,0.9998757839202881,0.5210914015769958,0.3014008104801178,-0.4838690757751465,0.9999732971191406,0.481426864862442,0.2992299795150757,-0.5035670399665833,0.9999545812606812,0.6123095154762268,0.3796333074569702,-0.14726482331752777,0.9999572038650513,0.34971728920936584,0.3794933557510376,-0.19319729506969452,0.9997521042823792,0.6338900923728943,0.5293263792991638,-0.01643369533121586,0.9532438516616821,0.3123798370361328,0.5319252014160156,-0.2615213990211487,0.9105700850486755,0.667850136756897,0.649263858795166,-0.22162343561649323,0.963059663772583,0.1735306680202484,0.5721357464790344,-0.7086669206619263,0.9606815576553345,0.684705376625061,0.6895120739936829,-0.279936820268631,0.9454582929611206,0.11092498898506165,0.5783076286315918,-0.7924745082855225,0.9606269001960754,0.6736915707588196,0.6918587684631348,-0.36270952224731445,0.9523241519927979,0.09741079807281494,0.5660444498062134,-0.8958418369293213,0.967282772064209,0.6609704494476318,0.6807577013969421,-0.25756171345710754,0.9554142951965332,0.12131187319755554,0.564315676689148,-0.7633227109909058,0.9666146039962769,0.5786198973655701,0.6534308195114136,0.004726356361061335,0.9974702596664429,0.42488908767700195,0.6569541692733765,-0.0043413471430540085,0.9951974749565125,0.5638822317123413,0.8741162419319153,-0.1510762870311737,0.6363762021064758,0.4327239990234375,0.8673142194747925,-0.08160938322544098,0.3724021315574646,0.5504414439201355,1.058807611465454,0.23994921147823334,0.2759811282157898,0.45525991916656494,1.0591634511947632,0.2530803382396698,0.23409591615200043,0.5431927442550659,1.0794072151184082,0.261705607175827,0.18464894592761993,0.467141330242157,1.0801680088043213,0.272881418466568,0.1408132016658783,0.5598540306091309,1.1312474012374878,0.011292429640889168,0.20688623189926147,0.44484657049179077,1.134183406829834,-0.015248478390276432,0.18010391294956207
15863.262270498324,0.5092406272888184,0.28067633509635925,-0.610020101070404,0.9999544620513916,0.525164783000946,0.26115038990974426,-0.5762964487075806,0.9999239444732666,0.5353745222091675,0.2614452540874481,-0.5765798091888428,0.9999197721481323,0.5441411733627319,0.26186245679855347,-0.5769084692001343,0.9999195337295532,0.4931228756904602,0.2589873671531677,-0.5901742577552795,0.9998778104782104,0.47830459475517273,0.25763705372810364,-0.5901139378547668,0.999862790107727,0.4661221504211426,0.2565513551235199,-0.5903123617172241,0.9998526573181152,0.5518718361854553,0.2668321132659912,-0.31367528438568115,0.9999357461929321,0.4391249716281891,0.2632729709148407,-0.3838046193122864,0.999861478805542,0.5207434296607971,0.30284982919692993,-0.5037254095077515,0.9999715089797974,0.48168128728866577,0.30049243569374084,-0.523727297782898,0.9999539852142334,0.6117391586303711,0.3810919523239136,-0.15347930788993835,0.9999550580978394,0.3500567674636841,0.37933215498924255,-0.20554834604263306,0.9997795224189758,0.6335461139678955,0.5319733023643494,-0.010689378716051579,0.953609824180603,0.31057509779930115,0.5326733589172363,-0.23832270503044128,0.9189245700836182,0.6687901020050049,0.6525052189826965,-0.2255851924419403,0.9602642059326172,0.16461563110351562,0.5734625458717346,-0.6539255976676941,0.9639919996261597,0.684553861618042,0.6940728425979614,-0.2874978482723236,0.9411332011222839,0.10420703887939453,0.5769563317298889,-0.735119640827179,0.9627707600593567,0.6728308796882629,0.6963557004928589,-0.37269964814186096,0.948551595211029,0.09079977869987488,0.5660027265548706,-0.8463156223297119,0.9691277742385864,0.6610298156738281,0.6859279274940491,-0.2633756101131439,0.9523284435272217,0.11371642351150513,0.5647231340408325,-0.7108231782913208,0.9686245322227478,0.5769543647766113,0.6572147607803345,0.010758805088698864,0.9973461627960205,0.4234936535358429,0.660822868347168,-0.010331310331821442,0.9949644804000854,0.5661020874977112,0.8793652653694153,-0.1486997902393341,0.6634219288825989,0.43356916308403015,0.8744864463806152,-0.0870647057890892,0.4147101640701294,0.5498238801956177,1.0619186162948608,0.2643760144710541,0.2959012985229492,0.45615991950035095,1.0613281726837158,0.2729938328266144,0.2512921392917633,0.5420088768005371,1.0822105407714844,0.2876332402229309,0.19388870894908905,0.4669027626514435,1.0818451642990112,0.29492104053497314,0.14770054817199707,0.5588635206222534,1.1344801187515259,0.02976837381720543,0.21315081417560577,0.4490443468093872,1.1365337371826172,-0.0014652430545538664,0.18871855735778809
15879.92893716499,0.5114684104919434,0.2765728831291199,-0.7331958413124084,0.9999655485153198,0.5264372825622559,0.2579135298728943,-0.6968370676040649,0.9999374151229858,0.5360256433486938,0.2584070861339569,-0.6971054077148438,0.9999374151229858,0.5448575019836426,0.25909340381622314,-0.6973906755447388,0.9999334812164307,0.49519771337509155,0.2558256983757019,-0.7128801345825195,0.9998942613601685,0.4813392162322998,0.25487858057022095,-0.7128813862800598,0.9998847246170044,0.46891844272613525,0.25407135486602783,-0.7130624651908875,0.9998641014099121,0.5502328276634216,0.26474010944366455,-0.4148521423339844,0.9999517202377319,0.4392459988594055,0.26122140884399414,-0.49574387073516846,0.9998741149902344,0.5226315855979919,0.2978244125843048,-0.619861364364624,0.9999790191650391,0.48487740755081177,0.29532259702682495,-0.6429755091667175,0.9999631643295288,0.6117477416992188,0.38041451573371887,-0.23176945745944977,0.9999673366546631,0.3488638997077942,0.3791233003139496,-0.2864455282688141,0.9997968077659607,0.6326562166213989,0.53165602684021,-0.07230039685964584,0.9724627733230591,0.3129410743713379,0.530232310295105,-0.28952914476394653,0.9346084594726562,0.6713445782661438,0.6534562110900879,-0.31471630930900574,0.9739776849746704,0.17221635580062866,0.5707634091377258,-0.7082456946372986,0.968885064125061,0.6883081793785095,0.6956714987754822,-0.3821682333946228,0.9577385783195496,0.11402064561843872,0.5752525925636292,-0.7926976680755615,0.9663206338882446,0.6772392988204956,0.697708249092102,-0.4756471812725067,0.9632604718208313,0.10184508562088013,0.565290093421936,-0.9113057255744934,0.9721216559410095,0.6655488610267639,0.6888865828514099,-0.3563607931137085,0.9657657146453857,0.12317162752151489,0.5636051893234253,-0.7679411172866821,0.9715045094490051,0.5777844786643982,0.6511417031288147,0.008058520033955574,0.9977837204933167,0.42518678307533264,0.6553806662559509,-0.0075900559313595295,0.9954416751861572,0.5678655505180359,0.8683323860168457,-0.133811816573143,0.708297848701477,0.43288180232048035,0.8670393228530884,-0.06845796853303909,0.47811365127563477,0.5490962266921997,1.051638126373291,0.3004664480686188,0.3549381196498871,0.4568842053413391,1.050318717956543,0.31584402918815613,0.31037935614585876,0.5397992134094238,1.072139024734497,0.324403315782547,0.24565580487251282,0.46912091970443726,1.0712381601333618,0.33841457962989807,0.1949826180934906,0.5602684617042542,1.123880386352539,0.05228372663259506,0.2747449576854706,0.44551780819892883,1.1242905855178833,0.028462693095207214,0.2452535778284073
15896.595603831656,0.5140848159790039,0.2778901755809784,-0.61043381690979,0.9999657869338989,0.5288781523704529,0.2592082917690277,-0.575533390045166,0.9999414682388306,0.5380162000656128,0.2596571147441864,-0.5757956504821777,0.9999394416809082,0.5464942455291748,0.26026585698127747,-0.5760629177093506,0.9999382495880127,0.4978964924812317,0.2570112943649292,-0.591640055179596,0.999907374382019,0.4840589165687561,0.25587913393974304,-0.5916334986686707,0.9998981952667236,0.4709330201148987,0.25467661023139954,-0.5918006300926208,0.9998838901519775,0.5504570007324219,0.26572385430336,-0.3142901062965393,0.9999496936798096,0.43984293937683105,0.26114511489868164,-0.39609986543655396,0.99988853931427,0.5244893431663513,0.2997727692127228,-0.5054746270179749,0.9999758005142212,0.4874953329563141,0.2966765761375427,-0.5288544297218323,0.9999589920043945,0.6101199984550476,0.3809800148010254,-0.1621774137020111,0.9999620914459229,0.3487430214881897,0.3793833553791046,-0.22086699306964874,0.9997794032096863,0.6322197318077087,0.5312934517860413,-0.030475100502371788,0.960004448890686,0.3119615614414215,0.5291833877563477,-0.2766643762588501,0.9262006878852844,0.6716702580451965,0.6517089605331421,-0.2431563436985016,0.9694725871086121,0.17155614495277405,0.5708338618278503,-0.7070123553276062,0.9650619626045227,0.6888442039489746,0.693123996257782,-0.30098864436149597,0.9527733325958252,0.1098824217915535,0.5750283002853394,-0.7886440753936768,0.9634647369384766,0.6788709163665771,0.6953687071800232,-0.38620516657829285,0.9588421583175659,0.09547936916351318,0.5641779899597168,-0.8928389549255371,0.9696828722953796,0.6672707200050354,0.6865983009338379,-0.2804871201515198,0.9614936113357544,0.11871998757123947,0.5636501312255859,-0.7614614963531494,0.9692577719688416,0.5785362124443054,0.6497721076011658,0.006113956216722727,0.9976366758346558,0.42851898074150085,0.6538723111152649,-0.0057483757846057415,0.9956859350204468,0.5664992332458496,0.8694424629211426,-0.1323661059141159,0.6576323509216309,0.4345669746398926,0.8652467727661133,-0.08172675222158432,0.40401196479797363,0.5507245063781738,1.0553853511810303,0.22197924554347992,0.3266725540161133,0.45808130502700806,1.056233286857605,0.22825415432453156,0.2736571431159973,0.5433818697929382,1.0766047239303589,0.2391420304775238,0.20670291781425476,0.46959957480430603,1.0773119926452637,0.24419133365154266,0.15966327488422394,0.5611050724983215,1.127105951309204,-0.01696936972439289,0.25355634093284607,0.4468998908996582,1.1311383247375488,-0.048655129969120026,0.21869216859340668
15913.262270498322,0.5162865519523621,0.2778764069080353,-0.5958430171012878,0.9999685287475586,0.5296591520309448,0.2586967349052429,-0.5604723691940308,0.9999504089355469,0.5386688709259033,0.25903767347335815,-0.5607677698135376,0.9999477863311768,0.5466955304145813,0.259244441986084,-0.5610809326171875,0.9999474287033081,0.49895066022872925,0.25654563307762146,-0.5774181485176086,0.9999204874038696,0.4844553768634796,0.25526925921440125,-0.5773894190788269,0.9999092817306519,0.4712037444114685,0.25416967272758484,-0.577565610408783,0.9998983144760132,0.5508450269699097,0.2644076943397522,-0.2998594343662262,0.9999614953994751,0.44008880853652954,0.2615633010864258,-0.3848002851009369,0.9999061822891235,0.5268412828445435,0.29904866218566895,-0.49123865365982056,0.9999803304672241,0.48998042941093445,0.2973150610923767,-0.5155467987060547,0.9999654293060303,0.6132506132125854,0.37979963421821594,-0.1568155288696289,0.9999645948410034,0.3480565547943115,0.37954679131507874,-0.21313954889774323,0.9997583031654358,0.6311068534851074,0.5318580865859985,-0.02381945215165615,0.9547946453094482,0.3113698363304138,0.5321028828620911,-0.28493258357048035,0.9133461713790894,0.6684572696685791,0.6504243612289429,-0.2283075600862503,0.9655222296714783,0.1729353666305542,0.573282778263092,-0.7269449830055237,0.9634366035461426,0.6870226263999939,0.6913930177688599,-0.2858818769454956,0.9491704702377319,0.11090446263551712,0.5771871209144592,-0.8102684020996094,0.9632447957992554,0.6764962673187256,0.693871796131134,-0.36935675144195557,0.9555148482322693,0.09639438986778259,0.5653988122940063,-0.914272665977478,0.9694622755050659,0.6636285185813904,0.6832116842269897,-0.26467084884643555,0.9587705135345459,0.12009135633707047,0.5644758939743042,-0.7818915247917175,0.9687409400939941,0.5769934058189392,0.6543401479721069,0.003903954988345504,0.9980395436286926,0.4234147369861603,0.6586248278617859,-0.003517873352393508,0.9960775971412659,0.5655004978179932,0.8750277161598206,-0.15082068741321564,0.665786862373352,0.43142828345298767,0.8715997338294983,-0.0711754783987999,0.3973056375980377,0.5470279455184937,1.054508924484253,0.25709742307662964,0.31331121921539307,0.45610320568084717,1.0558178424835205,0.28177496790885925,0.2722112536430359,0.5398668646812439,1.0750243663787842,0.28040510416030884,0.21561259031295776,0.46901735663414,1.0767513513565063,0.30335691571235657,0.1694393754005432,0.558413565158844,1.1266988515853882,0.035722941160202026,0.24154554307460785,0.4410417675971985,1.1306464672088623,0.02059604413807392,0.2162625938653946
15929.928937164988,0.51340252161026,0.2754952013492584,-0.7367191910743713,0.9999641180038452,0.5280080437660217,0.2564527690410614,-0.6973476409912109,0.9999381303787231,0.5373819470405579,0.2569741904735565,-0.6976473927497864,0.9999387264251709,0.5460936427116394,0.2576002776622772,-0.6979384422302246,0.9999352693557739,0.49710848927497864,0.25422021746635437,-0.7130825519561768,0.9998906850814819,0.48302680253982544,0.253143846988678,-0.7130683660507202,0.9998787641525269,0.4703437387943268,0.2522217035293579,-0.7132421135902405,0.9998550415039062,0.5512033700942993,0.26365795731544495,-0.411760538816452,0.999954342842102,0.4401382803916931,0.26035037636756897,-0.4914689064025879,0.9998606443405151,0.5238444805145264,0.29730454087257385,-0.6235052943229675,0.9999784231185913,0.4869491457939148,0.29446089267730713,-0.646305501461029,0.9999598264694214,0.6127426624298096,0.38151928782463074,-0.2423219233751297,0.9999650716781616,0.3494313955307007,0.38062939047813416,-0.2742743194103241,0.9997097849845886,0.6320061683654785,0.5322204828262329,-0.094233937561512,0.9706398248672485,0.31285756826400757,0.5318939685821533,-0.28258010745048523,0.9217023849487305,0.6716545224189758,0.6528722047805786,-0.34486618638038635,0.9728665351867676,0.16801977157592773,0.5703006982803345,-0.7137426733970642,0.9632138013839722,0.6885308027267456,0.6942216157913208,-0.41418761014938354,0.9566659927368164,0.10740929841995239,0.5738295912742615,-0.7990847826004028,0.9607976675033569,0.6788684129714966,0.6965431571006775,-0.5072706937789917,0.962286114692688,0.09358637779951096,0.5635280013084412,-0.917001485824585,0.9675878286361694,0.6671165823936462,0.687269389629364,-0.3866184949874878,0.964893102645874,0.11708304286003113,0.562623143196106,-0.773844838142395,0.9671552181243896,0.5777517557144165,0.653295636177063,-0.0022881068289279938,0.9976746439933777,0.4239150881767273,0.6562904715538025,0.0027763547841459513,0.9947123527526855,0.5661083459854126,0.8705581426620483,-0.14445500075817108,0.6959196329116821,0.42982983589172363,0.8690862655639648,-0.056940026581287384,0.46254172921180725,0.5421143770217896,1.037651777267456,0.3061756193637848,0.3475003242492676,0.4550556242465973,1.051483154296875,0.3337453305721283,0.30452975630760193,0.5375444889068604,1.0736355781555176,0.33137157559394836,0.2359314262866974,0.4683016836643219,1.0727858543395996,0.35693010687828064,0.20345908403396606,0.5530942678451538,1.1248283386230469,0.05811404064297676,0.27114588022232056,0.4400290548801422,1.1245441436767578,0.04829666391015053,0.24346598982810974
15946.595603831654,0.5184239149093628,0.27672573924064636,-0.6411671042442322,0.9999706745147705,0.5321118235588074,0.257536381483078,-0.6038476228713989,0.9999520778656006,0.540782630443573,0.2579997181892395,-0.6041247844696045,0.9999514818191528,0.5492295622825623,0.25854918360710144,-0.6044091582298279,0.9999499320983887,0.5014883279800415,0.25527334213256836,-0.6217143535614014,0.9999194145202637,0.4879032075405121,0.25420081615448,-0.6216856241226196,0.9999104738235474,0.47391000390052795,0.2532249391078949,-0.6218465566635132,0.9998937845230103,0.5513571500778198,0.26400327682495117,-0.3345028758049011,0.9999642372131348,0.442141056060791,0.2609761357307434,-0.4243812561035156,0.9999030828475952,0.5281350016593933,0.2981775403022766,-0.5336949825286865,0.9999817609786987,0.49322327971458435,0.2956675589084625,-0.5594380497932434,0.9999667406082153,0.6118477582931519,0.38112813234329224,-0.18373630940914154,0.9999693632125854,0.3486408293247223,0.38122275471687317,-0.23848497867584229,0.9997333884239197,0.632749080657959,0.5319998264312744,-0.04307699576020241,0.9662903547286987,0.3122512400150299,0.5314618349075317,-0.29746049642562866,0.9214285612106323,0.6721656322479248,0.6552867293357849,-0.2589786946773529,0.9745482206344604,0.17125973105430603,0.5701879262924194,-0.7397722601890564,0.9645874500274658,0.6891534328460693,0.696662187576294,-0.3194859027862549,0.9605068564414978,0.1088254526257515,0.5737124085426331,-0.8236920833587646,0.9635472893714905,0.6790010929107666,0.6984191536903381,-0.40693119168281555,0.9655885100364685,0.09375029802322388,0.563082754611969,-0.9325805902481079,0.9697469472885132,0.6674824953079224,0.689544677734375,-0.2972942888736725,0.9677821397781372,0.11808669567108154,0.5623644590377808,-0.7966309189796448,0.969399094581604,0.5793707370758057,0.6509253978729248,0.0020111408084630966,0.9980559349060059,0.42751696705818176,0.6553246378898621,-0.0015506254276260734,0.9957237243652344,0.5668408870697021,0.871168315410614,-0.1463257521390915,0.7130914330482483,0.43131887912750244,0.8655920028686523,-0.06107521429657936,0.43541961908340454,0.5468007922172546,1.0534433126449585,0.2659923732280731,0.34370920062065125,0.4546242952346802,1.049897313117981,0.2986944317817688,0.2860798239707947,0.5392526984214783,1.074017882347107,0.2884202003479004,0.22601903975009918,0.46720296144485474,1.071037769317627,0.32007014751434326,0.18423864245414734,0.5540138483047485,1.1267070770263672,0.032087862491607666,0.2567959129810333,0.4380040764808655,1.1238720417022705,0.0300228800624609,0.22477677464485168
