0,1,2,3,4
18087.78015685849,1.1740398406982422,1.1894216537475586,1.5686241388320923,1.3825849294662476
18087.782156920817,1.1750112771987915,1.1895835399627686,1.5684622526168823,1.383232593536377
18087.78415698314,1.1761447191238403,1.189745545387268,1.5686241388320923,1.383070707321167
18087.786157045466,1.175173282623291,1.190231204032898,1.5684622526168823,1.382746934890747
18087.788157107792,1.1758209466934204,1.190069317817688,1.5687860250473022,1.382908821105957
18087.79015717012,1.1759828329086304,1.1895835399627686,1.5681383609771729,1.383232593536377
18087.792157232445,1.1758209466934204,1.1890978813171387,1.5676525831222534,1.3814516067504883
18087.79415729477,1.1742017269134521,1.1886121034622192,1.5676525831222534,1.3812896013259888
18087.796157357097,1.1738779544830322,1.1890978813171387,1.5673288106918335,1.3812896013259888
18087.798157419424,1.175173282623291,1.189745545387268,1.567814588546753,1.3812896013259888
18087.80015748175,1.1745256185531616,1.189907431602478,1.5686241388320923,1.3812896013259888
18087.802157544076,1.1743637323379517,1.1894216537475586,1.5687860250473022,1.3816134929656982
18087.804157606402,1.175658941268921,1.1889358758926392,1.5683002471923828,1.3824230432510376
18087.80615766873,1.175335168838501,1.1881263256072998,1.5684622526168823,1.382746934890747
18087.808157731055,1.175335168838501,1.1890978813171387,1.5691099166870117,1.3820992708206177
18087.81015779338,1.1766304969787598,1.1894216537475586,1.567976474761963,1.383070707321167
18087.812157855707,1.1758209466934204,1.1882882118225098,1.567976474761963,1.3825849294662476
18087.814157918034,1.1740398406982422,1.1890978813171387,1.5683002471923828,1.382746934890747
18087.81615798036,1.1743637323379517,1.190231204032898,1.570243239402771,1.3817753791809082
18087.818158042686,1.175335168838501,1.189745545387268,1.570405125617981,1.3824230432510376
18087.820158105013,1.1746875047683716,1.1881263256072998,1.569919466972351,1.3820992708206177
18087.82215816734,1.1738779544830322,1.1884502172470093,1.569919466972351,1.3822611570358276
18087.82415822966,1.1746875047683716,1.189907431602478,1.570081353187561,1.382746934890747
18087.826158291988,1.1748493909835815,1.1887739896774292,1.5707290172576904,1.3835564851760864
18087.828158354314,1.1748493909835815,1.1887739896774292,1.5708909034729004,1.383232593536377
18087.83015841664,1.1761447191238403,1.190069317817688,1.570243239402771,1.3835564851760864
18087.832158478966,1.175335168838501,1.1905550956726074,1.5707290172576904,1.382908821105957
18087.834158541293,1.1733921766281128,1.190393090248108,1.5705671310424805,1.383232593536377
18087.83615860362,1.1745256185531616,1.190231204032898,1.5710527896881104,1.3824230432510376
18087.838158665945,1.175658941268921,1.190393090248108,1.570243239402771,1.382746934890747
18087.84015872827,1.1740398406982422,1.1905550956726074,1.5705671310424805,1.3824230432510376
18087.842158790598,1.1733921766281128,1.190069317817688,1.570405125617981,1.382746934890747
18087.844158852924,1.1746875047683716,1.190231204032898,1.5707290172576904,1.382746934890747
18087.84615891525,1.175658941268921,1.1905550956726074,1.570405125617981,1.383232593536377
18087.848158977577,1.1758209466934204,1.190069317817688,1.570243239402771,1.383070707321167
18087.850159039903,1.1758209466934204,1.1895835399627686,1.5707290172576904,1.382908821105957
18087.85215910223,1.175173282623291,1.189907431602478,1.5710527896881104,1.3820992708206177
18087.854159164555,1.1748493909835815,1.189745545387268,1.5707290172576904,1.3819372653961182
18087.85615922688,1.1743637323379517,1.1905550956726074,1.570405125617981,1.3824230432510376
18087.858159289208,1.1742017269134521,1.190393090248108,1.570405125617981,1.383070707321167
18087.860159351534,1.1727445125579834,1.190393090248108,1.5705671310424805,1.3824230432510376
18087.86215941386,1.1733921766281128,1.190393090248108,1.570243239402771,1.3819372653961182
18087.864159476183,1.1750112771987915,1.1905550956726074,1.5713766813278198,1.3820992708206177
18087.86615953851,1.175335168838501,1.189907431602478,1.5713766813278198,1.3817753791809082
18087.868159600835,1.1743637323379517,1.189907431602478,1.5708909034729004,1.3816134929656982
18087.87015966316,1.175497055053711,1.190231204032898,1.5712147951126099,1.382746934890747
18087.872159725488,1.1745256185531616,1.190393090248108,1.5715385675430298,1.3822611570358276
18087.874159787814,1.1732302904129028,1.190069317817688,1.5710527896881104,1.3819372653961182
18087.87615985014,1.1737160682678223,1.1905550956726074,1.5707290172576904,1.3824230432510376
18087.878159912467,1.1745256185531616,1.1910407543182373,1.570405125617981,1.3817753791809082
18087.880159974793,1.1748493909835815,1.1905550956726074,1.5705671310424805,1.3812896013259888
18087.88216003712,1.1750112771987915,1.189907431602478,1.5708909034729004,1.3814516067504883
18087.884160099446,1.175335168838501,1.189907431602478,1.5712147951126099,1.3816134929656982
18087.886160161772,1.1750112771987915,1.1907169818878174,1.5713766813278198,1.3824230432510376
18087.888160224098,1.175335168838501,1.1905550956726074,1.5718624591827393,1.3825849294662476
18087.890160286424,1.175497055053711,1.1908788681030273,1.5723481178283691,1.383070707321167
18087.89216034875,1.175335168838501,1.190393090248108,1.5721862316131592,1.3817753791809082
18087.894160411077,1.1750112771987915,1.1910407543182373,1.5705671310424805,1.3816134929656982
18087.896160473403,1.1750112771987915,1.1910407543182373,1.5710527896881104,1.3817753791809082
18087.89816053573,1.1748493909835815,1.1905550956726074,1.5705671310424805,1.3824230432510376
18087.900160598056,1.1738779544830322,1.190069317817688,1.5708909034729004,1.3814516067504883
18087.902160660382,1.1743637323379517,1.1907169818878174,1.5707290172576904,1.3816134929656982
18087.904160722705,1.1761447191238403,1.190393090248108,1.5717004537582397,1.3820992708206177
18087.90616078503,1.175658941268921,1.190069317817688,1.5721862316131592,1.3819372653961182
18087.908160847357,1.1746875047683716,1.1905550956726074,1.5720243453979492,1.3825849294662476
18087.910160909683,1.1748493909835815,1.1910407543182373,1.5712147951126099,1.3825849294662476
18087.91216097201,1.1750112771987915,1.1918504238128662,1.5715385675430298,1.3816134929656982
18087.914161034336,1.1740398406982422,1.1908788681030273,1.5710527896881104,1.3809658288955688
18087.916161096662,1.1735540628433228,1.190069317817688,1.5707290172576904,1.3808039426803589
18087.91816115899,1.1737160682678223,1.1894216537475586,1.570405125617981,1.3809658288955688
18087.920161221315,1.1727445125579834,1.1895835399627686,1.5707290172576904,1.3803181648254395
18087.92216128364,1.1732302904129028,1.189907431602478,1.5708909034729004,1.3806419372558594
18087.924161345967,1.1750112771987915,1.189907431602478,1.570243239402771,1.3812896013259888
18087.926161408293,1.175497055053711,1.1890978813171387,1.570405125617981,1.3817753791809082
18087.92816147062,1.175335168838501,1.1889358758926392,1.569919466972351,1.3817753791809082
18087.930161532946,1.1759828329086304,1.1884502172470093,1.570243239402771,1.3811277151107788
18087.932161595272,1.1748493909835815,1.1889358758926392,1.5707290172576904,1.3803181648254395
18087.9341616576,1.1730684041976929,1.1894216537475586,1.5710527896881104,1.37983238697052
18087.936161719925,1.1727445125579834,1.1895835399627686,1.5705671310424805,1.3801562786102295
18087.93816178225,1.1730684041976929,1.1894216537475586,1.569919466972351,1.3804800510406494
18087.940161844577,1.1724207401275635,1.1890978813171387,1.5710527896881104,1.3808039426803589
18087.942161906903,1.1732302904129028,1.1882882118225098,1.570243239402771,1.3809658288955688
18087.944161969226,1.1746875047683716,1.1894216537475586,1.570081353187561,1.3806419372558594
18087.946162031552,1.1742017269134521,1.1889358758926392,1.5697574615478516,1.3811277151107788
18087.94816209388,1.1737160682678223,1.1894216537475586,1.5705671310424805,1.3811277151107788
18087.950162156205,1.1743637323379517,1.1895835399627686,1.570081353187561,1.3816134929656982
18087.95216221853,1.1748493909835815,1.1892597675323486,1.5695955753326416,1.3812896013259888
18087.954162280857,1.1740398406982422,1.1894216537475586,1.5692718029022217,1.3812896013259888
18087.956162343184,1.1735540628433228,1.1887739896774292,1.5695955753326416,1.3814516067504883
18087.95816240551,1.1733921766281128,1.1881263256072998,1.5695955753326416,1.3811277151107788
18087.960162467836,1.1732302904129028,1.1886121034622192,1.5692718029022217,1.3812896013259888
18087.962162530162,1.1737160682678223,1.1895835399627686,1.5691099166870117,1.3816134929656982
18087.96416259249,1.1746875047683716,1.189745545387268,1.5689479112625122,1.3809658288955688
18087.966162654815,1.1748493909835815,1.1892597675323486,1.5697574615478516,1.3811277151107788
18087.96816271714,1.1743637323379517,1.189745545387268,1.5695955753326416,1.3808039426803589
18087.970162779468,1.1748493909835815,1.1894216537475586,1.5697574615478516,1.3819372653961182
18087.972162841794,1.1738779544830322,1.1895835399627686,1.569919466972351,1.3811277151107788
18087.97416290412,1.1729063987731934,1.1892597675323486,1.5705671310424805,1.3801562786102295
18087.976162966446,1.1733921766281128,1.189745545387268,1.5697574615478516,1.3814516067504883
18087.978163028773,1.1740398406982422,1.1895835399627686,1.570405125617981,1.3808039426803589
18087.9801630911,1.1742017269134521,1.1894216537475586,1.5705671310424805,1.3801562786102295
18087.98216315342,1.1737160682678223,1.1894216537475586,1.570243239402771,1.3819372653961182
18087.984163215748,1.1745256185531616,1.1895835399627686,1.5705671310424805,1.3819372653961182
18087.986163278074,1.1742017269134521,1.1894216537475586,1.570243239402771,1.3817753791809082
18087.9881633404,1.1745256185531616,1.1887739896774292,1.570081353187561,1.3822611570358276
18087.990163402726,1.1748493909835815,1.1887739896774292,1.5697574615478516,1.3822611570358276
18087.992163465053,1.1750112771987915,1.1882882118225098,1.570243239402771,1.3812896013259888
18087.99416352738,1.175173282623291,1.1895835399627686,1.569919466972351,1.3806419372558594
18087.996163589705,1.175497055053711,1.190231204032898,1.5689479112625122,1.3806419372558594
18087.99816365203,1.1759828329086304,1.190231204032898,1.567976474761963,1.3812896013259888
18088.000163714358,1.1743637323379517,1.1889358758926392,1.5691099166870117,1.3819372653961182
18088.002163776684,1.175335168838501,1.1892597675323486,1.5705671310424805,1.3819372653961182
18088.00416383901,1.1764686107635498,1.1895835399627686,1.5707290172576904,1.3822611570358276
18088.006163901337,1.1759828329086304,1.1894216537475586,1.5692718029022217,1.3819372653961182
18088.008163963663,1.1759828329086304,1.189907431602478,1.570081353187561,1.3814516067504883
18088.01016402599,1.1767923831939697,1.1910407543182373,1.5697574615478516,1.3816134929656982
18088.012164088315,1.1764686107635498,1.1907169818878174,1.570243239402771,1.3811277151107788
18088.01416415064,1.1745256185531616,1.190069317817688,1.5713766813278198,1.3808039426803589
18088.016164212968,1.1740398406982422,1.189745545387268,1.5705671310424805,1.3804800510406494
18088.018164275294,1.1745256185531616,1.1890978813171387,1.5708909034729004,1.3814516067504883
18088.02016433762,1.1745256185531616,1.1890978813171387,1.570081353187561,1.3809658288955688
18088.022164399943,1.175173282623291,1.1887739896774292,1.5707290172576904,1.3817753791809082
18088.02416446227,1.1761447191238403,1.1889358758926392,1.5705671310424805,1.3812896013259888
18088.026164524596,1.175335168838501,1.1894216537475586,1.5710527896881104,1.3814516067504883
18088.02816458692,1.175497055053711,1.1895835399627686,1.570405125617981,1.3812896013259888
18088.030164649248,1.175658941268921,1.1894216537475586,1.570243239402771,1.3822611570358276
18088.032164711574,1.175497055053711,1.189907431602478,1.5710527896881104,1.3819372653961182
18088.0341647739,1.1748493909835815,1.1895835399627686,1.5710527896881104,1.3820992708206177
18088.036164836227,1.175173282623291,1.1894216537475586,1.570081353187561,1.382746934890747
18088.038164898553,1.175658941268921,1.1895835399627686,1.5705671310424805,1.3822611570358276
18088.04016496088,1.175173282623291,1.1894216537475586,1.5715385675430298,1.3812896013259888
18088.042165023206,1.175173282623291,1.189745545387268,1.570405125617981,1.3822611570358276
18088.044165085532,1.1758209466934204,1.189907431602478,1.5710527896881104,1.3820992708206177
18088.046165147858,1.175658941268921,1.190069317817688,1.5712147951126099,1.3812896013259888
18088.048165210184,1.1764686107635498,1.190069317817688,1.5705671310424805,1.3814516067504883
18088.05016527251,1.1763066053390503,1.190231204032898,1.570081353187561,1.3819372653961182
18088.052165334837,1.175658941268921,1.1895835399627686,1.5707290172576904,1.3811277151107788
18088.054165397163,1.1748493909835815,1.1889358758926392,1.5715385675430298,1.3811277151107788
18088.05616545949,1.175497055053711,1.1889358758926392,1.5707290172576904,1.3816134929656982
18088.058165521816,1.1748493909835815,1.1892597675323486,1.569919466972351,1.3811277151107788
18088.060165584142,1.1743637323379517,1.189745545387268,1.5694336891174316,1.3808039426803589
18088.062165646465,1.1746875047683716,1.1894216537475586,1.569919466972351,1.3814516067504883
18088.06416570879,1.1761447191238403,1.1890978813171387,1.5707290172576904,1.3808039426803589
18088.066165771117,1.1761447191238403,1.1887739896774292,1.570243239402771,1.3801562786102295
18088.068165833443,1.175497055053711,1.1892597675323486,1.570081353187561,1.3814516067504883
18088.07016589577,1.1759828329086304,1.1890978813171387,1.5694336891174316,1.3816134929656982
18088.072165958096,1.1769542694091797,1.1892597675323486,1.5691099166870117,1.3809658288955688
18088.074166020422,1.175497055053711,1.1892597675323486,1.5695955753326416,1.3811277151107788
18088.07616608275,1.175173282623291,1.1894216537475586,1.5689479112625122,1.3819372653961182
18088.078166145075,1.175335168838501,1.189745545387268,1.5697574615478516,1.3812896013259888
18088.0801662074,1.1748493909835815,1.1890978813171387,1.570243239402771,1.3806419372558594
18088.082166269727,1.175173282623291,1.1892597675323486,1.5691099166870117,1.3804800510406494
18088.084166332053,1.1761447191238403,1.1890978813171387,1.5686241388320923,1.3808039426803589
18088.08616639438,1.175497055053711,1.1890978813171387,1.5689479112625122,1.3809658288955688
18088.088166456706,1.175173282623291,1.189745545387268,1.5694336891174316,1.3811277151107788
18088.090166519032,1.1759828329086304,1.190069317817688,1.5694336891174316,1.3812896013259888
18088.09216658136,1.175335168838501,1.189907431602478,1.5687860250473022,1.3804800510406494
18088.094166643685,1.1745256185531616,1.1890978813171387,1.5691099166870117,1.3808039426803589
18088.09616670601,1.1740398406982422,1.1886121034622192,1.5695955753326416,1.3812896013259888
18088.098166768337,1.1738779544830322,1.1894216537475586,1.5695955753326416,1.3816134929656982
18088.100166830664,1.1748493909835815,1.1892597675323486,1.5691099166870117,1.3809658288955688
18088.102166892986,1.1748493909835815,1.1889358758926392,1.5684622526168823,1.3812896013259888
18088.104166955312,1.1761447191238403,1.1886121034622192,1.5683002471923828,1.3817753791809082
18088.10616701764,1.1767923831939697,1.1892597675323486,1.570081353187561,1.3812896013259888
18088.108167079965,1.1769542694091797,1.189745545387268,1.5705671310424805,1.3816134929656982
18088.11016714229,1.1774400472640991,1.1889358758926392,1.5705671310424805,1.382746934890747
18088.112167204617,1.1771161556243896,1.1879644393920898,1.5708909034729004,1.382746934890747
18088.114167266944,1.175335168838501,1.1886121034622192,1.5710527896881104,1.3816134929656982
18088.11616732927,1.175658941268921,1.1890978813171387,1.5713766813278198,1.3811277151107788
18088.118167391596,1.1766304969787598,1.190231204032898,1.5718624591827393,1.3824230432510376
18088.120167453922,1.1758209466934204,1.190231204032898,1.5713766813278198,1.3816134929656982
18088.12216751625,1.1767923831939697,1.1889358758926392,1.5710527896881104,1.3825849294662476
18088.124167578575,1.1780877113342285,1.1890978813171387,1.5721862316131592,1.3822611570358276
18088.1261676409,1.177763819694519,1.189745545387268,1.5731576681137085,1.3824230432510376
18088.128167703228,1.177763819694519,1.1895835399627686,1.5718624591827393,1.383232593536377
18088.130167765554,1.1790591478347778,1.190231204032898,1.5713766813278198,1.383394479751587
18088.13216782788,1.1790591478347778,1.189907431602478,1.5715385675430298,1.3822611570358276
18088.134167890206,1.1792210340499878,1.189907431602478,1.572510004043579,1.3822611570358276
18088.136167952533,1.1784114837646484,1.190069317817688,1.573319673538208,1.3824230432510376
18088.13816801486,1.1790591478347778,1.190231204032898,1.5731576681137085,1.382746934890747
18088.14016807718,1.1780877113342285,1.1905550956726074,1.5731576681137085,1.383070707321167
18088.142168139508,1.1782495975494385,1.190393090248108,1.5723481178283691,1.3835564851760864
18088.144168201834,1.1790591478347778,1.1905550956726074,1.5726720094680786,1.3840421438217163
18088.14616826416,1.1782495975494385,1.1905550956726074,1.572510004043579,1.383232593536377
18088.148168326486,1.1784114837646484,1.189907431602478,1.5731576681137085,1.382746934890747
18088.150168388813,1.1784114837646484,1.1895835399627686,1.5729957818984985,1.382746934890747
18088.15216845114,1.1772781610488892,1.1894216537475586,1.5728338956832886,1.382746934890747
18088.154168513465,1.1769542694091797,1.189745545387268,1.572510004043579,1.3822611570358276
18088.15616857579,1.1769542694091797,1.190069317817688,1.5726720094680786,1.3819372653961182
18088.158168638118,1.1772781610488892,1.190069317817688,1.5713766813278198,1.3822611570358276
18088.160168700444,1.1769542694091797,1.189745545387268,1.5718624591827393,1.3824230432510376
18088.16216876277,1.1759828329086304,1.1894216537475586,1.5726720094680786,1.3820992708206177
18088.164168825097,1.177601933479309,1.190069317817688,1.572510004043579,1.3822611570358276
18088.166168887423,1.1772781610488892,1.190393090248108,1.5731576681137085,1.3812896013259888
18088.16816894975,1.1772781610488892,1.190393090248108,1.5721862316131592,1.3814516067504883
18088.170169012075,1.1780877113342285,1.189907431602478,1.5717004537582397,1.3819372653961182
18088.1721690744,1.1767923831939697,1.189745545387268,1.572510004043579,1.3816134929656982
18088.174169136728,1.175173282623291,1.190231204032898,1.5723481178283691,1.3808039426803589
18088.176169199054,1.1761447191238403,1.190069317817688,1.5721862316131592,1.3820992708206177
18088.17816926138,1.1763066053390503,1.1895835399627686,1.5715385675430298,1.382746934890747
18088.180169323703,1.175173282623291,1.1890978813171387,1.5723481178283691,1.3814516067504883
18088.18216938603,1.1769542694091797,1.1889358758926392,1.5720243453979492,1.3824230432510376
18088.184169448356,1.1769542694091797,1.189745545387268,1.5721862316131592,1.3819372653961182
18088.18616951068,1.1767923831939697,1.1895835399627686,1.5720243453979492,1.3812896013259888
18088.188169573008,1.1763066053390503,1.190393090248108,1.5718624591827393,1.3814516067504883
18088.190169635334,1.1769542694091797,1.189907431602478,1.5717004537582397,1.3819372653961182
18088.19216969766,1.1761447191238403,1.189907431602478,1.5713766813278198,1.3808039426803589
18088.194169759987,1.175335168838501,1.189745545387268,1.5712147951126099,1.3811277151107788
18088.196169822313,1.175335168838501,1.190069317817688,1.5712147951126099,1.3817753791809082
18088.19816988464,1.175173282623291,1.190393090248108,1.5715385675430298,1.3811277151107788
18088.200169946966,1.175497055053711,1.189745545387268,1.5713766813278198,1.3804800510406494
18088.202170009292,1.1763066053390503,1.189745545387268,1.5712147951126099,1.3809658288955688
18088.204170071618,1.1771161556243896,1.190393090248108,1.5712147951126099,1.3812896013259888
18088.206170133944,1.1761447191238403,1.190393090248108,1.5708909034729004,1.3811277151107788
18088.20817019627,1.1758209466934204,1.1905550956726074,1.5707290172576904,1.3817753791809082
18088.210170258597,1.1763066053390503,1.1907169818878174,1.5713766813278198,1.3824230432510376
18088.212170320923,1.1767923831939697,1.190231204032898,1.5720243453979492,1.3820992708206177
18088.21417038325,1.1759828329086304,1.1910407543182373,1.572510004043579,1.3825849294662476
18088.216170445576,1.1764686107635498,1.190231204032898,1.5726720094680786,1.3817753791809082
18088.218170507902,1.1764686107635498,1.190069317817688,1.5723481178283691,1.3820992708206177
18088.220170570225,1.1759828329086304,1.190069317817688,1.5718624591827393,1.3811277151107788
18088.22217063255,1.1759828329086304,1.189907431602478,1.5707290172576904,1.3816134929656982
18088.224170694877,1.177763819694519,1.1895835399627686,1.5718624591827393,1.3824230432510376
18088.226170757203,1.1779258251190186,1.190393090248108,1.5717004537582397,1.3817753791809082
18088.22817081953,1.1784114837646484,1.190069317817688,1.5720243453979492,1.3811277151107788
18088.230170881856,1.178735375404358,1.189745545387268,1.5720243453979492,1.3817753791809082
18088.232170944182,1.178573489189148,1.1894216537475586,1.572510004043579,1.3804800510406494
18088.23417100651,1.1767923831939697,1.190231204032898,1.5715385675430298,1.3801562786102295
18088.236171068835,1.1764686107635498,1.189907431602478,1.5721862316131592,1.3799943923950195
18088.23817113116,1.1764686107635498,1.1895835399627686,1.5720243453979492,1.3811277151107788
18088.240171193487,1.1748493909835815,1.189745545387268,1.5713766813278198,1.3809658288955688
18088.242171255813,1.175497055053711,1.189745545387268,1.5705671310424805,1.3811277151107788
18088.24417131814,1.1767923831939697,1.1887739896774292,1.5705671310424805,1.3811277151107788
18088.246171380466,1.1766304969787598,1.1894216537475586,1.5713766813278198,1.3814516067504883
18088.248171442792,1.1769542694091797,1.190069317817688,1.5718624591827393,1.3816134929656982
18088.25017150512,1.1769542694091797,1.1895835399627686,1.5717004537582397,1.3814516067504883
18088.252171567445,1.1766304969787598,1.1892597675323486,1.5718624591827393,1.3812896013259888
18088.25417162977,1.1764686107635498,1.1890978813171387,1.5713766813278198,1.3808039426803589
18088.256171692097,1.1764686107635498,1.1894216537475586,1.5712147951126099,1.3816134929656982
18088.258171754424,1.1764686107635498,1.189907431602478,1.5712147951126099,1.3808039426803589
18088.260171816746,1.175497055053711,1.190069317817688,1.5718624591827393,1.37983238697052
18088.262171879072,1.175173282623291,1.1894216537475586,1.5712147951126099,1.3799943923950195
18088.2641719414,1.1764686107635498,1.1887739896774292,1.5708909034729004,1.3804800510406494
18088.266172003725,1.1763066053390503,1.189745545387268,1.5712147951126099,1.3806419372558594
18088.26817206605,1.1761447191238403,1.190231204032898,1.5710527896881104,1.3804800510406494
18088.270172128377,1.1766304969787598,1.1894216537475586,1.5710527896881104,1.3812896013259888
18088.272172190704,1.1771161556243896,1.189907431602478,1.5715385675430298,1.3806419372558594
18088.27417225303,1.1763066053390503,1.190069317817688,1.5718624591827393,1.3806419372558594
18088.276172315356,1.1766304969787598,1.189745545387268,1.5720243453979492,1.3803181648254395
18088.278172377682,1.175658941268921,1.1907169818878174,1.5718624591827393,1.3804800510406494
18088.28017244001,1.1746875047683716,1.190393090248108,1.5713766813278198,1.3804800510406494
18088.282172502335,1.1743637323379517,1.189907431602478,1.570243239402771,1.3812896013259888
18088.28417256466,1.1750112771987915,1.1895835399627686,1.5697574615478516,1.3811277151107788
18088.286172626988,1.175173282623291,1.1889358758926392,1.5694336891174316,1.3801562786102295
18088.288172689314,1.1745256185531616,1.1886121034622192,1.5697574615478516,1.37967050075531
18088.29017275164,1.1750112771987915,1.1905550956726074,1.5707290172576904,1.3799943923950195
18088.292172813966,1.1745256185531616,1.189907431602478,1.5708909034729004,1.37983238697052
18088.294172876293,1.1722588539123535,1.1894216537475586,1.570081353187561,1.3801562786102295
18088.29617293862,1.1724207401275635,1.1886121034622192,1.5687860250473022,1.37967050075531
18088.29817300094,1.1727445125579834,1.1886121034622192,1.5684622526168823,1.3793467283248901
18088.300173063268,1.1722588539123535,1.1892597675323486,1.5697574615478516,1.3791847229003906
18088.302173125594,1.1727445125579834,1.1890978813171387,1.5686241388320923,1.37967050075531
18088.30417318792,1.1733921766281128,1.1887739896774292,1.567976474761963,1.37983238697052
18088.306173250247,1.1727445125579834,1.1884502172470093,1.5687860250473022,1.37967050075531
18088.308173312573,1.1722588539123535,1.1894216537475586,1.5683002471923828,1.3803181648254395
18088.3101733749,1.1724207401275635,1.1894216537475586,1.567814588546753,1.3801562786102295
18088.312173437225,1.172096848487854,1.189907431602478,1.5683002471923828,1.3791847229003906
18088.31417349955,1.1704777479171753,1.1884502172470093,1.567976474761963,1.37983238697052
18088.316173561878,1.1712872982025146,1.1886121034622192,1.567814588546753,1.3790228366851807
18088.318173624204,1.1711254119873047,1.1889358758926392,1.5673288106918335,1.3790228366851807
18088.32017368653,1.1708015203475952,1.1884502172470093,1.567976474761963,1.3793467283248901
18088.322173748857,1.171773076057434,1.1886121034622192,1.5681383609771729,1.3786990642547607
18088.324173811183,1.1724207401275635,1.1889358758926392,1.5686241388320923,1.3785370588302612
18088.32617387351,1.1722588539123535,1.1886121034622192,1.5694336891174316,1.3782132863998413
18088.328173935835,1.1725826263427734,1.1882882118225098,1.5695955753326416,1.3788609504699707
18088.33017399816,1.1732302904129028,1.1879644393920898,1.5692718029022217,1.37967050075531
18088.332174060488,1.1722588539123535,1.1884502172470093,1.569919466972351,1.3790228366851807
18088.334174122814,1.1709635257720947,1.1882882118225098,1.5707290172576904,1.3791847229003906
18088.33617418514,1.171934962272644,1.1887739896774292,1.570243239402771,1.3795086145401
18088.338174247463,1.1733921766281128,1.1894216537475586,1.570243239402771,1.3793467283248901
18088.34017430979,1.1730684041976929,1.1892597675323486,1.5707290172576904,1.3780514001846313
18088.342174372116,1.1730684041976929,1.1887739896774292,1.570243239402771,1.3785370588302612
18088.34417443444,1.1738779544830322,1.1884502172470093,1.5695955753326416,1.37983238697052
18088.346174496768,1.1735540628433228,1.1886121034622192,1.5713766813278198,1.3793467283248901
18088.348174559094,1.1745256185531616,1.1892597675323486,1.5712147951126099,1.3793467283248901
18088.35017462142,1.175335168838501,1.1889358758926392,1.5708909034729004,1.3793467283248901
18088.352174683747,1.1745256185531616,1.1895835399627686,1.5707290172576904,1.3783751726150513
18088.354174746073,1.1725826263427734,1.1892597675323486,1.5705671310424805,1.3790228366851807
18088.3561748084,1.1725826263427734,1.189745545387268,1.570243239402771,1.3791847229003906
18088.358174870726,1.1724207401275635,1.189745545387268,1.5707290172576904,1.37967050075531
18088.360174933052,1.1722588539123535,1.1912027597427368,1.5708909034729004,1.37967050075531
18088.362174995378,1.1737160682678223,1.1907169818878174,1.5705671310424805,1.3803181648254395
18088.364175057704,1.1748493909835815,1.190069317817688,1.5710527896881104,1.3808039426803589
18088.36617512003,1.1742017269134521,1.1894216537475586,1.5715385675430298,1.3799943923950195
18088.368175182357,1.1740398406982422,1.1895835399627686,1.5708909034729004,1.37983238697052
18088.370175244683,1.1745256185531616,1.1905550956726074,1.5713766813278198,1.3804800510406494
18088.37217530701,1.1743637323379517,1.1910407543182373,1.5717004537582397,1.3804800510406494
18088.374175369336,1.1729063987731934,1.1905550956726074,1.5715385675430298,1.3801562786102295
18088.376175431662,1.1732302904129028,1.1907169818878174,1.5718624591827393,1.3799943923950195
18088.378175493985,1.1737160682678223,1.1910407543182373,1.5712147951126099,1.37983238697052
18088.38017555631,1.1730684041976929,1.1912027597427368,1.5708909034729004,1.37983238697052
18088.382175618637,1.1732302904129028,1.1907169818878174,1.5710527896881104,1.3806419372558594
18088.384175680963,1.1735540628433228,1.1908788681030273,1.5710527896881104,1.3811277151107788
18088.38617574329,1.1738779544830322,1.190231204032898,1.5710527896881104,1.3801562786102295
18088.388175805616,1.1737160682678223,1.189745545387268,1.5715385675430298,1.3804800510406494
18088.390175867942,1.1748493909835815,1.190393090248108,1.5707290172576904,1.3809658288955688
18088.39217593027,1.1746875047683716,1.1908788681030273,1.5707290172576904,1.3809658288955688
18088.394175992595,1.1730684041976929,1.1915265321731567,1.5708909034729004,1.3812896013259888
18088.39617605492,1.1722588539123535,1.1913646459579468,1.570405125617981,1.3808039426803589
18088.398176117247,1.1738779544830322,1.1910407543182373,1.5710527896881104,1.3811277151107788
18088.400176179573,1.1738779544830322,1.1915265321731567,1.5718624591827393,1.37967050075531
18088.4021762419,1.1738779544830322,1.1912027597427368,1.5721862316131592,1.3808039426803589
18088.404176304226,1.1748493909835815,1.1921741962432861,1.5723481178283691,1.3820992708206177
18088.406176366552,1.175497055053711,1.1920123100280762,1.5717004537582397,1.3819372653961182
18088.40817642888,1.1758209466934204,1.1920123100280762,1.5721862316131592,1.3820992708206177
18088.410176491205,1.1759828329086304,1.1913646459579468,1.5721862316131592,1.383070707321167
18088.41217655353,1.175335168838501,1.1912027597427368,1.573481559753418,1.3824230432510376
18088.414176615857,1.1742017269134521,1.1921741962432861,1.5729957818984985,1.3825849294662476
18088.416176678184,1.1748493909835815,1.1918504238128662,1.573319673538208,1.3822611570358276
18088.418176740506,1.1750112771987915,1.1918504238128662,1.573481559753418,1.3825849294662476
18088.420176802832,1.1745256185531616,1.1928218603134155,1.5741292238235474,1.3819372653961182
18088.42217686516,1.1742017269134521,1.1918504238128662,1.5742911100387573,1.3825849294662476
18088.424176927485,1.175335168838501,1.1918504238128662,1.5741292238235474,1.3812896013259888
18088.42617698981,1.1745256185531616,1.1915265321731567,1.5729957818984985,1.3816134929656982
18088.428177052137,1.1750112771987915,1.1920123100280762,1.5721862316131592,1.3819372653961182
18088.430177114464,1.1759828329086304,1.1916884183883667,1.572510004043579,1.3819372653961182
18088.43217717679,1.1761447191238403,1.1926599740982056,1.5731576681137085,1.3819372653961182
18088.434177239116,1.175497055053711,1.193307638168335,1.5728338956832886,1.3820992708206177
18088.436177301443,1.1742017269134521,1.1928218603134155,1.573481559753418,1.3816134929656982
18088.43817736377,1.1737160682678223,1.192336082458496,1.573643445968628,1.3809658288955688
18088.440177426095,1.1724207401275635,1.192336082458496,1.5728338956832886,1.3809658288955688
18088.44217748842,1.1727445125579834,1.1931456327438354,1.5728338956832886,1.3820992708206177
18088.444177550748,1.1742017269134521,1.1931456327438354,1.5715385675430298,1.3824230432510376
18088.446177613074,1.1735540628433228,1.1921741962432861,1.5710527896881104,1.3812896013259888
18088.4481776754,1.1733921766281128,1.1915265321731567,1.5721862316131592,1.3808039426803589
18088.450177737726,1.1750112771987915,1.1908788681030273,1.5717004537582397,1.3811277151107788
18088.452177800053,1.1745256185531616,1.1920123100280762,1.5712147951126099,1.3804800510406494
18088.45417786238,1.1732302904129028,1.1916884183883667,1.570081353187561,1.3799943923950195
18088.4561779247,1.1735540628433228,1.1920123100280762,1.570243239402771,1.3801562786102295
18088.458177987028,1.1732302904129028,1.192336082458496,1.5707290172576904,1.3804800510406494
18088.460178049354,1.171773076057434,1.1916884183883667,1.5708909034729004,1.3799943923950195
18088.46217811168,1.171934962272644,1.1912027597427368,1.569919466972351,1.3809658288955688
18088.464178174007,1.1727445125579834,1.192336082458496,1.570081353187561,1.3816134929656982
18088.466178236333,1.1727445125579834,1.1920123100280762,1.570081353187561,1.3822611570358276
18088.46817829866,1.1727445125579834,1.1915265321731567,1.5697574615478516,1.3822611570358276
18088.470178360985,1.1735540628433228,1.1918504238128662,1.569919466972351,1.3824230432510376
18088.47217842331,1.1737160682678223,1.1916884183883667,1.570081353187561,1.3817753791809082
18088.474178485638,1.1722588539123535,1.1918504238128662,1.5692718029022217,1.3808039426803589
18088.476178547964,1.1712872982025146,1.1920123100280762,1.5691099166870117,1.3811277151107788
18088.47817861029,1.1708015203475952,1.1913646459579468,1.5689479112625122,1.3816134929656982
18088.480178672617,1.1708015203475952,1.1912027597427368,1.5684622526168823,1.3812896013259888
18088.482178734943,1.1716111898422241,1.1915265321731567,1.567976474761963,1.3809658288955688
18088.48417879727,1.172096848487854,1.1913646459579468,1.5681383609771729,1.3812896013259888
18088.486178859595,1.171773076057434,1.1926599740982056,1.5676525831222534,1.3816134929656982
18088.48817892192,1.171773076057434,1.1929837465286255,1.567976474761963,1.3817753791809082
18088.490178984248,1.1725826263427734,1.1918504238128662,1.5681383609771729,1.3819372653961182
18088.492179046574,1.171773076057434,1.1912027597427368,1.5684622526168823,1.3812896013259888
18088.4941791089,1.1699919700622559,1.1918504238128662,1.5684622526168823,1.3816134929656982
18088.496179171227,1.1704777479171753,1.1915265321731567,1.5681383609771729,1.3811277151107788
18088.49817923355,1.1706396341323853,1.1921741962432861,1.5681383609771729,1.3817753791809082
18088.500179295876,1.1693443059921265,1.1920123100280762,1.5674906969070435,1.3811277151107788
18088.502179358202,1.1693443059921265,1.1908788681030273,1.566681146621704,1.3812896013259888
18088.504179420528,1.1708015203475952,1.1907169818878174,1.5670050382614136,1.3812896013259888
18088.506179482854,1.1704777479171753,1.1910407543182373,1.5676525831222534,1.3811277151107788
18088.50817954518,1.1701538562774658,1.1913646459579468,1.567976474761963,1.3812896013259888
18088.510179607507,1.1709635257720947,1.1916884183883667,1.5674906969070435,1.3819372653961182
18088.512179669833,1.1703158617019653,1.1913646459579468,1.5673288106918335,1.3816134929656982
18088.51417973216,1.169506311416626,1.1913646459579468,1.5670050382614136,1.3819372653961182
18088.516179794486,1.169668197631836,1.1913646459579468,1.5660334825515747,1.3817753791809082
18088.518179856812,1.1701538562774658,1.1920123100280762,1.5661953687667847,1.3814516067504883
18088.520179919138,1.1688586473464966,1.1921741962432861,1.566843032836914,1.3804800510406494
18088.522179981464,1.1693443059921265,1.1913646459579468,1.5665192604064941,1.3809658288955688
18088.52418004379,1.1709635257720947,1.1916884183883667,1.5676525831222534,1.3811277151107788
18088.526180106117,1.1706396341323853,1.1918504238128662,1.567814588546753,1.3814516067504883
18088.528180168443,1.1701538562774658,1.1921741962432861,1.5674906969070435,1.3816134929656982
18088.53018023077,1.1699919700622559,1.1918504238128662,1.5681383609771729,1.3820992708206177
18088.532180293096,1.1693443059921265,1.1921741962432861,1.5686241388320923,1.3809658288955688
18088.534180355422,1.1690205335617065,1.1928218603134155,1.5676525831222534,1.3816134929656982
18088.536180417745,1.1699919700622559,1.1918504238128662,1.5671669244766235,1.3820992708206177
18088.53818048007,1.169668197631836,1.1913646459579468,1.566843032836914,1.3814516067504883
18088.540180542397,1.1690205335617065,1.1918504238128662,1.5674906969070435,1.382746934890747
18088.542180604723,1.1699919700622559,1.1916884183883667,1.5665192604064941,1.3825849294662476
18088.54418066705,1.1708015203475952,1.1916884183883667,1.5673288106918335,1.3819372653961182
18088.546180729376,1.1711254119873047,1.1920123100280762,1.5691099166870117,1.3817753791809082
18088.548180791702,1.171934962272644,1.192336082458496,1.5695955753326416,1.3816134929656982
18088.55018085403,1.1729063987731934,1.192336082458496,1.5689479112625122,1.3825849294662476
18088.552180916355,1.1727445125579834,1.192336082458496,1.5692718029022217,1.3820992708206177
18088.55418097868,1.1714491844177246,1.1928218603134155,1.5687860250473022,1.3822611570358276
18088.556181041007,1.1714491844177246,1.1924980878829956,1.569919466972351,1.3822611570358276
18088.558181103333,1.171773076057434,1.1928218603134155,1.570081353187561,1.382746934890747
18088.56018116566,1.1708015203475952,1.1920123100280762,1.570081353187561,1.3822611570358276
18088.562181227986,1.1714491844177246,1.1921741962432861,1.569919466972351,1.3825849294662476
18088.564181290312,1.1732302904129028,1.1924980878829956,1.570405125617981,1.383232593536377
18088.56618135264,1.171934962272644,1.1928218603134155,1.569919466972351,1.3835564851760864
18088.568181414965,1.1724207401275635,1.1924980878829956,1.5695955753326416,1.383394479751587
18088.57018147729,1.1729063987731934,1.192336082458496,1.5708909034729004,1.382908821105957
18088.572181539617,1.1727445125579834,1.1931456327438354,1.5712147951126099,1.383394479751587
18088.574181601944,1.1711254119873047,1.193469524383545,1.5713766813278198,1.383070707321167
18088.576181664266,1.172096848487854,1.193469524383545,1.5705671310424805,1.382908821105957
18088.578181726592,1.172096848487854,1.1926599740982056,1.5708909034729004,1.383070707321167
18088.58018178892,1.1716111898422241,1.193307638168335,1.5718624591827393,1.3820992708206177
18088.582181851245,1.1714491844177246,1.1928218603134155,1.5718624591827393,1.3822611570358276
18088.58418191357,1.1722588539123535,1.193307638168335,1.5717004537582397,1.3825849294662476
18088.586181975897,1.171934962272644,1.1926599740982056,1.5721862316131592,1.3820992708206177
18088.588182038224,1.1724207401275635,1.1926599740982056,1.5721862316131592,1.3838802576065063
18088.59018210055,1.1730684041976929,1.1921741962432861,1.5712147951126099,1.3838802576065063
18088.592182162876,1.1740398406982422,1.1926599740982056,1.5715385675430298,1.3835564851760864
18088.594182225203,1.1730684041976929,1.1924980878829956,1.5713766813278198,1.382746934890747
18088.59618228753,1.1722588539123535,1.1926599740982056,1.570405125617981,1.383070707321167
18088.598182349855,1.1714491844177246,1.1928218603134155,1.5695955753326416,1.382908821105957
18088.60018241218,1.169668197631836,1.1926599740982056,1.5692718029022217,1.3824230432510376
18088.602182474508,1.1699919700622559,1.1924980878829956,1.570243239402771,1.3820992708206177
18088.604182536834,1.1716111898422241,1.1924980878829956,1.570081353187561,1.3816134929656982
18088.60618259916,1.171934962272644,1.193469524383545,1.5694336891174316,1.382746934890747
18088.608182661486,1.1711254119873047,1.1937932968139648,1.5692718029022217,1.382746934890747
18088.610182723813,1.171934962272644,1.1929837465286255,1.5687860250473022,1.3824230432510376
18088.61218278614,1.1712872982025146,1.192336082458496,1.5684622526168823,1.3819372653961182
18088.614182848465,1.169830083847046,1.1916884183883667,1.5681383609771729,1.3808039426803589
18088.616182910788,1.1688586473464966,1.1920123100280762,1.5673288106918335,1.3816134929656982
18088.618182973114,1.1690205335617065,1.1918504238128662,1.5670050382614136,1.3814516067504883
18088.62018303544,1.1680489778518677,1.1921741962432861,1.5673288106918335,1.3806419372558594
18088.622183097767,1.1680489778518677,1.1918504238128662,1.5665192604064941,1.3814516067504883
18088.624183160093,1.168534755706787,1.1920123100280762,1.5660334825515747,1.3812896013259888
18088.62618322242,1.1688586473464966,1.1924980878829956,1.5653858184814453,1.3820992708206177
18088.628183284745,1.168534755706787,1.1926599740982056,1.5657097101211548,1.3819372653961182
18088.63018334707,1.169830083847046,1.1918504238128662,1.5657097101211548,1.3822611570358276
18088.632183409398,1.1688586473464966,1.1916884183883667,1.5658715963363647,1.3820992708206177
18088.634183471724,1.1669156551361084,1.1912027597427368,1.5649000406265259,1.3822611570358276
18088.63618353405,1.1669156551361084,1.1908788681030273,1.564738154411316,1.3814516067504883
18088.638183596377,1.1680489778518677,1.1916884183883667,1.5652239322662354,1.3808039426803589
18088.640183658703,1.1682109832763672,1.1916884183883667,1.5652239322662354,1.3808039426803589
18088.64218372103,1.1682109832763672,1.1912027597427368,1.5650620460510254,1.3812896013259888
18088.644183783355,1.1683728694915771,1.1913646459579468,1.564576268196106,1.3817753791809082
18088.64618384568,1.1677252054214478,1.1910407543182373,1.5652239322662354,1.3822611570358276
18088.648183908008,1.1672394275665283,1.1912027597427368,1.5658715963363647,1.3812896013259888
18088.650183970334,1.1688586473464966,1.1916884183883667,1.5650620460510254,1.3814516067504883
18088.65218403266,1.168696641921997,1.1915265321731567,1.5657097101211548,1.3812896013259888
18088.654184094987,1.1675633192062378,1.1916884183883667,1.5653858184814453,1.3808039426803589
18088.65618415731,1.1674014329910278,1.1910407543182373,1.5649000406265259,1.3817753791809082
18088.658184219636,1.1672394275665283,1.1915265321731567,1.5652239322662354,1.3816134929656982
18088.660184281962,1.166591763496399,1.192336082458496,1.5657097101211548,1.3806419372558594
18088.662184344288,1.1677252054214478,1.1918504238128662,1.5653858184814453,1.3804800510406494
18088.664184406614,1.1690205335617065,1.1918504238128662,1.5653858184814453,1.3806419372558594
18088.66618446894,1.1690205335617065,1.1915265321731567,1.5660334825515747,1.3811277151107788
18088.668184531267,1.1688586473464966,1.1907169818878174,1.5658715963363647,1.3814516067504883
18088.670184593593,1.169506311416626,1.1907169818878174,1.5653858184814453,1.3817753791809082
18088.67218465592,1.1691824197769165,1.1913646459579468,1.5661953687667847,1.3814516067504883
18088.674184718246,1.1690205335617065,1.1910407543182373,1.5663573741912842,1.3811277151107788
18088.676184780572,1.169830083847046,1.1916884183883667,1.566681146621704,1.3811277151107788
18088.6781848429,1.169830083847046,1.1921741962432861,1.5671669244766235,1.3814516067504883
18088.680184905224,1.1693443059921265,1.1921741962432861,1.567814588546753,1.3809658288955688
18088.68218496755,1.1703158617019653,1.1918504238128662,1.567976474761963,1.3819372653961182
18088.684185029877,1.1716111898422241,1.1918504238128662,1.5686241388320923,1.3824230432510376
18088.686185092203,1.1724207401275635,1.1924980878829956,1.5681383609771729,1.383232593536377
18088.68818515453,1.1724207401275635,1.1926599740982056,1.5681383609771729,1.383232593536377
18088.690185216856,1.1733921766281128,1.1915265321731567,1.5689479112625122,1.3837183713912964
18088.692185279182,1.1733921766281128,1.1915265321731567,1.569919466972351,1.382746934890747
18088.694185341505,1.172096848487854,1.1912027597427368,1.5695955753326416,1.3822611570358276
18088.69618540383,1.1727445125579834,1.1921741962432861,1.5691099166870117,1.382908821105957
18088.698185466157,1.1733921766281128,1.1926599740982056,1.5697574615478516,1.383394479751587
18088.700185528483,1.1733921766281128,1.1918504238128662,1.5694336891174316,1.382746934890747
18088.70218559081,1.1727445125579834,1.1916884183883667,1.5695955753326416,1.3825849294662476
18088.704185653136,1.1740398406982422,1.1913646459579468,1.570243239402771,1.383232593536377
18088.706185715462,1.1745256185531616,1.1915265321731567,1.5697574615478516,1.3840421438217163
18088.70818577779,1.1740398406982422,1.1921741962432861,1.5697574615478516,1.3842041492462158
18088.710185840115,1.1750112771987915,1.1928218603134155,1.5692718029022217,1.3840421438217163
18088.71218590244,1.1742017269134521,1.1924980878829956,1.5689479112625122,1.3824230432510376
18088.714185964767,1.171934962272644,1.1907169818878174,1.5691099166870117,1.3824230432510376
18088.716186027093,1.1727445125579834,1.1915265321731567,1.570243239402771,1.3817753791809082
18088.71818608942,1.1740398406982422,1.1920123100280762,1.570405125617981,1.382746934890747
18088.720186151746,1.1730684041976929,1.1916884183883667,1.570243239402771,1.3822611570358276
18088.722186214072,1.1729063987731934,1.1913646459579468,1.5695955753326416,1.382908821105957
18088.7241862764,1.1740398406982422,1.1907169818878174,1.5692718029022217,1.383070707321167
18088.726186338725,1.1750112771987915,1.1910407543182373,1.570081353187561,1.382908821105957
18088.72818640105,1.1743637323379517,1.1915265321731567,1.570243239402771,1.382908821105957
18088.730186463377,1.175335168838501,1.1913646459579468,1.5689479112625122,1.3837183713912964
18088.732186525704,1.175335168838501,1.1905550956726074,1.5691099166870117,1.382908821105957
18088.734186588026,1.1743637323379517,1.1908788681030273,1.5689479112625122,1.382746934890747
18088.736186650352,1.1742017269134521,1.1910407543182373,1.5686241388320923,1.3824230432510376
18088.73818671268,1.1742017269134521,1.1908788681030273,1.5686241388320923,1.3822611570358276
18088.740186775005,1.1733921766281128,1.1910407543182373,1.5691099166870117,1.3817753791809082
18088.74218683733,1.1738779544830322,1.190231204032898,1.5684622526168823,1.3816134929656982
18088.744186899658,1.1742017269134521,1.190069317817688,1.5681383609771729,1.3819372653961182
18088.746186961984,1.1735540628433228,1.190393090248108,1.5687860250473022,1.3822611570358276
18088.74818702431,1.1733921766281128,1.1908788681030273,1.5684622526168823,1.3835564851760864
18088.750187086636,1.1743637323379517,1.1913646459579468,1.567814588546753,1.3840421438217163
18088.752187148963,1.1738779544830322,1.1912027597427368,1.5684622526168823,1.3838802576065063
18088.75418721129,1.171773076057434,1.1910407543182373,1.567976474761963,1.383232593536377
18088.756187273615,1.1712872982025146,1.189745545387268,1.5676525831222534,1.3825849294662476
18088.75818733594,1.1711254119873047,1.189907431602478,1.5676525831222534,1.3835564851760864
18088.760187398268,1.1704777479171753,1.1910407543182373,1.5676525831222534,1.383394479751587
18088.762187460594,1.171773076057434,1.1912027597427368,1.5673288106918335,1.3835564851760864
18088.76418752292,1.1732302904129028,1.1908788681030273,1.5676525831222534,1.383394479751587
18088.766187585246,1.1722588539123535,1.1913646459579468,1.5671669244766235,1.3835564851760864
18088.768187647573,1.171934962272644,1.1913646459579468,1.5673288106918335,1.3840421438217163
18088.7701877099,1.1725826263427734,1.1910407543182373,1.5674906969070435,1.3845279216766357
18088.772187772225,1.1724207401275635,1.1918504238128662,1.5676525831222534,1.3835564851760864
18088.774187834548,1.171934962272644,1.1915265321731567,1.5676525831222534,1.383232593536377
18088.776187896874,1.1711254119873047,1.1915265321731567,1.5661953687667847,1.383232593536377
18088.7781879592,1.1709635257720947,1.1916884183883667,1.5652239322662354,1.383232593536377
18088.780188021527,1.1712872982025146,1.1920123100280762,1.5665192604064941,1.382908821105957
18088.782188083853,1.1714491844177246,1.1916884183883667,1.5676525831222534,1.3837183713912964
18088.78418814618,1.1729063987731934,1.1915265321731567,1.5687860250473022,1.383070707321167
18088.786188208505,1.1725826263427734,1.1912027597427368,1.5691099166870117,1.3835564851760864
18088.78818827083,1.1725826263427734,1.1913646459579468,1.5692718029022217,1.383394479751587
18088.790188333158,1.1724207401275635,1.1915265321731567,1.5694336891174316,1.3837183713912964
18088.792188395484,1.1733921766281128,1.1918504238128662,1.5687860250473022,1.3838802576065063
18088.79418845781,1.1732302904129028,1.1905550956726074,1.5689479112625122,1.3837183713912964
18088.796188520137,1.1722588539123535,1.190231204032898,1.5683002471923828,1.383394479751587
18088.798188582463,1.1730684041976929,1.190231204032898,1.5691099166870117,1.3838802576065063
18088.80018864479,1.171773076057434,1.1907169818878174,1.5691099166870117,1.3825849294662476
18088.802188707115,1.1724207401275635,1.1913646459579468,1.5689479112625122,1.383070707321167
18088.80418876944,1.1738779544830322,1.1915265321731567,1.5689479112625122,1.383232593536377
18088.806188831768,1.1738779544830322,1.1915265321731567,1.5681383609771729,1.3843660354614258
18088.808188894094,1.1733921766281128,1.1915265321731567,1.5683002471923828,1.383232593536377
18088.81018895642,1.1748493909835815,1.1915265321731567,1.5687860250473022,1.383394479751587
18088.812189018747,1.1746875047683716,1.1915265321731567,1.5694336891174316,1.3838802576065063
18088.81418908107,1.1733921766281128,1.1915265321731567,1.5691099166870117,1.3835564851760864
18088.816189143396,1.1730684041976929,1.1912027597427368,1.5694336891174316,1.383232593536377
18088.818189205722,1.1727445125579834,1.1912027597427368,1.5694336891174316,1.383394479751587
18088.820189268048,1.1712872982025146,1.1915265321731567,1.5686241388320923,1.383232593536377
18088.822189330374,1.172096848487854,1.1915265321731567,1.5683002471923828,1.383232593536377
18088.8241893927,1.1735540628433228,1.1910407543182373,1.5687860250473022,1.383070707321167
18088.826189455027,1.1738779544830322,1.1912027597427368,1.5689479112625122,1.382908821105957
18088.828189517353,1.1737160682678223,1.1920123100280762,1.5692718029022217,1.383232593536377
18088.83018957968,1.1743637323379517,1.192336082458496,1.5692718029022217,1.3840421438217163
18088.832189642006,1.1740398406982422,1.1921741962432861,1.5686241388320923,1.3835564851760864
18088.834189704332,1.1727445125579834,1.1915265321731567,1.5684622526168823,1.3835564851760864
18088.83618976666,1.1733921766281128,1.1915265321731567,1.5695955753326416,1.383394479751587
18088.838189828984,1.1738779544830322,1.1916884183883667,1.5695955753326416,1.3837183713912964
18088.84018989131,1.1724207401275635,1.1920123100280762,1.5687860250473022,1.3838802576065063
18088.842189953637,1.1716111898422241,1.1924980878829956,1.5686241388320923,1.3837183713912964
18088.844190015963,1.1725826263427734,1.1929837465286255,1.5684622526168823,1.3824230432510376
18088.84619007829,1.1729063987731934,1.1920123100280762,1.5687860250473022,1.3837183713912964
18088.848190140616,1.1738779544830322,1.1921741962432861,1.5687860250473022,1.383232593536377
18088.850190202942,1.1738779544830322,1.1921741962432861,1.5689479112625122,1.382908821105957
18088.852190265265,1.1733921766281128,1.1918504238128662,1.5684622526168823,1.3835564851760864
18088.85419032759,1.1725826263427734,1.1921741962432861,1.5694336891174316,1.3838802576065063
18088.856190389917,1.171934962272644,1.1926599740982056,1.5689479112625122,1.3840421438217163
18088.858190452243,1.1722588539123535,1.1924980878829956,1.5683002471923828,1.3846898078918457
18088.86019051457,1.171934962272644,1.1920123100280762,1.567814588546753,1.3843660354614258
18088.862190576896,1.1722588539123535,1.192336082458496,1.567976474761963,1.383394479751587
18088.864190639222,1.1730684041976929,1.192336082458496,1.5687860250473022,1.3838802576065063
18088.86619070155,1.1729063987731934,1.1929837465286255,1.5692718029022217,1.3838802576065063
18088.868190763875,1.1725826263427734,1.1931456327438354,1.5695955753326416,1.383232593536377
18088.8701908262,1.1727445125579834,1.1929837465286255,1.5687860250473022,1.3840421438217163
18088.872190888527,1.1729063987731934,1.1929837465286255,1.567976474761963,1.3837183713912964
18088.874190950854,1.1729063987731934,1.1924980878829956,1.567976474761963,1.3838802576065063
18088.87619101318,1.1727445125579834,1.1929837465286255,1.567976474761963,1.3840421438217163
18088.878191075506,1.1727445125579834,1.192336082458496,1.5674906969070435,1.3843660354614258
18088.880191137832,1.171773076057434,1.1926599740982056,1.5660334825515747,1.3840421438217163
18088.88219120016,1.171773076057434,1.1924980878829956,1.5658715963363647,1.385337471961975
18088.884191262485,1.1727445125579834,1.1931456327438354,1.566843032836914,1.3848518133163452
18088.88619132481,1.1725826263427734,1.1928218603134155,1.5676525831222534,1.3835564851760864
18088.888191387137,1.172096848487854,1.192336082458496,1.5676525831222534,1.3837183713912964
18088.890191449464,1.172096848487854,1.1915265321731567,1.566843032836914,1.3845279216766357
18088.892191511786,1.1725826263427734,1.1921741962432861,1.567814588546753,1.3840421438217163
18088.894191574112,1.1709635257720947,1.193307638168335,1.5674906969070435,1.3838802576065063
18088.89619163644,1.1701538562774658,1.1924980878829956,1.5673288106918335,1.3838802576065063
18088.898191698765,1.1706396341323853,1.1908788681030273,1.5671669244766235,1.383232593536377
18088.90019176109,1.169830083847046,1.1915265321731567,1.5671669244766235,1.382746934890747
18088.902191823418,1.1701538562774658,1.1916884183883667,1.5660334825515747,1.383070707321167
18088.904191885744,1.1712872982025146,1.1916884183883667,1.5660334825515747,1.3835564851760864
18088.90619194807,1.1711254119873047,1.1912027597427368,1.5650620460510254,1.3837183713912964
18088.908192010396,1.1703158617019653,1.1905550956726074,1.5649000406265259,1.3838802576065063
18088.910192072723,1.1699919700622559,1.190393090248108,1.5653858184814453,1.3842041492462158
18088.91219213505,1.1699919700622559,1.190069317817688,1.5650620460510254,1.382746934890747
18088.914192197375,1.1683728694915771,1.190069317817688,1.5649000406265259,1.3822611570358276
18088.9161922597,1.1680489778518677,1.1907169818878174,1.564738154411316,1.3822611570358276
18088.918192322028,1.169506311416626,1.189745545387268,1.5634428262710571,1.3824230432510376
18088.920192384354,1.1683728694915771,1.1907169818878174,1.5631190538406372,1.3819372653961182
18088.92219244668,1.168534755706787,1.1912027597427368,1.5627951622009277,1.383394479751587
18088.924192509006,1.169830083847046,1.1908788681030273,1.5616618394851685,1.383070707321167
18088.926192571333,1.169830083847046,1.1908788681030273,1.5624713897705078,1.382746934890747
18088.92819263366,1.1690205335617065,1.1910407543182373,1.5631190538406372,1.3825849294662476
18088.930192695985,1.1691824197769165,1.1908788681030273,1.5634428262710571,1.383394479751587
18088.932192758308,1.1691824197769165,1.1918504238128662,1.5637667179107666,1.383394479751587
18088.934192820634,1.1678870916366577,1.192336082458496,1.5637667179107666,1.383070707321167
18088.93619288296,1.1682109832763672,1.1924980878829956,1.564252495765686,1.3837183713912964
18088.938192945287,1.1680489778518677,1.1921741962432861,1.5640904903411865,1.383232593536377
18088.940193007613,1.1680489778518677,1.1924980878829956,1.564252495765686,1.383070707321167
18088.94219306994,1.1680489778518677,1.1926599740982056,1.5640904903411865,1.3838802576065063
18088.944193132265,1.169830083847046,1.192336082458496,1.5640904903411865,1.3840421438217163
18088.94619319459,1.1703158617019653,1.192336082458496,1.5658715963363647,1.3835564851760864
18088.948193256918,1.1703158617019653,1.1918504238128662,1.5660334825515747,1.3837183713912964
18088.950193319244,1.1716111898422241,1.1920123100280762,1.5650620460510254,1.3843660354614258
18088.95219338157,1.172096848487854,1.1920123100280762,1.5658715963363647,1.3848518133163452
18088.954193443897,1.1714491844177246,1.1931456327438354,1.566843032836914,1.3848518133163452
18088.956193506223,1.171934962272644,1.1931456327438354,1.566843032836914,1.3848518133163452
18088.95819356855,1.1727445125579834,1.1926599740982056,1.5681383609771729,1.3851755857467651
18088.960193630875,1.171934962272644,1.1929837465286255,1.5691099166870117,1.3851755857467651
18088.9621936932,1.1722588539123535,1.193469524383545,1.5691099166870117,1.386309027671814
18088.964193755528,1.1732302904129028,1.1937932968139648,1.5695955753326416,1.3859851360321045
18088.966193817854,1.1724207401275635,1.1937932968139648,1.5689479112625122,1.386309027671814
18088.96819388018,1.1724207401275635,1.1942790746688843,1.5681383609771729,1.3861470222473145
18088.970193942507,1.1738779544830322,1.1937932968139648,1.5681383609771729,1.385499358177185
18088.97219400483,1.1742017269134521,1.1928218603134155,1.5689479112625122,1.3843660354614258
18088.974194067156,1.1722588539123535,1.193307638168335,1.5686241388320923,1.3842041492462158
18088.976194129482,1.1732302904129028,1.1931456327438354,1.5681383609771729,1.3851755857467651
18088.978194191808,1.1740398406982422,1.1931456327438354,1.567814588546753,1.385337471961975
18088.980194254134,1.1727445125579834,1.193307638168335,1.567976474761963,1.385337471961975
18088.98219431646,1.1729063987731934,1.193307638168335,1.5681383609771729,1.386309027671814
18088.984194378787,1.1745256185531616,1.193469524383545,1.5689479112625122,1.3859851360321045
18088.986194441113,1.1743637323379517,1.1928218603134155,1.5692718029022217,1.3856613636016846
18088.98819450344,1.1740398406982422,1.1920123100280762,1.5683002471923828,1.3858232498168945
18088.990194565766,1.1735540628433228,1.192336082458496,1.567814588546753,1.3859851360321045
18088.992194628092,1.1735540628433228,1.193307638168335,1.5683002471923828,1.3851755857467651
18088.99419469042,1.171773076057434,1.1926599740982056,1.5684622526168823,1.385337471961975
18088.996194752744,1.171934962272644,1.1931456327438354,1.567976474761963,1.3856613636016846
18088.99819481507,1.171773076057434,1.1937932968139648,1.5673288106918335,1.3851755857467651
18089.000194877397,1.1714491844177246,1.1929837465286255,1.5665192604064941,1.3840421438217163
18089.002194939723,1.1708015203475952,1.1926599740982056,1.5670050382614136,1.3850136995315552
18089.00419500205,1.172096848487854,1.193469524383545,1.5674906969070435,1.3848518133163452
18089.006195064376,1.172096848487854,1.1928218603134155,1.5665192604064941,1.3838802576065063
18089.008195126702,1.171773076057434,1.1926599740982056,1.5657097101211548,1.3846898078918457
18089.010195189025,1.1725826263427734,1.1921741962432861,1.5661953687667847,1.3846898078918457
18089.01219525135,1.171773076057434,1.1924980878829956,1.5658715963363647,1.3842041492462158
18089.014195313677,1.1703158617019653,1.1921741962432861,1.5653858184814453,1.3843660354614258
18089.016195376003,1.1701538562774658,1.1921741962432861,1.564576268196106,1.3856613636016846
18089.01819543833,1.1699919700622559,1.1921741962432861,1.5649000406265259,1.385499358177185
18089.020195500656,1.1682109832763672,1.1920123100280762,1.5649000406265259,1.3846898078918457
18089.022195562982,1.1683728694915771,1.1926599740982056,1.5649000406265259,1.3843660354614258
18089.02419562531,1.1691824197769165,1.1924980878829956,1.564252495765686,1.3840421438217163
18089.026195687635,1.1688586473464966,1.1921741962432861,1.5627951622009277,1.3835564851760864
18089.02819574996,1.168696641921997,1.1921741962432861,1.5618237257003784,1.3837183713912964
18089.030195812287,1.169668197631836,1.1924980878829956,1.561337947845459,1.3840421438217163
18089.032195874614,1.1690205335617065,1.1924980878829956,1.5626332759857178,1.3835564851760864
18089.03419593694,1.1672394275665283,1.1918504238128662,1.5626332759857178,1.3837183713912964
18089.036195999266,1.1677252054214478,1.1920123100280762,1.5627951622009277,1.3840421438217163
18089.038196061592,1.1672394275665283,1.1915265321731567,1.562147617340088,1.3835564851760864
18089.04019612392,1.1659440994262695,1.1915265321731567,1.5618237257003784,1.383232593536377
18089.042196186245,1.1667537689208984,1.1910407543182373,1.561337947845459,1.3838802576065063
18089.04419624857,1.1680489778518677,1.1912027597427368,1.561014175415039,1.3837183713912964
18089.046196310897,1.1683728694915771,1.190393090248108,1.561176061630249,1.3835564851760864
18089.048196373224,1.1675633192062378,1.190393090248108,1.5606902837753296,1.3837183713912964
18089.05019643555,1.1680489778518677,1.1908788681030273,1.5605283975601196,1.383070707321167
18089.052196497873,1.1677252054214478,1.1910407543182373,1.5598807334899902,1.383394479751587
18089.0541965602,1.166429877281189,1.1907169818878174,1.5593950748443604,1.383232593536377
18089.056196622525,1.166429877281189,1.1907169818878174,1.5592330694198608,1.3837183713912964
18089.05819668485,1.1667537689208984,1.1905550956726074,1.5597188472747803,1.383232593536377
18089.060196747178,1.1657822132110596,1.1912027597427368,1.5600426197052002,1.382746934890747
18089.062196809504,1.1652965545654297,1.1910407543182373,1.5597188472747803,1.3837183713912964
18089.06419687183,1.1674014329910278,1.1908788681030273,1.5595569610595703,1.3840421438217163
18089.066196934156,1.1669156551361084,1.190393090248108,1.5592330694198608,1.383070707321167
18089.068196996483,1.1667537689208984,1.190069317817688,1.5593950748443604,1.3835564851760864
18089.07019705881,1.1674014329910278,1.1908788681030273,1.5602046251296997,1.3837183713912964
18089.072197121135,1.1677252054214478,1.1908788681030273,1.5598807334899902,1.3837183713912964
18089.07419718346,1.1672394275665283,1.1895835399627686,1.5600426197052002,1.383070707321167
18089.076197245788,1.1682109832763672,1.189907431602478,1.5598807334899902,1.3835564851760864
18089.078197308114,1.1667537689208984,1.1907169818878174,1.5590711832046509,1.383232593536377
18089.08019737044,1.1659440994262695,1.1913646459579468,1.558909296989441,1.3820992708206177
18089.082197432766,1.1672394275665283,1.1913646459579468,1.5590711832046509,1.383070707321167
18089.084197495093,1.1674014329910278,1.1913646459579468,1.5598807334899902,1.3837183713912964
18089.08619755742,1.166429877281189,1.1910407543182373,1.5605283975601196,1.383232593536377
18089.088197619745,1.166267991065979,1.190069317817688,1.5598807334899902,1.3837183713912964
18089.090197682068,1.1674014329910278,1.190393090248108,1.5593950748443604,1.3842041492462158
18089.092197744394,1.1675633192062378,1.1908788681030273,1.5592330694198608,1.3840421438217163
18089.09419780672,1.1659440994262695,1.1907169818878174,1.5590711832046509,1.3845279216766357
18089.096197869047,1.166591763496399,1.1907169818878174,1.5593950748443604,1.3837183713912964
18089.098197931373,1.1669156551361084,1.1908788681030273,1.5603665113449097,1.3840421438217163
18089.1001979937,1.166429877281189,1.1905550956726074,1.5605283975601196,1.3835564851760864
18089.102198056025,1.1675633192062378,1.1895835399627686,1.5600426197052002,1.3840421438217163
18089.10419811835,1.169506311416626,1.1905550956726074,1.5605283975601196,1.3843660354614258
18089.106198180678,1.1691824197769165,1.1915265321731567,1.560852289199829,1.3846898078918457
18089.108198243004,1.168696641921997,1.1912027597427368,1.5614999532699585,1.3851755857467651
18089.11019830533,1.1706396341323853,1.1915265321731567,1.561176061630249,1.3851755857467651
18089.112198367657,1.1708015203475952,1.1920123100280762,1.5616618394851685,1.3848518133163452
18089.114198429983,1.169668197631836,1.1926599740982056,1.5631190538406372,1.3851755857467651
18089.11619849231,1.168696641921997,1.192336082458496,1.5632809400558472,1.3851755857467651
18089.118198554635,1.1701538562774658,1.1924980878829956,1.5632809400558472,1.3845279216766357
18089.12019861696,1.169830083847046,1.1931456327438354,1.5634428262710571,1.385337471961975
18089.122198679288,1.1701538562774658,1.1924980878829956,1.5629571676254272,1.3867946863174438
18089.124198741614,1.1711254119873047,1.1929837465286255,1.5634428262710571,1.3866328001022339
18089.12619880394,1.171773076057434,1.193469524383545,1.5639286041259766,1.386470913887024
18089.128198866267,1.171934962272644,1.1944409608840942,1.564576268196106,1.3867946863174438
18089.13019892859,1.171773076057434,1.1944409608840942,1.564414381980896,1.3874423503875732
18089.132198990916,1.1724207401275635,1.1931456327438354,1.5650620460510254,1.3871185779571533
18089.134199053242,1.1712872982025146,1.193469524383545,1.564576268196106,1.3872804641723633
18089.136199115568,1.1716111898422241,1.1946029663085938,1.5653858184814453,1.3874423503875732
18089.138199177894,1.1722588539123535,1.1946029663085938,1.5655477046966553,1.3871185779571533
18089.14019924022,1.171934962272644,1.1941171884536743,1.5660334825515747,1.3859851360321045
18089.142199302547,1.1724207401275635,1.1941171884536743,1.5658715963363647,1.3869566917419434
18089.144199364873,1.1738779544830322,1.1942790746688843,1.5658715963363647,1.3880900144577026
18089.1461994272,1.1727445125579834,1.1944409608840942,1.5660334825515747,1.388413906097412
18089.148199489526,1.1727445125579834,1.1942790746688843,1.5660334825515747,1.3892234563827515
18089.150199551852,1.1732302904129028,1.1944409608840942,1.5653858184814453,1.388413906097412
18089.15219961418,1.1737160682678223,1.1947648525238037,1.5658715963363647,1.3876042366027832
18089.154199676505,1.172096848487854,1.1949267387390137,1.5658715963363647,1.3872804641723633
18089.15619973883,1.1724207401275635,1.195574402809143,1.5660334825515747,1.3872804641723633
18089.158199801157,1.1737160682678223,1.1947648525238037,1.5655477046966553,1.3869566917419434
18089.160199863483,1.1725826263427734,1.1942790746688843,1.5653858184814453,1.3871185779571533
18089.16219992581,1.1724207401275635,1.1944409608840942,1.5652239322662354,1.388413906097412
18089.164199988136,1.1730684041976929,1.1947648525238037,1.5657097101211548,1.3880900144577026
18089.166200050462,1.171773076057434,1.1947648525238037,1.5650620460510254,1.3879281282424927
18089.16820011279,1.1714491844177246,1.1944409608840942,1.5652239322662354,1.3882519006729126
18089.17020017511,1.1724207401275635,1.1941171884536743,1.5650620460510254,1.388899564743042
18089.172200237437,1.1722588539123535,1.1939553022384644,1.5653858184814453,1.3879281282424927
18089.174200299763,1.1708015203475952,1.1941171884536743,1.5653858184814453,1.3872804641723633
18089.17620036209,1.1711254119873047,1.193469524383545,1.5653858184814453,1.3871185779571533
18089.178200424416,1.1711254119873047,1.193469524383545,1.564414381980896,1.3872804641723633
18089.180200486742,1.1701538562774658,1.1931456327438354,1.5640904903411865,1.3869566917419434
18089.18220054907,1.1699919700622559,1.1936314105987549,1.5639286041259766,1.3867946863174438
18089.184200611395,1.1712872982025146,1.1936314105987549,1.5636048316955566,1.3874423503875732
18089.18620067372,1.1711254119873047,1.193307638168335,1.5634428262710571,1.3866328001022339
18089.188200736047,1.1708015203475952,1.193307638168335,1.5631190538406372,1.3869566917419434
18089.190200798374,1.1716111898422241,1.1937932968139648,1.5627951622009277,1.3866328001022339
18089.1922008607,1.1714491844177246,1.1936314105987549,1.5619856119155884,1.3858232498168945
18089.194200923026,1.168534755706787,1.193307638168335,1.5614999532699585,1.3859851360321045
18089.196200985352,1.168696641921997,1.1926599740982056,1.561014175415039,1.386309027671814
18089.19820104768,1.168696641921997,1.1921741962432861,1.5614999532699585,1.3869566917419434
18089.200201110005,1.168534755706787,1.192336082458496,1.5618237257003784,1.385337471961975
18089.20220117233,1.1677252054214478,1.1926599740982056,1.561176061630249,1.385337471961975
18089.204201234657,1.1688586473464966,1.1928218603134155,1.5603665113449097,1.3858232498168945
18089.206201296984,1.1683728694915771,1.1928218603134155,1.5603665113449097,1.385499358177185
18089.20820135931,1.1683728694915771,1.1921741962432861,1.5606902837753296,1.385337471961975
18089.210201421633,1.1680489778518677,1.1920123100280762,1.5600426197052002,1.385499358177185
18089.21220148396,1.1682109832763672,1.1937932968139648,1.5595569610595703,1.3856613636016846
18089.214201546285,1.1675633192062378,1.1942790746688843,1.5600426197052002,1.3859851360321045
18089.21620160861,1.1678870916366577,1.1929837465286255,1.5603665113449097,1.3856613636016846
18089.218201670938,1.1669156551361084,1.1928218603134155,1.5602046251296997,1.3850136995315552
18089.220201733264,1.166106104850769,1.1928218603134155,1.5597188472747803,1.3850136995315552
18089.22220179559,1.166591763496399,1.1929837465286255,1.5593950748443604,1.3861470222473145
18089.224201857916,1.1683728694915771,1.193307638168335,1.5585854053497314,1.385337471961975
18089.226201920243,1.1680489778518677,1.1931456327438354,1.5593950748443604,1.3848518133163452
18089.22820198257,1.1675633192062378,1.1931456327438354,1.5603665113449097,1.3851755857467651
18089.230202044895,1.168534755706787,1.1929837465286255,1.5606902837753296,1.3859851360321045
18089.23220210722,1.1680489778518677,1.1924980878829956,1.561176061630249,1.3858232498168945
18089.234202169548,1.1670775413513184,1.192336082458496,1.5605283975601196,1.3866328001022339
18089.236202231874,1.1669156551361084,1.1926599740982056,1.5603665113449097,1.3867946863174438
18089.2382022942,1.1667537689208984,1.1928218603134155,1.5600426197052002,1.3856613636016846
18089.240202356526,1.166267991065979,1.1928218603134155,1.5598807334899902,1.3851755857467651
18089.242202418853,1.1669156551361084,1.1924980878829956,1.5597188472747803,1.385499358177185
18089.24420248118,1.1682109832763672,1.1926599740982056,1.5600426197052002,1.386309027671814
18089.246202543505,1.168696641921997,1.1928218603134155,1.5605283975601196,1.386309027671814
18089.248202605828,1.1682109832763672,1.1931456327438354,1.5603665113449097,1.3866328001022339
18089.250202668154,1.169506311416626,1.1936314105987549,1.5606902837753296,1.3871185779571533
18089.25220273048,1.1693443059921265,1.1936314105987549,1.560852289199829,1.386470913887024
18089.254202792807,1.1680489778518677,1.1929837465286255,1.561176061630249,1.3867946863174438
18089.256202855133,1.1675633192062378,1.193307638168335,1.561014175415039,1.386309027671814
18089.25820291746,1.1682109832763672,1.1936314105987549,1.561014175415039,1.3861470222473145
18089.260202979785,1.1675633192062378,1.1941171884536743,1.5614999532699585,1.3859851360321045
18089.26220304211,1.1677252054214478,1.1941171884536743,1.561176061630249,1.386470913887024
18089.264203104438,1.1699919700622559,1.1929837465286255,1.5614999532699585,1.386309027671814
18089.266203166764,1.1704777479171753,1.1921741962432861,1.5616618394851685,1.386470913887024
18089.26820322909,1.1703158617019653,1.1920123100280762,1.561337947845459,1.3869566917419434
18089.270203291417,1.1716111898422241,1.1921741962432861,1.5618237257003784,1.3867946863174438
18089.272203353743,1.1716111898422241,1.1928218603134155,1.5631190538406372,1.3869566917419434
18089.27420341607,1.169830083847046,1.1928218603134155,1.5634428262710571,1.3879281282424927
18089.276203478395,1.1701538562774658,1.193307638168335,1.5632809400558472,1.3876042366027832
18089.27820354072,1.1712872982025146,1.1926599740982056,1.5636048316955566,1.3871185779571533
18089.280203603048,1.1709635257720947,1.1928218603134155,1.5640904903411865,1.386309027671814
18089.282203665374,1.1701538562774658,1.1928218603134155,1.5634428262710571,1.3871185779571533
18089.2842037277,1.171773076057434,1.193469524383545,1.5634428262710571,1.3871185779571533
18089.286203790027,1.1722588539123535,1.1928218603134155,1.5640904903411865,1.3867946863174438
18089.28820385235,1.1714491844177246,1.1929837465286255,1.564576268196106,1.386470913887024
18089.290203914676,1.172096848487854,1.1931456327438354,1.5639286041259766,1.3861470222473145
18089.292203977002,1.1714491844177246,1.1939553022384644,1.5637667179107666,1.386470913887024
18089.294204039328,1.1704777479171753,1.1936314105987549,1.5637667179107666,1.3867946863174438
18089.296204101654,1.1703158617019653,1.1936314105987549,1.5624713897705078,1.3872804641723633
18089.29820416398,1.169830083847046,1.1928218603134155,1.5629571676254272,1.3869566917419434
18089.300204226307,1.1693443059921265,1.1926599740982056,1.5640904903411865,1.3861470222473145
18089.302204288633,1.1699919700622559,1.1929837465286255,1.5634428262710571,1.3861470222473145
18089.30420435096,1.1709635257720947,1.1926599740982056,1.5632809400558472,1.3867946863174438
18089.306204413286,1.1709635257720947,1.192336082458496,1.5636048316955566,1.3867946863174438
18089.308204475612,1.1699919700622559,1.192336082458496,1.5631190538406372,1.3874423503875732
18089.31020453794,1.1706396341323853,1.1920123100280762,1.5627951622009277,1.3877662420272827
18089.312204600265,1.1699919700622559,1.1926599740982056,1.5624713897705078,1.3869566917419434
18089.31420466259,1.1682109832763672,1.1924980878829956,1.5619856119155884,1.3858232498168945
18089.316204724917,1.1688586473464966,1.192336082458496,1.5614999532699585,1.3851755857467651
18089.318204787243,1.169506311416626,1.1929837465286255,1.561014175415039,1.3858232498168945
18089.32020484957,1.168534755706787,1.192336082458496,1.5602046251296997,1.3850136995315552
18089.322204911896,1.1674014329910278,1.1918504238128662,1.5593950748443604,1.3850136995315552
18089.324204974222,1.168534755706787,1.1913646459579468,1.5598807334899902,1.3858232498168945
18089.32620503655,1.1683728694915771,1.1908788681030273,1.5603665113449097,1.3861470222473145
18089.32820509887,1.1674014329910278,1.190231204032898,1.5602046251296997,1.3856613636016846
18089.330205161197,1.1680489778518677,1.1908788681030273,1.5603665113449097,1.3850136995315552
18089.332205223523,1.168696641921997,1.1920123100280762,1.5606902837753296,1.3843660354614258
18089.33420528585,1.166106104850769,1.1928218603134155,1.5605283975601196,1.3838802576065063
18089.336205348176,1.1667537689208984,1.1926599740982056,1.5602046251296997,1.3842041492462158
18089.338205410502,1.1667537689208984,1.1928218603134155,1.5603665113449097,1.3850136995315552
18089.34020547283,1.166267991065979,1.1926599740982056,1.5602046251296997,1.385499358177185
18089.342205535155,1.166429877281189,1.1920123100280762,1.5592330694198608,1.3866328001022339
18089.34420559748,1.1675633192062378,1.1920123100280762,1.558909296989441,1.3871185779571533
18089.346205659807,1.1677252054214478,1.1916884183883667,1.558747410774231,1.386470913887024
18089.348205722134,1.1669156551361084,1.1926599740982056,1.5593950748443604,1.386470913887024
18089.35020578446,1.1674014329910278,1.1924980878829956,1.5590711832046509,1.386470913887024
18089.352205846786,1.1674014329910278,1.1929837465286255,1.5595569610595703,1.385499358177185
18089.354205909112,1.166267991065979,1.1926599740982056,1.5592330694198608,1.3848518133163452
18089.35620597144,1.1667537689208984,1.1918504238128662,1.558747410774231,1.3848518133163452
18089.358206033765,1.1669156551361084,1.1921741962432861,1.5584235191345215,1.3851755857467651
18089.36020609609,1.166429877281189,1.1920123100280762,1.5592330694198608,1.385337471961975
18089.362206158417,1.166591763496399,1.1926599740982056,1.5590711832046509,1.3859851360321045
18089.364206220744,1.168696641921997,1.1921741962432861,1.5593950748443604,1.3858232498168945
18089.36620628307,1.168534755706787,1.1913646459579468,1.5595569610595703,1.385499358177185
18089.368206345393,1.1688586473464966,1.1926599740982056,1.5600426197052002,1.3859851360321045
18089.37020640772,1.168534755706787,1.1928218603134155,1.5605283975601196,1.3867946863174438
18089.372206470045,1.168534755706787,1.1929837465286255,1.5600426197052002,1.3856613636016846
18089.37420653237,1.1677252054214478,1.1937932968139648,1.5602046251296997,1.3866328001022339
18089.376206594698,1.1675633192062378,1.193307638168335,1.5614999532699585,1.3867946863174438
18089.378206657024,1.1680489778518677,1.1929837465286255,1.5618237257003784,1.3869566917419434
18089.38020671935,1.1690205335617065,1.193307638168335,1.5619856119155884,1.3866328001022339
18089.382206781676,1.169506311416626,1.192336082458496,1.5614999532699585,1.3877662420272827
18089.384206844003,1.1708015203475952,1.192336082458496,1.5618237257003784,1.3867946863174438
18089.38620690633,1.1714491844177246,1.1926599740982056,1.562147617340088,1.3880900144577026
18089.388206968655,1.1716111898422241,1.193307638168335,1.5619856119155884,1.3871185779571533
18089.39020703098,1.1714491844177246,1.1939553022384644,1.5626332759857178,1.3872804641723633
18089.392207093308,1.1714491844177246,1.1942790746688843,1.5624713897705078,1.3869566917419434
18089.394207155634,1.1712872982025146,1.1939553022384644,1.5629571676254272,1.3861470222473145
18089.39620721796,1.1712872982025146,1.1942790746688843,1.5626332759857178,1.386470913887024
18089.398207280286,1.1716111898422241,1.1946029663085938,1.5631190538406372,1.3861470222473145
18089.400207342613,1.1706396341323853,1.1942790746688843,1.5637667179107666,1.3861470222473145
18089.40220740494,1.169506311416626,1.193469524383545,1.5626332759857178,1.3867946863174438
18089.404207467265,1.1704777479171753,1.193307638168335,1.562147617340088,1.3872804641723633
18089.406207529588,1.1704777479171753,1.1931456327438354,1.562147617340088,1.3879281282424927
18089.408207591914,1.169830083847046,1.1936314105987549,1.5629571676254272,1.3872804641723633
18089.41020765424,1.1703158617019653,1.1936314105987549,1.5624713897705078,1.3874423503875732
18089.412207716567,1.1704777479171753,1.1936314105987549,1.5623095035552979,1.3861470222473145
18089.414207778893,1.1683728694915771,1.1941171884536743,1.5616618394851685,1.3859851360321045
18089.41620784122,1.168534755706787,1.193307638168335,1.561337947845459,1.3867946863174438
18089.418207903545,1.169830083847046,1.1931456327438354,1.560852289199829,1.3880900144577026
18089.42020796587,1.1688586473464966,1.193469524383545,1.560852289199829,1.3876042366027832
18089.422208028198,1.1691824197769165,1.1941171884536743,1.5603665113449097,1.386309027671814
18089.424208090524,1.1703158617019653,1.1939553022384644,1.5598807334899902,1.3869566917419434
18089.42620815285,1.1691824197769165,1.193469524383545,1.5595569610595703,1.3871185779571533
18089.428208215177,1.1690205335617065,1.193307638168335,1.5593950748443604,1.3866328001022339
18089.430208277503,1.1691824197769165,1.1931456327438354,1.5602046251296997,1.3876042366027832
18089.43220833983,1.1690205335617065,1.193307638168335,1.561014175415039,1.3872804641723633
18089.434208402155,1.1682109832763672,1.1931456327438354,1.5605283975601196,1.3876042366027832
18089.43620846448,1.1680489778518677,1.193307638168335,1.5605283975601196,1.3871185779571533
18089.438208526808,1.1675633192062378,1.193469524383545,1.5602046251296997,1.3874423503875732
18089.440208589134,1.1672394275665283,1.1936314105987549,1.5595569610595703,1.3872804641723633
18089.44220865146,1.1674014329910278,1.1928218603134155,1.5598807334899902,1.3872804641723633
18089.444208713787,1.1688586473464966,1.1931456327438354,1.5592330694198608,1.3874423503875732
18089.44620877611,1.1690205335617065,1.193307638168335,1.5590711832046509,1.3880900144577026
18089.448208838436,1.1690205335617065,1.1926599740982056,1.5590711832046509,1.388737678527832
18089.450208900762,1.1682109832763672,1.192336082458496,1.5592330694198608,1.388413906097412
18089.45220896309,1.1674014329910278,1.1924980878829956,1.5590711832046509,1.3879281282424927
18089.454209025414,1.1659440994262695,1.1926599740982056,1.5602046251296997,1.3877662420272827
18089.45620908774,1.166591763496399,1.1924980878829956,1.5600426197052002,1.3879281282424927
18089.458209150067,1.1677252054214478,1.1931456327438354,1.5597188472747803,1.388413906097412
18089.460209212393,1.1677252054214478,1.1929837465286255,1.558909296989441,1.3877662420272827
18089.46220927472,1.1675633192062378,1.1931456327438354,1.558747410774231,1.3879281282424927
18089.464209337046,1.1680489778518677,1.1937932968139648,1.5593950748443604,1.3876042366027832
18089.466209399372,1.1688586473464966,1.1926599740982056,1.5592330694198608,1.3874423503875732
18089.4682094617,1.169506311416626,1.1920123100280762,1.5593950748443604,1.3876042366027832
18089.470209524025,1.169668197631836,1.1915265321731567,1.5592330694198608,1.3876042366027832
18089.47220958635,1.1688586473464966,1.1920123100280762,1.5595569610595703,1.3880900144577026
18089.474209648677,1.1678870916366577,1.1920123100280762,1.5598807334899902,1.388413906097412
18089.476209711003,1.1677252054214478,1.1920123100280762,1.5600426197052002,1.3880900144577026
18089.47820977333,1.1683728694915771,1.193307638168335,1.5600426197052002,1.3882519006729126
18089.480209835656,1.1682109832763672,1.1936314105987549,1.5602046251296997,1.3874423503875732
18089.482209897982,1.1690205335617065,1.1926599740982056,1.5597188472747803,1.388413906097412
18089.48420996031,1.1704777479171753,1.193469524383545,1.5597188472747803,1.388737678527832
18089.48621002263,1.169668197631836,1.1937932968139648,1.560852289199829,1.3877662420272827
18089.488210084957,1.1683728694915771,1.1942790746688843,1.5606902837753296,1.3876042366027832
18089.490210147284,1.169668197631836,1.1939553022384644,1.560852289199829,1.3882519006729126
18089.49221020961,1.169830083847046,1.1939553022384644,1.561014175415039,1.3876042366027832
18089.494210271936,1.168696641921997,1.1941171884536743,1.5614999532699585,1.3872804641723633
18089.496210334262,1.1691824197769165,1.1937932968139648,1.561337947845459,1.3877662420272827
18089.49821039659,1.1693443059921265,1.1939553022384644,1.5618237257003784,1.3882519006729126
18089.500210458915,1.168696641921997,1.193469524383545,1.5616618394851685,1.3874423503875732
18089.50221052124,1.168696641921997,1.1931456327438354,1.5602046251296997,1.388575792312622
18089.504210583567,1.1706396341323853,1.1929837465286255,1.5598807334899902,1.388899564743042
18089.506210645894,1.1709635257720947,1.193469524383545,1.560852289199829,1.388575792312622
18089.50821070822,1.1703158617019653,1.1937932968139648,1.560852289199829,1.3880900144577026
18089.510210770546,1.1703158617019653,1.193469524383545,1.5605283975601196,1.388413906097412
18089.512210832872,1.1709635257720947,1.1936314105987549,1.5605283975601196,1.388413906097412
18089.5142108952,1.169830083847046,1.1931456327438354,1.560852289199829,1.388737678527832
18089.516210957525,1.169830083847046,1.1928218603134155,1.5598807334899902,1.3890615701675415
18089.51821101985,1.169830083847046,1.1929837465286255,1.5593950748443604,1.388575792312622
18089.520211082177,1.1690205335617065,1.193469524383545,1.5600426197052002,1.3876042366027832
18089.522211144504,1.1683728694915771,1.1931456327438354,1.5600426197052002,1.3876042366027832
18089.52421120683,1.1699919700622559,1.1928218603134155,1.561176061630249,1.388575792312622
18089.526211269153,1.1693443059921265,1.1941171884536743,1.5597188472747803,1.3890615701675415
18089.52821133148,1.169668197631836,1.1942790746688843,1.5590711832046509,1.3879281282424927
18089.530211393805,1.1703158617019653,1.1936314105987549,1.5602046251296997,1.3880900144577026
18089.53221145613,1.1690205335617065,1.193307638168335,1.5600426197052002,1.3880900144577026
18089.534211518458,1.1678870916366577,1.1926599740982056,1.5595569610595703,1.3882519006729126
18089.536211580784,1.1680489778518677,1.192336082458496,1.5595569610595703,1.3880900144577026
18089.53821164311,1.1675633192062378,1.1924980878829956,1.5595569610595703,1.388575792312622
18089.540211705436,1.1672394275665283,1.1926599740982056,1.5597188472747803,1.3872804641723633
18089.542211767763,1.1674014329910278,1.1926599740982056,1.5600426197052002,1.388575792312622
18089.54421183009,1.1690205335617065,1.1929837465286255,1.5602046251296997,1.388899564743042
18089.546211892415,1.1693443059921265,1.1924980878829956,1.5597188472747803,1.3879281282424927
18089.54821195474,1.1693443059921265,1.1928218603134155,1.5590711832046509,1.3871185779571533
18089.550212017068,1.168696641921997,1.1921741962432861,1.5590711832046509,1.3867946863174438
18089.552212079394,1.1690205335617065,1.1926599740982056,1.5597188472747803,1.3869566917419434
18089.55421214172,1.1680489778518677,1.1926599740982056,1.558747410774231,1.3879281282424927
18089.556212204046,1.1682109832763672,1.193469524383545,1.5592330694198608,1.3880900144577026
18089.558212266373,1.168534755706787,1.1928218603134155,1.5605283975601196,1.3880900144577026
18089.5602123287,1.1678870916366577,1.1929837465286255,1.5600426197052002,1.3872804641723633
18089.562212391025,1.1675633192062378,1.192336082458496,1.5597188472747803,1.3882519006729126
18089.564212453348,1.168696641921997,1.1928218603134155,1.5598807334899902,1.3882519006729126
18089.566212515674,1.1693443059921265,1.192336082458496,1.5605283975601196,1.3879281282424927
18089.568212578,1.1691824197769165,1.1926599740982056,1.5602046251296997,1.3880900144577026
18089.570212640327,1.1693443059921265,1.1929837465286255,1.5592330694198608,1.388899564743042
18089.572212702653,1.1691824197769165,1.1939553022384644,1.5597188472747803,1.3882519006729126
18089.57421276498,1.1682109832763672,1.1937932968139648,1.5606902837753296,1.3877662420272827
18089.576212827305,1.1688586473464966,1.193307638168335,1.5603665113449097,1.3867946863174438
18089.57821288963,1.1688586473464966,1.1939553022384644,1.5605283975601196,1.3861470222473145
18089.580212951958,1.1672394275665283,1.1937932968139648,1.5606902837753296,1.3861470222473145
18089.582213014284,1.1680489778518677,1.1939553022384644,1.5598807334899902,1.3869566917419434
18089.58421307661,1.169830083847046,1.1931456327438354,1.5602046251296997,1.3882519006729126
18089.586213138937,1.168696641921997,1.1924980878829956,1.5595569610595703,1.3877662420272827
18089.588213201263,1.1690205335617065,1.1924980878829956,1.558909296989441,1.3876042366027832
18089.59021326359,1.1699919700622559,1.1929837465286255,1.5590711832046509,1.3879281282424927
18089.592213325916,1.1699919700622559,1.192336082458496,1.5603665113449097,1.3871185779571533
18089.59421338824,1.1682109832763672,1.192336082458496,1.5598807334899902,1.3876042366027832
18089.596213450568,1.1683728694915771,1.1920123100280762,1.5593950748443604,1.3874423503875732
18089.598213512894,1.168696641921997,1.1924980878829956,1.5592330694198608,1.3859851360321045
18089.60021357522,1.168696641921997,1.1920123100280762,1.5593950748443604,1.3866328001022339
18089.602213637547,1.1678870916366577,1.1926599740982056,1.5593950748443604,1.3882519006729126
18089.60421369987,1.1690205335617065,1.1921741962432861,1.560852289199829,1.3882519006729126
18089.606213762196,1.169506311416626,1.1920123100280762,1.5598807334899902,1.3879281282424927
18089.608213824522,1.169506311416626,1.1920123100280762,1.5595569610595703,1.3877662420272827
18089.61021388685,1.1703158617019653,1.192336082458496,1.5597188472747803,1.3877662420272827
18089.612213949174,1.1701538562774658,1.192336082458496,1.5598807334899902,1.3871185779571533
18089.6142140115,1.168696641921997,1.1926599740982056,1.5600426197052002,1.3871185779571533
18089.616214073827,1.1677252054214478,1.1931456327438354,1.5605283975601196,1.3877662420272827
18089.618214136153,1.1688586473464966,1.1931456327438354,1.5600426197052002,1.3877662420272827
18089.62021419848,1.1690205335617065,1.1929837465286255,1.5598807334899902,1.3874423503875732
18089.622214260806,1.168534755706787,1.193307638168335,1.5590711832046509,1.3877662420272827
18089.624214323132,1.1693443059921265,1.1936314105987549,1.558909296989441,1.388413906097412
18089.62621438546,1.1701538562774658,1.1931456327438354,1.5593950748443604,1.3877662420272827
18089.628214447785,1.1706396341323853,1.1921741962432861,1.5597188472747803,1.3879281282424927
18089.63021451011,1.1706396341323853,1.1915265321731567,1.558909296989441,1.388737678527832
18089.632214572437,1.1703158617019653,1.1918504238128662,1.5592330694198608,1.3880900144577026
18089.634214634763,1.168534755706787,1.1920123100280762,1.5593950748443604,1.3867946863174438
18089.63621469709,1.1678870916366577,1.192336082458496,1.5595569610595703,1.3869566917419434
18089.638214759416,1.168696641921997,1.192336082458496,1.5595569610595703,1.3871185779571533
18089.640214821742,1.1672394275665283,1.1928218603134155,1.5600426197052002,1.3871185779571533
18089.64221488407,1.1678870916366577,1.193307638168335,1.5597188472747803,1.3871185779571533
18089.64421494639,1.169668197631836,1.193469524383545,1.5597188472747803,1.3880900144577026
18089.646215008717,1.1701538562774658,1.1928218603134155,1.5602046251296997,1.388737678527832
18089.648215071044,1.1699919700622559,1.1929837465286255,1.5597188472747803,1.388737678527832
18089.65021513337,1.1706396341323853,1.1926599740982056,1.5593950748443604,1.3879281282424927
18089.652215195696,1.1709635257720947,1.192336082458496,1.5597188472747803,1.3871185779571533
18089.654215258022,1.169506311416626,1.192336082458496,1.5598807334899902,1.3882519006729126
18089.65621532035,1.169830083847046,1.1928218603134155,1.5598807334899902,1.388899564743042
18089.658215382675,1.169830083847046,1.1928218603134155,1.5600426197052002,1.3890615701675415
18089.660215445,1.1691824197769165,1.1924980878829956,1.5600426197052002,1.388575792312622
18089.662215507327,1.1688586473464966,1.1918504238128662,1.5600426197052002,1.388899564743042
18089.664215569654,1.1709635257720947,1.192336082458496,1.5598807334899902,1.3879281282424927
18089.66621563198,1.1711254119873047,1.1931456327438354,1.5592330694198608,1.3876042366027832
18089.668215694306,1.1708015203475952,1.1928218603134155,1.5600426197052002,1.3874423503875732
18089.670215756632,1.1709635257720947,1.1924980878829956,1.5606902837753296,1.3880900144577026
18089.67221581896,1.171934962272644,1.1924980878829956,1.5614999532699585,1.388575792312622
18089.674215881285,1.1706396341323853,1.1924980878829956,1.561014175415039,1.3876042366027832
18089.67621594361,1.1712872982025146,1.192336082458496,1.560852289199829,1.3890615701675415
18089.678216005937,1.1714491844177246,1.192336082458496,1.561176061630249,1.388413906097412
18089.680216068264,1.1711254119873047,1.1921741962432861,1.562147617340088,1.3869566917419434
18089.68221613059,1.1708015203475952,1.1920123100280762,1.561176061630249,1.3876042366027832
18089.684216192913,1.1712872982025146,1.192336082458496,1.5614999532699585,1.3879281282424927
18089.68621625524,1.1709635257720947,1.1931456327438354,1.561014175415039,1.3874423503875732
18089.688216317565,1.1714491844177246,1.1924980878829956,1.5606902837753296,1.3872804641723633
18089.69021637989,1.1729063987731934,1.1926599740982056,1.5598807334899902,1.3880900144577026
18089.692216442218,1.1727445125579834,1.1926599740982056,1.5600426197052002,1.3879281282424927
18089.694216504544,1.1706396341323853,1.1928218603134155,1.5598807334899902,1.3872804641723633
18089.69621656687,1.169506311416626,1.1918504238128662,1.5600426197052002,1.3876042366027832
18089.698216629196,1.1691824197769165,1.1921741962432861,1.5597188472747803,1.3876042366027832
18089.700216691523,1.1690205335617065,1.1915265321731567,1.5598807334899902,1.3869566917419434
18089.70221675385,1.169830083847046,1.1916884183883667,1.5600426197052002,1.3872804641723633
18089.704216816175,1.1701538562774658,1.1918504238128662,1.5600426197052002,1.3876042366027832
18089.7062168785,1.1706396341323853,1.192336082458496,1.5600426197052002,1.3877662420272827
18089.708216940828,1.1712872982025146,1.192336082458496,1.5598807334899902,1.3874423503875732
18089.710217003154,1.1716111898422241,1.1921741962432861,1.5593950748443604,1.3871185779571533
18089.71221706548,1.1716111898422241,1.1910407543182373,1.5603665113449097,1.3874423503875732
18089.714217127806,1.169830083847046,1.1916884183883667,1.5602046251296997,1.3861470222473145
18089.716217190133,1.169830083847046,1.1915265321731567,1.5602046251296997,1.3867946863174438
18089.71821725246,1.169668197631836,1.1918504238128662,1.5592330694198608,1.3877662420272827
18089.720217314785,1.169668197631836,1.1916884183883667,1.5595569610595703,1.3872804641723633
18089.72221737711,1.1691824197769165,1.1920123100280762,1.5593950748443604,1.3871185779571533
18089.724217439434,1.1706396341323853,1.1928218603134155,1.5598807334899902,1.3866328001022339
18089.72621750176,1.1711254119873047,1.1931456327438354,1.5590711832046509,1.3874423503875732
18089.728217564087,1.1708015203475952,1.192336082458496,1.5592330694198608,1.3871185779571533
18089.730217626413,1.1708015203475952,1.1918504238128662,1.5592330694198608,1.3880900144577026
18089.73221768874,1.1711254119873047,1.1918504238128662,1.5600426197052002,1.3879281282424927
18089.734217751065,1.1704777479171753,1.1926599740982056,1.5602046251296997,1.3876042366027832
18089.73621781339,1.1706396341323853,1.192336082458496,1.5606902837753296,1.3872804641723633
18089.738217875718,1.169830083847046,1.193469524383545,1.561014175415039,1.3872804641723633
18089.740217938044,1.169506311416626,1.1931456327438354,1.561014175415039,1.3871185779571533
18089.74221800037,1.1703158617019653,1.1928218603134155,1.5600426197052002,1.3880900144577026
18089.744218062697,1.1722588539123535,1.1931456327438354,1.5600426197052002,1.388413906097412
18089.746218125023,1.1729063987731934,1.1939553022384644,1.5605283975601196,1.3882519006729126
18089.74821818735,1.1732302904129028,1.193307638168335,1.5603665113449097,1.3890615701675415
18089.750218249676,1.1730684041976929,1.1936314105987549,1.5606902837753296,1.388899564743042
18089.752218312,1.1724207401275635,1.193307638168335,1.5605283975601196,1.3892234563827515
18089.754218374328,1.1704777479171753,1.1928218603134155,1.5598807334899902,1.388575792312622
18089.756218436654,1.1714491844177246,1.1928218603134155,1.5606902837753296,1.3880900144577026
18089.75821849898,1.171773076057434,1.193469524383545,1.561014175415039,1.3882519006729126
18089.760218561307,1.171773076057434,1.1928218603134155,1.561014175415039,1.3872804641723633
18089.762218623633,1.1711254119873047,1.1921741962432861,1.561176061630249,1.3871185779571533
18089.764218685956,1.1729063987731934,1.1928218603134155,1.561176061630249,1.3879281282424927
18089.766218748282,1.1727445125579834,1.1921741962432861,1.561337947845459,1.3890615701675415
18089.76821881061,1.172096848487854,1.192336082458496,1.5603665113449097,1.388899564743042
18089.770218872934,1.1722588539123535,1.1924980878829956,1.5614999532699585,1.388575792312622
18089.77221893526,1.1729063987731934,1.1924980878829956,1.5614999532699585,1.3880900144577026
18089.774218997587,1.1711254119873047,1.1926599740982056,1.5619856119155884,1.3874423503875732
18089.776219059913,1.171934962272644,1.1926599740982056,1.5619856119155884,1.3872804641723633
18089.77821912224,1.1724207401275635,1.192336082458496,1.5616618394851685,1.3874423503875732
18089.780219184566,1.171934962272644,1.1918504238128662,1.5623095035552979,1.3872804641723633
18089.782219246892,1.1712872982025146,1.1916884183883667,1.5624713897705078,1.3879281282424927
18089.78421930922,1.1732302904129028,1.1915265321731567,1.5629571676254272,1.388737678527832
18089.786219371545,1.1733921766281128,1.1920123100280762,1.5614999532699585,1.3892234563827515
18089.78821943387,1.1730684041976929,1.192336082458496,1.5616618394851685,1.388899564743042
18089.790219496197,1.1742017269134521,1.1924980878829956,1.5616618394851685,1.3895472288131714
18089.792219558523,1.1748493909835815,1.1916884183883667,1.5624713897705078,1.388575792312622
18089.79421962085,1.1724207401275635,1.1916884183883667,1.5624713897705078,1.3876042366027832
18089.796219683176,1.172096848487854,1.1920123100280762,1.562147617340088,1.3871185779571533
18089.798219745502,1.172096848487854,1.1916884183883667,1.5614999532699585,1.3871185779571533
18089.80021980783,1.1716111898422241,1.1918504238128662,1.5614999532699585,1.3869566917419434
18089.80221987015,1.1709635257720947,1.1921741962432861,1.561337947845459,1.3879281282424927
18089.804219932477,1.172096848487854,1.1918504238128662,1.560852289199829,1.3880900144577026
18089.806219994804,1.1711254119873047,1.1912027597427368,1.5606902837753296,1.3871185779571533
18089.80822005713,1.1712872982025146,1.1910407543182373,1.5598807334899902,1.3866328001022339
18089.810220119456,1.1716111898422241,1.1905550956726074,1.558747410774231,1.3869566917419434
18089.812220181782,1.1716111898422241,1.1905550956726074,1.5600426197052002,1.3867946863174438
18089.81422024411,1.1701538562774658,1.1908788681030273,1.5595569610595703,1.3856613636016846
18089.816220306435,1.1708015203475952,1.1918504238128662,1.5585854053497314,1.3859851360321045
18089.81822036876,1.1703158617019653,1.1915265321731567,1.5584235191345215,1.3861470222473145
18089.820220431087,1.1688586473464966,1.1915265321731567,1.5582616329193115,1.385499358177185
18089.822220493414,1.1678870916366577,1.1910407543182373,1.5582616329193115,1.385499358177185
18089.82422055574,1.1688586473464966,1.190393090248108,1.5585854053497314,1.3851755857467651
18089.826220618066,1.169506311416626,1.1908788681030273,1.5576139688491821,1.385499358177185
18089.828220680392,1.169506311416626,1.1915265321731567,1.5576139688491821,1.3858232498168945
18089.83022074272,1.1701538562774658,1.1915265321731567,1.557937741279602,1.3861470222473145
18089.832220805045,1.1701538562774658,1.1913646459579468,1.557937741279602,1.385499358177185
18089.83422086737,1.168534755706787,1.1908788681030273,1.5576139688491821,1.385337471961975
18089.836220929697,1.1677252054214478,1.1908788681030273,1.5576139688491821,1.3851755857467651
18089.838220992024,1.1672394275665283,1.1910407543182373,1.5574520826339722,1.3848518133163452
18089.84022105435,1.1670775413513184,1.1913646459579468,1.5568044185638428,1.3845279216766357
18089.842221116673,1.166429877281189,1.1908788681030273,1.5569663047790527,1.3856613636016846
18089.844221179,1.1678870916366577,1.190069317817688,1.5572901964187622,1.3859851360321045
18089.846221241325,1.1682109832763672,1.1912027597427368,1.5564805269241333,1.386309027671814
18089.84822130365,1.1682109832763672,1.1905550956726074,1.5569663047790527,1.385499358177185
18089.850221365978,1.1691824197769165,1.1905550956726074,1.5585854053497314,1.3856613636016846
18089.852221428304,1.1699919700622559,1.1910407543182373,1.558747410774231,1.3866328001022339
18089.85422149063,1.1690205335617065,1.1905550956726074,1.5576139688491821,1.386309027671814
18089.856221552956,1.168534755706787,1.190231204032898,1.5580997467041016,1.3859851360321045
18089.858221615283,1.1691824197769165,1.190393090248108,1.558909296989441,1.386309027671814
18089.86022167761,1.1688586473464966,1.1907169818878174,1.557937741279602,1.386309027671814
18089.862221739935,1.168534755706787,1.1907169818878174,1.557775855064392,1.3866328001022339
18089.86422180226,1.1704777479171753,1.1910407543182373,1.5584235191345215,1.386309027671814
18089.866221864588,1.1708015203475952,1.1907169818878174,1.558909296989441,1.3861470222473145
18089.868221926914,1.1708015203475952,1.190069317817688,1.558747410774231,1.3861470222473145
18089.87022198924,1.1711254119873047,1.1907169818878174,1.5590711832046509,1.386309027671814
18089.872222051566,1.1714491844177246,1.190393090248108,1.5593950748443604,1.3861470222473145
18089.874222113893,1.1703158617019653,1.189745545387268,1.5598807334899902,1.3856613636016846
18089.87622217622,1.1708015203475952,1.189745545387268,1.561014175415039,1.3861470222473145
18089.878222238545,1.171773076057434,1.189907431602478,1.560852289199829,1.3861470222473145
18089.88022230087,1.1716111898422241,1.1905550956726074,1.561014175415039,1.3856613636016846
18089.882222363194,1.1708015203475952,1.1905550956726074,1.5614999532699585,1.3861470222473145
18089.88422242552,1.1722588539123535,1.1912027597427368,1.5606902837753296,1.3861470222473145
18089.886222487847,1.1730684041976929,1.190231204032898,1.5616618394851685,1.3858232498168945
18089.888222550173,1.1724207401275635,1.190069317817688,1.562147617340088,1.385337471961975
18089.8902226125,1.1737160682678223,1.1910407543182373,1.5619856119155884,1.3861470222473145
18089.892222674825,1.1742017269134521,1.1920123100280762,1.561337947845459,1.386470913887024
18089.89422273715,1.1716111898422241,1.1915265321731567,1.5619856119155884,1.3869566917419434
18089.896222799478,1.171934962272644,1.1907169818878174,1.5616618394851685,1.3869566917419434
18089.898222861804,1.1730684041976929,1.1913646459579468,1.562147617340088,1.3866328001022339
18089.90022292413,1.1732302904129028,1.1915265321731567,1.5627951622009277,1.386309027671814
18089.902222986457,1.1732302904129028,1.1912027597427368,1.5629571676254272,1.3876042366027832
18089.904223048783,1.1742017269134521,1.1910407543182373,1.5631190538406372,1.3877662420272827
18089.90622311111,1.1743637323379517,1.1915265321731567,1.5636048316955566,1.3879281282424927
18089.908223173436,1.1735540628433228,1.1921741962432861,1.5631190538406372,1.3877662420272827
18089.91022323576,1.1737160682678223,1.192336082458496,1.5627951622009277,1.3879281282424927
18089.912223298088,1.1750112771987915,1.1916884183883667,1.5639286041259766,1.3874423503875732
18089.914223360414,1.1735540628433228,1.1924980878829956,1.5637667179107666,1.3869566917419434
18089.91622342274,1.1732302904129028,1.1931456327438354,1.5632809400558472,1.3872804641723633
18089.918223485067,1.1724207401275635,1.1912027597427368,1.5629571676254272,1.3877662420272827
18089.920223547393,1.171773076057434,1.1912027597427368,1.5629571676254272,1.3872804641723633
18089.922223609716,1.172096848487854,1.1916884183883667,1.5624713897705078,1.3876042366027832
18089.924223672042,1.1737160682678223,1.1916884183883667,1.562147617340088,1.3882519006729126
18089.92622373437,1.1740398406982422,1.1924980878829956,1.5624713897705078,1.3882519006729126
18089.928223796695,1.1738779544830322,1.1924980878829956,1.5626332759857178,1.3871185779571533
18089.93022385902,1.1746875047683716,1.1926599740982056,1.5626332759857178,1.3874423503875732
18089.932223921347,1.1738779544830322,1.1920123100280762,1.5619856119155884,1.3869566917419434
18089.934223983673,1.1724207401275635,1.1921741962432861,1.561337947845459,1.3866328001022339
18089.936224046,1.1729063987731934,1.1924980878829956,1.562147617340088,1.3872804641723633
18089.938224108326,1.1722588539123535,1.1920123100280762,1.5627951622009277,1.3877662420272827
18089.940224170652,1.171934962272644,1.1916884183883667,1.5623095035552979,1.3880900144577026
18089.94222423298,1.1714491844177246,1.1916884183883667,1.560852289199829,1.3877662420272827
18089.944224295305,1.1732302904129028,1.1915265321731567,1.5618237257003784,1.3880900144577026
18089.94622435763,1.1727445125579834,1.1920123100280762,1.5624713897705078,1.3876042366027832
18089.948224419957,1.1722588539123535,1.1928218603134155,1.5624713897705078,1.3877662420272827
18089.950224482283,1.1730684041976929,1.1929837465286255,1.5624713897705078,1.3877662420272827
18089.95222454461,1.1733921766281128,1.1928218603134155,1.5619856119155884,1.3871185779571533
18089.954224606936,1.1722588539123535,1.1926599740982056,1.5614999532699585,1.3859851360321045
18089.956224669262,1.1730684041976929,1.1926599740982056,1.5619856119155884,1.3867946863174438
18089.95822473159,1.1733921766281128,1.1918504238128662,1.5626332759857178,1.3872804641723633
18089.96022479391,1.172096848487854,1.1905550956726074,1.5629571676254272,1.3874423503875732
18089.962224856237,1.1711254119873047,1.1910407543182373,1.5624713897705078,1.3882519006729126
18089.964224918564,1.1732302904129028,1.1908788681030273,1.561176061630249,1.3880900144577026
18089.96622498089,1.1729063987731934,1.1916884183883667,1.561014175415039,1.3867946863174438
18089.968225043216,1.1724207401275635,1.1920123100280762,1.5606902837753296,1.386470913887024
18089.970225105542,1.171934962272644,1.1915265321731567,1.5605283975601196,1.3871185779571533
18089.97222516787,1.1714491844177246,1.1916884183883667,1.5602046251296997,1.3867946863174438
18089.974225230195,1.1699919700622559,1.1920123100280762,1.5600426197052002,1.3872804641723633
18089.97622529252,1.1714491844177246,1.192336082458496,1.561176061630249,1.3874423503875732
18089.978225354847,1.1716111898422241,1.1913646459579468,1.561176061630249,1.3869566917419434
18089.980225417174,1.1712872982025146,1.1916884183883667,1.5605283975601196,1.3866328001022339
18089.9822254795,1.1699919700622559,1.1913646459579468,1.5598807334899902,1.386309027671814
18089.984225541826,1.171934962272644,1.1910407543182373,1.5598807334899902,1.386309027671814
18089.986225604152,1.1716111898422241,1.1913646459579468,1.5600426197052002,1.386470913887024
18089.98822566648,1.1714491844177246,1.1910407543182373,1.5602046251296997,1.3866328001022339
18089.990225728805,1.171773076057434,1.1907169818878174,1.561014175415039,1.3867946863174438
18089.99222579113,1.172096848487854,1.1905550956726074,1.561176061630249,1.3859851360321045
18089.994225853457,1.1716111898422241,1.1908788681030273,1.560852289199829,1.386470913887024
18089.996225915784,1.171934962272644,1.1908788681030273,1.5603665113449097,1.3872804641723633
18089.99822597811,1.1712872982025146,1.1912027597427368,1.5605283975601196,1.3874423503875732
18090.000226040433,1.1712872982025146,1.1915265321731567,1.560852289199829,1.3861470222473145
18090.00222610276,1.1709635257720947,1.1920123100280762,1.561337947845459,1.386309027671814
18090.004226165085,1.1722588539123535,1.1921741962432861,1.561337947845459,1.3874423503875732
18090.00622622741,1.1725826263427734,1.1916884183883667,1.561014175415039,1.3876042366027832
18090.008226289738,1.1716111898422241,1.1913646459579468,1.5598807334899902,1.3869566917419434
18090.010226352064,1.171934962272644,1.1913646459579468,1.5606902837753296,1.3876042366027832
18090.01222641439,1.1725826263427734,1.1912027597427368,1.561014175415039,1.3877662420272827
18090.014226476716,1.1714491844177246,1.1912027597427368,1.5603665113449097,1.3866328001022339
18090.016226539043,1.1716111898422241,1.1921741962432861,1.5597188472747803,1.385499358177185
18090.01822660137,1.1708015203475952,1.1916884183883667,1.5606902837753296,1.3858232498168945
18090.020226663695,1.1708015203475952,1.1916884183883667,1.561337947845459,1.3859851360321045
18090.02222672602,1.1709635257720947,1.1912027597427368,1.5600426197052002,1.3876042366027832
18090.024226788348,1.1725826263427734,1.1910407543182373,1.5602046251296997,1.3872804641723633
18090.026226850674,1.1722588539123535,1.1910407543182373,1.5603665113449097,1.3872804641723633
18090.028226913,1.171934962272644,1.1910407543182373,1.5598807334899902,1.3877662420272827
18090.030226975327,1.1730684041976929,1.1913646459579468,1.5592330694198608,1.3879281282424927
18090.032227037653,1.1733921766281128,1.1920123100280762,1.5585854053497314,1.3872804641723633
18090.03422709998,1.1722588539123535,1.1921741962432861,1.558747410774231,1.3877662420272827
18090.036227162305,1.1722588539123535,1.1915265321731567,1.558909296989441,1.3876042366027832
18090.03822722463,1.171773076057434,1.1913646459579468,1.5602046251296997,1.3871185779571533
18090.040227286954,1.171934962272644,1.1910407543182373,1.5598807334899902,1.3871185779571533
18090.04222734928,1.1712872982025146,1.1908788681030273,1.558909296989441,1.3871185779571533
18090.044227411607,1.1722588539123535,1.1915265321731567,1.558909296989441,1.3879281282424927
18090.046227473933,1.1729063987731934,1.1920123100280762,1.5590711832046509,1.3876042366027832
18090.04822753626,1.172096848487854,1.1912027597427368,1.5593950748443604,1.3879281282424927
18090.050227598585,1.1724207401275635,1.1907169818878174,1.5592330694198608,1.3876042366027832
18090.05222766091,1.1729063987731934,1.1908788681030273,1.558909296989441,1.3871185779571533
18090.054227723238,1.1711254119873047,1.1905550956726074,1.5590711832046509,1.3874423503875732
18090.056227785564,1.1709635257720947,1.1905550956726074,1.558747410774231,1.3867946863174438
18090.05822784789,1.1704777479171753,1.1910407543182373,1.5582616329193115,1.3866328001022339
18090.060227910217,1.1703158617019653,1.1912027597427368,1.5580997467041016,1.3866328001022339
18090.062227972543,1.1699919700622559,1.1910407543182373,1.5584235191345215,1.3869566917419434
18090.06422803487,1.1712872982025146,1.1912027597427368,1.558747410774231,1.3882519006729126
18090.066228097196,1.1712872982025146,1.1912027597427368,1.5580997467041016,1.3880900144577026
18090.068228159522,1.1716111898422241,1.1910407543182373,1.5576139688491821,1.3877662420272827
18090.070228221848,1.1725826263427734,1.1905550956726074,1.5569663047790527,1.3874423503875732
18090.072228284174,1.1725826263427734,1.1907169818878174,1.5574520826339722,1.3874423503875732
18090.0742283465,1.1708015203475952,1.1910407543182373,1.558909296989441,1.3871185779571533
18090.076228408827,1.1711254119873047,1.1907169818878174,1.557937741279602,1.3871185779571533
18090.078228471153,1.1716111898422241,1.1910407543182373,1.5564805269241333,1.3869566917419434
18090.080228533476,1.1712872982025146,1.190393090248108,1.5572901964187622,1.3872804641723633
18090.082228595802,1.1708015203475952,1.1905550956726074,1.5582616329193115,1.3876042366027832
18090.08422865813,1.1722588539123535,1.1905550956726074,1.5585854053497314,1.3872804641723633
18090.086228720455,1.1730684041976929,1.1905550956726074,1.5595569610595703,1.3880900144577026
18090.08822878278,1.1727445125579834,1.1907169818878174,1.5592330694198608,1.3880900144577026
18090.090228845107,1.1725826263427734,1.1907169818878174,1.5593950748443604,1.3877662420272827
18090.092228907433,1.1737160682678223,1.1908788681030273,1.558909296989441,1.3879281282424927
18090.09422896976,1.1724207401275635,1.1907169818878174,1.5598807334899902,1.3882519006729126
18090.096229032086,1.171773076057434,1.1916884183883667,1.5598807334899902,1.388737678527832
18090.098229094412,1.172096848487854,1.1908788681030273,1.5605283975601196,1.388575792312622
18090.10022915674,1.172096848487854,1.1913646459579468,1.5606902837753296,1.388899564743042
18090.102229219065,1.1714491844177246,1.1916884183883667,1.561176061630249,1.3890615701675415
18090.10422928139,1.1737160682678223,1.1907169818878174,1.560852289199829,1.3900330066680908
18090.106229343717,1.1742017269134521,1.1921741962432861,1.5605283975601196,1.389709234237671
18090.108229406043,1.1748493909835815,1.192336082458496,1.5606902837753296,1.3893853425979614
18090.11022946837,1.1748493909835815,1.192336082458496,1.560852289199829,1.3893853425979614
18090.112229530696,1.1737160682678223,1.192336082458496,1.5605283975601196,1.388575792312622
18090.114229593022,1.1730684041976929,1.1912027597427368,1.5602046251296997,1.3879281282424927
18090.11622965535,1.1733921766281128,1.1910407543182373,1.5605283975601196,1.3877662420272827
18090.11822971767,1.1737160682678223,1.1916884183883667,1.560852289199829,1.388575792312622
18090.120229779997,1.1738779544830322,1.1913646459579468,1.5606902837753296,1.388737678527832
18090.122229842324,1.1737160682678223,1.1913646459579468,1.5606902837753296,1.3879281282424927
18090.12422990465,1.175658941268921,1.1915265321731567,1.5606902837753296,1.3882519006729126
18090.126229966976,1.1748493909835815,1.1916884183883667,1.561014175415039,1.3879281282424927
18090.128230029302,1.1743637323379517,1.1916884183883667,1.560852289199829,1.388575792312622
18090.13023009163,1.1743637323379517,1.190231204032898,1.5603665113449097,1.3892234563827515
18090.132230153955,1.1746875047683716,1.1905550956726074,1.5605283975601196,1.388737678527832
18090.13423021628,1.1732302904129028,1.1913646459579468,1.5602046251296997,1.388413906097412
18090.136230278607,1.1733921766281128,1.1916884183883667,1.5603665113449097,1.3876042366027832
18090.138230340934,1.1732302904129028,1.1918504238128662,1.5595569610595703,1.3876042366027832
18090.14023040326,1.1742017269134521,1.1912027597427368,1.5597188472747803,1.3879281282424927
18090.142230465586,1.1737160682678223,1.190069317817688,1.5597188472747803,1.3880900144577026
18090.144230527912,1.1750112771987915,1.1907169818878174,1.5597188472747803,1.388737678527832
18090.14623059024,1.1742017269134521,1.1910407543182373,1.5595569610595703,1.388899564743042
18090.148230652565,1.1735540628433228,1.1907169818878174,1.5597188472747803,1.388575792312622
18090.15023071489,1.1740398406982422,1.1912027597427368,1.5597188472747803,1.388899564743042
18090.152230777217,1.1740398406982422,1.1918504238128662,1.5592330694198608,1.3882519006729126
18090.154230839544,1.172096848487854,1.1913646459579468,1.5592330694198608,1.3876042366027832
18090.15623090187,1.1714491844177246,1.1912027597427368,1.5593950748443604,1.3880900144577026
18090.158230964193,1.1712872982025146,1.1921741962432861,1.558747410774231,1.388413906097412
18090.16023102652,1.1716111898422241,1.192336082458496,1.5584235191345215,1.3874423503875732
18090.162231088845,1.1714491844177246,1.1905550956726074,1.5584235191345215,1.3874423503875732
18090.16423115117,1.1727445125579834,1.190393090248108,1.5590711832046509,1.3872804641723633
18090.166231213498,1.172096848487854,1.1910407543182373,1.558747410774231,1.3867946863174438
18090.168231275824,1.1725826263427734,1.1912027597427368,1.5584235191345215,1.3872804641723633
18090.17023133815,1.1730684041976929,1.1905550956726074,1.5582616329193115,1.3879281282424927
18090.172231400476,1.1730684041976929,1.190393090248108,1.558747410774231,1.3880900144577026
18090.174231462803,1.1709635257720947,1.1894216537475586,1.5580997467041016,1.3879281282424927
18090.17623152513,1.1716111898422241,1.190231204032898,1.5585854053497314,1.3874423503875732
18090.178231587455,1.171773076057434,1.1907169818878174,1.5582616329193115,1.3874423503875732
18090.18023164978,1.1709635257720947,1.190069317817688,1.558909296989441,1.3871185779571533
18090.182231712108,1.1708015203475952,1.189745545387268,1.558909296989441,1.3877662420272827
18090.184231774434,1.1724207401275635,1.190231204032898,1.5585854053497314,1.3879281282424927
18090.18623183676,1.1724207401275635,1.190231204032898,1.558747410774231,1.3871185779571533
18090.188231899087,1.1724207401275635,1.190393090248108,1.557937741279602,1.3874423503875732
18090.190231961413,1.171773076057434,1.190393090248108,1.5568044185638428,1.3876042366027832
18090.19223202374,1.1716111898422241,1.190231204032898,1.5574520826339722,1.3872804641723633
18090.194232086065,1.1701538562774658,1.190069317817688,1.5574520826339722,1.3869566917419434
18090.19623214839,1.1708015203475952,1.190231204032898,1.5576139688491821,1.3861470222473145
18090.198232210714,1.1714491844177246,1.190231204032898,1.5571281909942627,1.386470913887024
18090.20023227304,1.1716111898422241,1.189745545387268,1.5576139688491821,1.3867946863174438
18090.202232335367,1.1699919700622559,1.189745545387268,1.5585854053497314,1.3869566917419434
18090.204232397693,1.1712872982025146,1.1894216537475586,1.558747410774231,1.3871185779571533
18090.20623246002,1.1714491844177246,1.1890978813171387,1.558747410774231,1.3869566917419434
18090.208232522345,1.1714491844177246,1.190069317817688,1.5584235191345215,1.3872804641723633
18090.21023258467,1.1725826263427734,1.1905550956726074,1.5580997467041016,1.3876042366027832
18090.212232646998,1.1735540628433228,1.190393090248108,1.558747410774231,1.3874423503875732
18090.214232709324,1.1722588539123535,1.190069317817688,1.558909296989441,1.3874423503875732
18090.21623277165,1.172096848487854,1.1892597675323486,1.5585854053497314,1.3871185779571533
18090.218232833977,1.1714491844177246,1.1892597675323486,1.5585854053497314,1.3876042366027832
18090.220232896303,1.1714491844177246,1.1890978813171387,1.5585854053497314,1.3877662420272827
18090.22223295863,1.1712872982025146,1.1894216537475586,1.5582616329193115,1.3872804641723633
18090.224233020956,1.1733921766281128,1.1894216537475586,1.557775855064392,1.3879281282424927
18090.226233083282,1.1738779544830322,1.1890978813171387,1.5580997467041016,1.388413906097412
18090.228233145608,1.1725826263427734,1.1895835399627686,1.5590711832046509,1.3879281282424927
18090.230233207934,1.1735540628433228,1.190069317817688,1.5590711832046509,1.3879281282424927
18090.23223327026,1.1746875047683716,1.1910407543182373,1.558909296989441,1.3879281282424927
18090.234233332587,1.1725826263427734,1.1908788681030273,1.5593950748443604,1.3880900144577026
18090.236233394913,1.1727445125579834,1.190069317817688,1.5590711832046509,1.388575792312622
18090.238233457236,1.1732302904129028,1.1895835399627686,1.5590711832046509,1.388413906097412
18090.240233519562,1.1732302904129028,1.189907431602478,1.5593950748443604,1.3879281282424927
18090.24223358189,1.1729063987731934,1.189907431602478,1.5598807334899902,1.3874423503875732
18090.244233644215,1.1748493909835815,1.190231204032898,1.5602046251296997,1.388575792312622
18090.24623370654,1.1745256185531616,1.190069317817688,1.5606902837753296,1.3892234563827515
18090.248233768867,1.1742017269134521,1.190069317817688,1.561176061630249,1.388737678527832
18090.250233831193,1.1748493909835815,1.189745545387268,1.5606902837753296,1.3877662420272827
18090.25223389352,1.1748493909835815,1.189907431602478,1.560852289199829,1.3871185779571533
18090.254233955846,1.1740398406982422,1.190393090248108,1.561337947845459,1.3872804641723633
18090.256234018172,1.175497055053711,1.1908788681030273,1.560852289199829,1.3872804641723633
18090.2582340805,1.1761447191238403,1.1905550956726074,1.560852289199829,1.3866328001022339
18090.260234142825,1.1758209466934204,1.190231204032898,1.561176061630249,1.3871185779571533
18090.26223420515,1.1738779544830322,1.190069317817688,1.561014175415039,1.3879281282424927
18090.264234267477,1.175335168838501,1.1908788681030273,1.561014175415039,1.3877662420272827
18090.266234329803,1.175497055053711,1.190231204032898,1.560852289199829,1.3880900144577026
18090.26823439213,1.1743637323379517,1.190231204032898,1.561337947845459,1.388899564743042
18090.270234454456,1.1750112771987915,1.190231204032898,1.5616618394851685,1.3892234563827515
18090.272234516782,1.1758209466934204,1.190069317817688,1.5619856119155884,1.388413906097412
18090.27423457911,1.1743637323379517,1.190393090248108,1.5619856119155884,1.3871185779571533
18090.27623464143,1.1748493909835815,1.1908788681030273,1.561337947845459,1.3874423503875732
18090.278234703757,1.175658941268921,1.1912027597427368,1.5614999532699585,1.3876042366027832
18090.280234766084,1.175173282623291,1.190069317817688,1.5618237257003784,1.3874423503875732
18090.28223482841,1.1737160682678223,1.190231204032898,1.561337947845459,1.3877662420272827
18090.284234890736,1.1748493909835815,1.1908788681030273,1.561337947845459,1.3877662420272827
18090.286234953062,1.1743637323379517,1.1915265321731567,1.5614999532699585,1.3882519006729126
18090.28823501539,1.1743637323379517,1.190231204032898,1.560852289199829,1.3880900144577026
18090.290235077715,1.1750112771987915,1.190069317817688,1.560852289199829,1.388737678527832
18090.29223514004,1.175658941268921,1.190393090248108,1.561337947845459,1.3882519006729126
18090.294235202367,1.1740398406982422,1.1913646459579468,1.5603665113449097,1.3879281282424927
18090.296235264694,1.1743637323379517,1.1908788681030273,1.5602046251296997,1.3869566917419434
18090.29823532702,1.1743637323379517,1.190393090248108,1.5600426197052002,1.3876042366027832
18090.300235389346,1.1732302904129028,1.1910407543182373,1.5606902837753296,1.3879281282424927
18090.302235451672,1.1733921766281128,1.1907169818878174,1.5605283975601196,1.3880900144577026
18090.304235514,1.1750112771987915,1.190069317817688,1.561014175415039,1.388575792312622
18090.306235576325,1.1750112771987915,1.190231204032898,1.560852289199829,1.388737678527832
18090.30823563865,1.1750112771987915,1.189745545387268,1.561176061630249,1.388413906097412
18090.310235700978,1.1750112771987915,1.189745545387268,1.5603665113449097,1.3882519006729126
18090.312235763304,1.1750112771987915,1.1895835399627686,1.5606902837753296,1.3879281282424927
18090.31423582563,1.1729063987731934,1.1892597675323486,1.5602046251296997,1.3872804641723633
18090.316235887956,1.1732302904129028,1.1889358758926392,1.561014175415039,1.3869566917419434
18090.31823595028,1.1745256185531616,1.1894216537475586,1.560852289199829,1.386309027671814
18090.320236012605,1.1737160682678223,1.189907431602478,1.5605283975601196,1.3867946863174438
18090.32223607493,1.1733921766281128,1.1892597675323486,1.5603665113449097,1.3882519006729126
18090.324236137258,1.1748493909835815,1.1892597675323486,1.5603665113449097,1.388899564743042
18090.326236199584,1.175497055053711,1.1894216537475586,1.561014175415039,1.3877662420272827
18090.32823626191,1.175173282623291,1.1894216537475586,1.561014175415039,1.3879281282424927
18090.330236324236,1.175658941268921,1.1895835399627686,1.5605283975601196,1.388575792312622
18090.332236386563,1.1758209466934204,1.1905550956726074,1.5605283975601196,1.3882519006729126
18090.33423644889,1.1738779544830322,1.1907169818878174,1.5605283975601196,1.3879281282424927
18090.336236511215,1.1737160682678223,1.189745545387268,1.5616618394851685,1.388737678527832
18090.33823657354,1.1738779544830322,1.1895835399627686,1.561337947845459,1.388413906097412
