0,1,2,3,4,5,6,7,8,9,10
18713.583790541372,-797.4866333007812,692.73876953125,844.4736938476562,-65.08882904052734,-37.03242111206055,26.8763370513916,5.5127644538879395,57.974910736083984,95.46160125732422,65535.0
18713.584190549926,-787.5718383789062,693.2716674804688,859.9421997070312,-81.33759307861328,-33.259742736816406,30.67853546142578,7.805271148681641,64.00928497314453,88.2811508178711,65535.0
18713.58459055848,-772.02490234375,695.7772216796875,852.1544799804688,-90.2444076538086,-49.86634826660156,15.955036163330078,-6.135921955108643,50.11739730834961,85.29583740234375,65535.0
18713.584990567033,-759.1154174804688,693.8560791015625,840.6563720703125,-85.17169952392578,-47.30884552001953,13.48232650756836,-6.544646263122559,48.67911148071289,94.29764556884766,65535.0
18713.585390575583,-750.0476684570312,703.1589965820312,840.9034423828125,-80.32345581054688,-52.98825454711914,5.760452747344971,-11.375494003295898,45.899478912353516,95.44068145751953,65535.0
18713.585790584137,-768.5316162109375,693.1033325195312,838.4007568359375,-68.14804077148438,-50.69676208496094,8.379892349243164,-7.133355617523193,45.052268981933594,94.17291259765625,65535.0
18713.58619059269,-804.96923828125,685.6026000976562,830.8533935546875,-86.4779052734375,-56.145790100097656,5.89762020111084,-13.773175239562988,40.56181335449219,97.7025146484375,65535.0
18713.58659060124,-824.151123046875,697.895751953125,841.4461059570312,-94.58999633789062,-55.235107421875,3.2640650272369385,-14.553386688232422,39.994876861572266,99.87033081054688,65535.0
18713.586990609794,-826.4488525390625,684.3527221679688,822.2200317382812,-62.142982482910156,-49.184783935546875,6.991151809692383,-7.996954441070557,47.934967041015625,94.7752914428711,65535.0
18713.587390618348,-848.0223388671875,678.1898803710938,836.7649536132812,-50.793678283691406,-57.45383071899414,1.4716954231262207,-16.342899322509766,42.60523223876953,91.57361602783203,65535.0
18713.5877906269,-870.4664306640625,677.349853515625,839.3975219726562,-57.96010208129883,-50.11421203613281,5.138311386108398,-11.712349891662598,42.816287994384766,92.68498992919922,65535.0
18713.58819063545,-863.5847778320312,669.2828979492188,836.9802856445312,-29.835107803344727,-44.95560073852539,11.883543014526367,-3.920379877090454,51.369659423828125,91.69078063964844,65535.0
18713.588590644005,-848.5018920898438,671.767333984375,852.420166015625,36.441307067871094,-41.44197082519531,15.436586380004883,-1.1628377437591553,54.09630584716797,95.61296844482422,65535.0
18713.58899065256,-839.80224609375,674.7977294921875,854.6700439453125,111.96377563476562,-43.2897834777832,15.991374015808105,-0.6922756433486938,52.79590606689453,104.05615997314453,65535.0
18713.58939066111,-858.6878051757812,674.542724609375,851.2733764648438,156.6583709716797,-50.47026824951172,12.76607608795166,-6.361915111541748,48.14230728149414,109.48429870605469,65535.0
18713.589790669663,-869.7821044921875,666.8677368164062,842.8749389648438,142.29135131835938,-40.97843551635742,18.41607093811035,-1.3398655652999878,55.33251190185547,113.71143341064453,65535.0
18713.590190678216,-874.8834838867188,671.0186157226562,841.8569946289062,106.05044555664062,-43.36176681518555,18.60114288330078,-3.4603569507598877,52.73300552368164,97.89167785644531,65535.0
18713.59059068677,-871.0033569335938,684.1472778320312,857.8107299804688,89.72486114501953,-36.910057067871094,29.760831832885742,3.244718551635742,61.39940643310547,96.33495330810547,65535.0
18713.59099069532,-879.8108520507812,691.2257080078125,866.7969360351562,32.927425384521484,-29.010643005371094,39.79402160644531,11.272156715393066,67.78121185302734,104.5699462890625,65535.0
18713.591390703874,-871.2352905273438,680.6152954101562,878.6945190429688,12.344086647033691,-33.37568283081055,33.30305862426758,5.311450004577637,64.80389404296875,102.3137435913086,65535.0
18713.591790712428,-844.8829956054688,681.977294921875,873.7884521484375,47.325687408447266,-33.26876449584961,32.54077911376953,2.921570062637329,63.56929016113281,110.84942626953125,65535.0
18713.592190720978,-844.439697265625,675.9300537109375,867.7276000976562,60.422630310058594,-37.87923812866211,31.150617599487305,2.8373210430145264,58.63487243652344,95.74555969238281,65535.0
18713.59259072953,-822.9258422851562,683.1388549804688,879.4326782226562,56.29167938232422,-36.606414794921875,35.79888153076172,7.37769079208374,59.88347625732422,85.8066177368164,65535.0
18713.592990738085,-799.8401489257812,680.0906372070312,881.8914794921875,61.316131591796875,-37.28706741333008,32.28388214111328,4.026236057281494,58.81001663208008,102.59864807128906,65535.0
18713.59339074664,-777.8107299804688,672.9526977539062,882.2044067382812,77.05069732666016,-24.362213134765625,43.92446517944336,11.824027061462402,68.63233184814453,83.95126342773438,65535.0
18713.59379075519,-783.7140502929688,674.185302734375,890.9295043945312,96.1425552368164,-20.9276123046875,55.246280670166016,18.659605026245117,74.20939636230469,93.31067657470703,65535.0
18713.594190763743,-778.456787109375,679.6941528320312,880.016845703125,101.5149154663086,-9.882490158081055,67.84082794189453,28.75924301147461,83.68218231201172,97.57765197753906,65535.0
18713.594590772296,-768.8468017578125,674.8662109375,877.4205322265625,103.13314056396484,-8.561049461364746,72.99060821533203,32.5715446472168,88.58727264404297,101.22789764404297,65535.0
18713.594990780846,-755.8912353515625,669.850830078125,875.349853515625,117.24137115478516,-16.583147048950195,66.70228576660156,26.286951065063477,80.68596649169922,92.9637451171875,65535.0
18713.5953907894,-756.2265014648438,675.1777954101562,864.390869140625,144.4619140625,-17.167978286743164,64.20283508300781,23.247018814086914,79.20195007324219,96.30390930175781,65535.0
18713.595790797954,-764.0074462890625,673.590576171875,873.3031005859375,139.43234252929688,-16.365365982055664,65.28079986572266,25.48514747619629,79.37855529785156,95.37093353271484,65535.0
18713.596190806507,-743.098388671875,675.50927734375,877.3287963867188,137.27755737304688,-9.895950317382812,76.96385192871094,32.237327575683594,89.06278991699219,90.3749771118164,65535.0
18713.596590815057,-719.4512329101562,673.7762451171875,883.3433837890625,118.34956359863281,-13.341075897216797,73.67237854003906,29.193527221679688,84.9794921875,94.99896240234375,65535.0
18713.59699082361,-706.7889404296875,676.8610229492188,887.0673828125,69.33625793457031,-18.120826721191406,65.95675659179688,24.163936614990234,80.37506103515625,99.7335205078125,65535.0
18713.597390832165,-698.22021484375,682.1160278320312,881.084228515625,35.01054000854492,-11.031601905822754,70.8563461303711,27.485441207885742,84.2200698852539,100.80415344238281,65535.0
18713.597790840715,-688.748779296875,687.9940795898438,882.9051513671875,-4.275569915771484,-22.34937858581543,59.78519058227539,21.119609832763672,76.46650695800781,96.27722930908203,65535.0
18713.59819084927,-668.5598754882812,687.7791137695312,875.982421875,-11.448664665222168,-16.41561508178711,66.51493835449219,26.12005043029785,79.52355194091797,107.27286529541016,65535.0
18713.598590857822,-653.9415893554688,693.0819702148438,876.1658935546875,16.427906036376953,-7.499838829040527,77.96063995361328,34.552589416503906,90.8214340209961,105.34899139404297,65535.0
18713.598990866376,-644.4739379882812,692.8421630859375,894.1834716796875,16.626544952392578,-14.596153259277344,67.41456604003906,27.42994499206543,83.92282104492188,95.83490753173828,65535.0
18713.599390874926,-614.637939453125,694.5162963867188,881.9761962890625,34.927764892578125,-23.03476905822754,57.51351547241211,20.048690795898438,75.56715393066406,112.55595397949219,65535.0
18713.59979088348,-609.6912231445312,696.6505126953125,875.4212036132812,79.7235107421875,-17.046438217163086,63.568695068359375,24.096622467041016,79.00959777832031,102.11195373535156,65535.0
18713.600190892033,-617.5618286132812,694.5330810546875,885.5501708984375,106.83162689208984,-14.047481536865234,66.16416931152344,27.971403121948242,81.08554077148438,97.29340362548828,65535.0
18713.600590900583,-636.6295166015625,690.9845581054688,867.8726196289062,146.38665771484375,-9.920123100280762,67.33766174316406,32.78215408325195,87.96331787109375,96.73993682861328,65535.0
18713.600990909137,-667.05810546875,685.4567260742188,853.1945190429688,195.55291748046875,-8.520796775817871,68.05986785888672,32.97269821166992,87.83358764648438,97.90836334228516,65535.0
18713.60139091769,-711.8756713867188,682.1456298828125,856.2669067382812,210.55548095703125,-14.40390396118164,66.67169952392578,28.530153274536133,85.7765121459961,99.16187286376953,65535.0
18713.601790926245,-772.97509765625,688.348388671875,864.8828735351562,203.16893005371094,-12.123931884765625,66.09648132324219,30.64777183532715,87.92268371582031,92.77725982666016,65535.0
18713.602190934795,-820.66162109375,691.4193725585938,855.1224975585938,237.3685760498047,-14.463618278503418,63.488529205322266,27.131895065307617,83.8057861328125,98.96640014648438,65535.0
18713.60259094335,-848.6502685546875,700.2017822265625,841.271240234375,266.8142395019531,-21.058032989501953,50.89829635620117,19.816923141479492,74.61341094970703,104.47147369384766,65535.0
18713.602990951902,-805.8361206054688,708.6141967773438,838.923828125,261.362548828125,-24.02538299560547,46.20960235595703,20.477863311767578,72.75371551513672,87.28718566894531,65535.0
18713.603390960452,-774.103759765625,714.1361694335938,832.3167114257812,218.31671142578125,-15.907670021057129,54.50075149536133,24.771007537841797,80.4227294921875,94.8761978149414,65535.0
18713.603790969006,-772.2516479492188,715.4592895507812,836.6828002929688,127.8119888305664,-26.83418846130371,43.55167007446289,15.183755874633789,71.40365600585938,95.2125015258789,65535.0
18713.60419097756,-775.3076171875,708.2711791992188,836.4924926757812,67.83763122558594,-30.1584529876709,36.75865173339844,11.394295692443848,69.16570281982422,95.5418701171875,65535.0
18713.604590986113,-777.7337646484375,713.3162841796875,844.854736328125,53.98696517944336,-26.1297607421875,41.50961685180664,15.78565788269043,71.03144073486328,88.79398345947266,65535.0
18713.604990994663,-767.33447265625,709.5491943359375,854.3798217773438,50.10728454589844,-25.605134963989258,42.966739654541016,18.85243797302246,74.94142150878906,95.54270935058594,65535.0
18713.605391003217,-752.330078125,709.1868286132812,839.1218872070312,-36.472957611083984,-31.93729019165039,31.067184448242188,10.075342178344727,65.50059509277344,94.22787475585938,65535.0
18713.60579101177,-760.0603637695312,703.6511840820312,829.6083374023438,-88.46056365966797,-39.33396911621094,19.95282745361328,2.97106671333313,58.00958251953125,97.86089324951172,65535.0
18713.60619102032,-749.0314331054688,714.6751098632812,826.6502075195312,-66.34773254394531,-31.776216506958008,28.901840209960938,10.10718822479248,65.5773696899414,96.07801055908203,65535.0
18713.606591028874,-744.6346435546875,703.5548706054688,828.37353515625,-9.921958923339844,-35.81319808959961,23.37692642211914,6.553500175476074,62.470149993896484,97.0372314453125,65535.0
18713.606991037428,-713.5233764648438,709.6973876953125,826.1224365234375,21.523481369018555,-33.03395080566406,25.67228889465332,10.197261810302734,62.537349700927734,96.25667572021484,65535.0
18713.60739104598,-681.2320556640625,706.9454956054688,828.0623779296875,38.488006591796875,-34.49650573730469,26.718812942504883,8.497197151184082,61.518524169921875,89.38019561767578,65535.0
18713.607791054532,-655.5020751953125,693.1287841796875,836.61083984375,27.019834518432617,-28.694211959838867,30.672286987304688,10.785932540893555,70.38524627685547,87.35147857666016,65535.0
18713.608191063086,-652.1533203125,697.2178955078125,832.1185913085938,1.4843295812606812,-25.896230697631836,34.34382629394531,14.138412475585938,72.86927032470703,93.12026977539062,65535.0
18713.60859107164,-683.6837768554688,700.494140625,847.684326171875,-55.48268508911133,-31.390653610229492,26.625595092773438,7.732818603515625,63.41692352294922,94.31925201416016,65535.0
18713.60899108019,-721.7571411132812,693.5201416015625,845.4537353515625,-100.81793975830078,-21.362163543701172,38.123878479003906,19.57636260986328,72.8411865234375,97.81970977783203,65535.0
18713.609391088743,-740.9199829101562,697.4213256835938,836.4371948242188,-84.67709350585938,-24.498014450073242,39.15219497680664,18.447505950927734,70.03044128417969,106.44698333740234,65535.0
18713.609791097297,-736.1934204101562,696.896484375,842.7001342773438,-45.724327087402344,-23.656129837036133,41.13471603393555,16.31440544128418,76.37040710449219,94.14559936523438,65535.0
18713.61019110585,-723.7989501953125,695.2493896484375,848.8760986328125,-10.358284950256348,-30.725826263427734,35.926239013671875,10.546931266784668,65.37586975097656,96.92340087890625,65535.0
18713.6105911144,-737.5414428710938,685.541015625,852.7899169921875,16.287260055541992,-37.98059844970703,26.728416442871094,4.955141067504883,59.46202087402344,90.72502136230469,65535.0
18713.610991122954,-757.4677124023438,685.6986694335938,855.969970703125,35.538978576660156,-30.922073364257812,33.12273025512695,7.0532026290893555,67.51407623291016,94.16683197021484,65535.0
18713.611391131508,-757.8394165039062,694.30322265625,851.3661499023438,8.08204174041748,-24.66213035583496,40.81919479370117,15.15842056274414,72.1598129272461,97.7674331665039,65535.0
18713.611791140058,-746.423828125,690.916015625,854.9979248046875,-41.69269943237305,-21.159404754638672,45.85113525390625,20.695575714111328,75.23213195800781,89.87175750732422,65535.0
18713.61219114861,-756.37744140625,692.881591796875,857.0714721679688,-86.03008270263672,-35.00700378417969,33.904685974121094,6.88527250289917,63.477046966552734,96.64451599121094,65535.0
18713.612591157165,-793.9429321289062,691.8453369140625,852.076416015625,-111.47608184814453,-32.46577453613281,36.535762786865234,10.535550117492676,66.1026840209961,88.26326751708984,65535.0
18713.61299116572,-852.1246948242188,683.562744140625,856.7992553710938,-73.4732894897461,-22.93951416015625,47.42950439453125,17.542280197143555,72.17088317871094,86.34835052490234,65535.0
18713.61339117427,-908.4254760742188,678.5106811523438,857.0762329101562,-42.38377380371094,-21.87920379638672,51.04054260253906,21.605205535888672,76.11836242675781,95.95130920410156,65535.0
18713.613791182823,-921.2073974609375,667.5042724609375,857.5202026367188,-29.49179458618164,-20.240751266479492,54.84611511230469,21.96318817138672,77.99727630615234,103.13699340820312,65535.0
18713.614191191376,-929.3494262695312,681.4387817382812,858.0537719726562,-25.046836853027344,-13.283802032470703,63.23891067504883,27.731122970581055,80.3025131225586,101.06877899169922,65535.0
18713.614591199927,-944.470703125,677.1548461914062,861.4876098632812,-36.55491256713867,-20.303022384643555,57.66512680053711,22.00295639038086,76.62648010253906,99.89724731445312,65535.0
18713.61499120848,-943.2523803710938,676.415283203125,851.2293701171875,-79.42296600341797,-21.666635513305664,55.76439666748047,19.84308433532715,75.88777923583984,104.06201171875,65535.0
18713.615391217034,-930.407958984375,678.3312377929688,846.2597045898438,-101.54663848876953,-17.121015548706055,58.40916442871094,23.477561950683594,78.8829574584961,94.41305541992188,65535.0
18713.615791225588,-931.505126953125,691.2225341796875,851.5279541015625,-100.48318481445312,-21.62717056274414,56.42833709716797,18.876745223999023,74.7474365234375,77.29464721679688,65535.0
18713.616191234138,-958.5579833984375,693.824462890625,848.617431640625,-84.0724868774414,-18.07628059387207,61.582740783691406,21.218717575073242,77.48360443115234,96.26148223876953,65535.0
18713.61659124269,-977.926513671875,693.058837890625,848.3026123046875,-61.586456298828125,-16.931806564331055,65.22441864013672,24.840715408325195,81.22818756103516,91.05641174316406,65535.0
18713.616991251245,-989.7068481445312,702.6222534179688,849.45556640625,-44.29287338256836,-13.617025375366211,67.66801452636719,26.268268585205078,82.30339050292969,79.05581665039062,65535.0
18713.617391259795,-965.1656494140625,701.2119750976562,850.3193359375,-16.98720359802246,-21.93060302734375,59.58640670776367,19.082332611083984,73.28598022460938,91.88251495361328,65535.0
18713.61779126835,-950.6934814453125,702.6923828125,844.5721435546875,16.850711822509766,-24.783903121948242,53.808231353759766,14.297933578491211,69.92127990722656,95.62642669677734,65535.0
18713.618191276903,-938.1908569335938,698.4920654296875,848.0764770507812,31.784385681152344,-9.990833282470703,69.70211029052734,29.2757625579834,85.7892837524414,95.52532196044922,65535.0
18713.618591285453,-922.6321411132812,700.2549438476562,851.8732299804688,12.885790824890137,-12.138130187988281,72.90565490722656,32.00616455078125,88.43148803710938,91.69888305664062,65535.0
18713.618991294006,-919.2350463867188,690.4454956054688,850.297607421875,-31.49152946472168,-15.010933876037598,67.73125457763672,27.186325073242188,83.54052734375,90.7191390991211,65535.0
18713.61939130256,-916.4091796875,698.8692016601562,834.7545776367188,-48.98418426513672,-21.645402908325195,56.28023147583008,19.051616668701172,75.48348236083984,96.45088958740234,65535.0
18713.619791311114,-928.1259765625,700.4956665039062,835.3740844726562,-65.28339385986328,-27.918455123901367,52.24995803833008,13.268514633178711,72.9595718383789,99.53070068359375,65535.0
18713.620191319664,-932.6547241210938,705.142822265625,844.0577392578125,-62.04679489135742,-22.489097595214844,51.4225959777832,18.028642654418945,73.96812438964844,100.19698333740234,65535.0
18713.620591328217,-931.3004150390625,695.51123046875,843.3654174804688,-42.548099517822266,-20.335805892944336,54.12639617919922,20.782516479492188,76.29517364501953,94.92574310302734,65535.0
18713.62099133677,-940.9968872070312,678.3756713867188,843.4205322265625,-24.259803771972656,-25.724105834960938,48.36656951904297,15.43913459777832,70.885986328125,89.4686508178711,65535.0
18713.62139134532,-943.8982543945312,686.531494140625,849.1008911132812,-7.965686798095703,-26.263975143432617,44.28192901611328,14.558975219726562,68.79096221923828,91.3866195678711,65535.0
18713.621791353875,-945.0689086914062,684.0755615234375,846.9129638671875,19.15679931640625,-15.102056503295898,57.50766372680664,22.036727905273438,79.40253448486328,95.3927993774414,65535.0
18713.62219136243,-928.9815673828125,692.1633911132812,851.4390869140625,66.80510711669922,-20.821928024291992,48.61383819580078,21.090818405151367,74.5135498046875,105.05014038085938,65535.0
18713.622591370982,-910.5595703125,702.343994140625,850.1476440429688,122.51020812988281,-26.99376678466797,44.81953048706055,17.9028377532959,71.7349853515625,103.1988754272461,65535.0
18713.622991379532,-909.6357421875,704.5249633789062,859.3722534179688,149.77438354492188,-23.01090431213379,47.38152313232422,18.89982795715332,75.9310302734375,88.37216186523438,65535.0
18713.623391388086,-892.4638061523438,698.6248168945312,862.9896240234375,132.32293701171875,-20.642850875854492,51.38850021362305,21.193191528320312,75.16536712646484,99.10020446777344,65535.0
18713.62379139664,-872.3809204101562,685.7359008789062,862.6038208007812,75.97422790527344,-21.128520965576172,45.462947845458984,21.108095169067383,74.10395050048828,90.50127410888672,65535.0
18713.62419140519,-854.3051147460938,684.3773193359375,856.4365234375,23.35736083984375,-31.40180778503418,32.10860061645508,13.494126319885254,67.87651062011719,91.18202209472656,65535.0
18713.624591413743,-852.1000366210938,688.3043823242188,856.5230102539062,3.932997226715088,-36.48387908935547,27.405181884765625,5.903522968292236,62.472904205322266,94.80534362792969,65535.0
18713.624991422297,-836.4683227539062,693.4039916992188,867.8997802734375,9.602618217468262,-35.787254333496094,22.149295806884766,3.0192606449127197,59.04718017578125,88.24412536621094,65535.0
18713.62539143085,-810.6505126953125,698.5673828125,877.1588134765625,36.035648345947266,-48.48283386230469,11.547222137451172,-7.01866340637207,51.54204559326172,95.22891235351562,65535.0
18713.6257914394,-802.8341674804688,697.9365234375,870.2081909179688,37.764793395996094,-43.32002639770508,15.258016586303711,-2.2958929538726807,54.346439361572266,101.90135192871094,65535.0
18713.626191447955,-812.8231811523438,697.8675537109375,882.0540161132812,41.9720458984375,-31.319124221801758,29.456689834594727,11.001800537109375,66.54325866699219,76.30311584472656,65535.0
18713.62659145651,-823.64697265625,696.89794921875,885.2886352539062,50.147823333740234,-34.36100387573242,25.086767196655273,9.2401704788208,62.24309158325195,79.58560943603516,65535.0
18713.62699146506,-844.9210205078125,695.7117309570312,890.4502563476562,46.56915283203125,-29.521135330200195,29.862918853759766,12.07808780670166,66.07701110839844,89.24298095703125,65535.0
18713.627391473612,-865.7254638671875,680.4423217773438,887.7658081054688,82.69717407226562,-33.57244873046875,28.371719360351562,8.472156524658203,66.07904052734375,89.29112243652344,65535.0
18713.627791482166,-875.3564453125,671.780029296875,867.7341918945312,122.43113708496094,-34.54374313354492,21.980527877807617,7.038029670715332,63.545501708984375,95.44546508789062,65535.0
18713.62819149072,-887.923583984375,677.005615234375,861.6550903320312,113.38990020751953,-31.77913475036621,30.02667999267578,9.707939147949219,65.45772552490234,99.48818969726562,65535.0
18713.62859149927,-913.4663696289062,685.07666015625,846.6497192382812,86.60321044921875,-32.84663772583008,31.317691802978516,10.258408546447754,63.34658432006836,91.53688049316406,65535.0
18713.628991507823,-931.35693359375,682.3460083007812,837.5523071289062,35.363677978515625,-41.906978607177734,17.172414779663086,-1.596614956855774,55.2387580871582,97.87081909179688,65535.0
18713.629391516377,-939.96923828125,692.8934326171875,844.1448364257812,-30.388206481933594,-30.65880584716797,32.31424331665039,13.212594985961914,65.77703857421875,101.0460433959961,65535.0
18713.629791524927,-937.8165893554688,702.1726684570312,834.0242309570312,-51.11334228515625,-28.847732543945312,35.82793045043945,13.59534740447998,69.0288314819336,84.00145721435547,65535.0
18713.63019153348,-943.0733642578125,695.4642333984375,836.5919799804688,-2.2869675159454346,-31.940549850463867,29.013185501098633,12.052433013916016,65.68245697021484,94.72919464111328,65535.0
18713.630591542034,-915.8992309570312,684.6106567382812,846.7679443359375,23.777122497558594,-24.814294815063477,40.04963684082031,20.180295944213867,71.68299865722656,99.17632293701172,65535.0
18713.630991550588,-875.7666625976562,685.7239990234375,842.9598999023438,9.49775505065918,-29.670398712158203,36.21269989013672,14.037002563476562,68.79621124267578,97.69844055175781,65535.0
18713.631391559138,-828.85791015625,685.5482788085938,838.1703491210938,-25.011486053466797,-31.89082145690918,35.09184265136719,8.792731285095215,65.64656829833984,91.55585479736328,65535.0
18713.631791567692,-814.6484985351562,693.1493530273438,849.6112670898438,-65.55167388916016,-35.58073043823242,29.25311851501465,6.816988945007324,60.15565490722656,85.31499481201172,65535.0
18713.632191576246,-807.3475952148438,683.14599609375,842.5369873046875,-72.52368927001953,-32.17036437988281,34.15180587768555,11.857294082641602,66.21431732177734,89.77171325683594,65535.0
18713.632591584796,-799.3098754882812,674.5202026367188,835.0349731445312,-94.4490737915039,-21.494821548461914,48.39347457885742,19.079021453857422,71.76232147216797,96.59683227539062,65535.0
18713.63299159335,-782.1786499023438,667.9132080078125,851.6914672851562,-134.82568359375,-28.861927032470703,41.59288787841797,12.611831665039062,66.72815704345703,100.48856353759766,65535.0
18713.633391601903,-752.8662109375,669.970947265625,850.9125366210938,-182.66534423828125,-26.773229598999023,44.1555290222168,12.791318893432617,69.06021881103516,97.06085968017578,65535.0
18713.633791610457,-738.8599853515625,685.92529296875,848.0929565429688,-195.9951629638672,-22.588239669799805,52.42677688598633,19.2506046295166,73.12666320800781,106.55364990234375,65535.0
18713.634191619007,-746.6275634765625,685.6071166992188,859.8031005859375,-201.7530975341797,-23.95113182067871,53.139915466308594,20.06895637512207,72.3701171875,84.210205078125,65535.0
18713.63459162756,-752.7820434570312,683.4472045898438,854.0895385742188,-191.84747314453125,-25.903776168823242,51.711944580078125,14.666296005249023,72.00360870361328,91.07553100585938,65535.0
18713.634991636114,-780.697021484375,678.7310791015625,853.9032592773438,-146.4813232421875,-20.068132400512695,58.44115447998047,21.1613712310791,76.87862396240234,94.79065704345703,65535.0
18713.635391644664,-795.2431030273438,672.561767578125,850.711181640625,-115.4700927734375,-16.391855239868164,63.728736877441406,25.669414520263672,79.12901306152344,93.91614532470703,65535.0
18713.635791653218,-786.04931640625,677.7537231445312,849.26708984375,-97.74235534667969,-17.363576889038086,65.34282684326172,23.613630294799805,80.40560150146484,103.10234069824219,65535.0
18713.63619166177,-798.1079711914062,684.7760009765625,847.2606201171875,-87.02998352050781,-19.775625228881836,61.43146514892578,20.670398712158203,76.4205322265625,92.33489990234375,65535.0
18713.636591670325,-812.3475341796875,684.6896362304688,840.2919921875,-88.52593231201172,-13.739481925964355,64.05445861816406,26.720108032226562,81.0524673461914,90.84479522705078,65535.0
18713.636991678875,-834.2428588867188,680.892578125,842.9418334960938,-98.73348999023438,-15.352739334106445,65.36336517333984,27.649267196655273,81.51016235351562,89.87919616699219,65535.0
18713.63739168743,-866.7752075195312,692.5465087890625,833.584716796875,-98.78473663330078,-27.939117431640625,52.26169967651367,17.433963775634766,70.01976013183594,96.1932373046875,65535.0
18713.637791695983,-895.93994140625,707.9791259765625,847.8303833007812,-93.96197509765625,-13.318514823913574,64.75236511230469,26.64166259765625,80.20286560058594,103.9255142211914,65535.0
18713.638191704533,-909.1400756835938,703.1669921875,857.7926635742188,-37.84140396118164,-21.73310661315918,58.91720962524414,22.14446258544922,76.68400573730469,92.54324340820312,65535.0
18713.638591713086,-926.3760375976562,704.9703979492188,863.3673095703125,19.80577278137207,-17.81361961364746,58.509864807128906,23.34644317626953,77.2517318725586,95.4214859008789,65535.0
18713.63899172164,-917.4554443359375,702.8501586914062,858.7518310546875,52.56592559814453,-22.325300216674805,54.673179626464844,17.277795791625977,74.18267822265625,90.43596649169922,65535.0
18713.639391730194,-896.7185668945312,699.1775512695312,852.5841064453125,44.95580291748047,-22.131153106689453,52.477394104003906,17.08000373840332,74.4553451538086,92.88548278808594,65535.0
18713.639791738744,-914.0828247070312,694.077880859375,848.0584716796875,7.345980167388916,-16.957040786743164,56.91343688964844,24.58403778076172,80.2836685180664,89.45120239257812,65535.0
18713.640191747298,-928.6432495117188,702.4841918945312,852.9583129882812,12.844897270202637,-19.165630340576172,56.41004943847656,22.982412338256836,77.74427795410156,90.29019927978516,65535.0
18713.64059175585,-938.2947387695312,696.6103515625,859.7011108398438,11.67662239074707,-28.269332885742188,42.7576789855957,13.144580841064453,69.19937896728516,88.95448303222656,65535.0
18713.6409917644,-925.79248046875,694.3876953125,865.440673828125,-14.734928131103516,-23.19757652282715,49.26907730102539,22.29053497314453,75.27753448486328,88.18419647216797,65535.0
18713.641391772955,-910.0277709960938,711.08203125,857.8648071289062,-26.870027542114258,-19.15328598022461,53.2297477722168,22.80369758605957,75.88462829589844,91.39812469482422,65535.0
18713.64179178151,-900.318359375,719.8906860351562,869.77197265625,-22.713956832885742,-27.05733871459961,44.345069885253906,18.51242446899414,72.04451751708984,89.89127349853516,65535.0
18713.642191790062,-881.2675170898438,723.4254150390625,867.775634765625,-17.713422775268555,-23.068315505981445,45.819339752197266,19.4963321685791,76.01605224609375,104.29551696777344,65535.0
18713.642591798613,-873.1026000976562,711.8008422851562,861.8904418945312,3.200505256652832,-20.907041549682617,45.84892272949219,18.949386596679688,74.01403045654297,108.93161010742188,65535.0
18713.642991807166,-873.5529174804688,714.7027587890625,872.4971923828125,5.139294147491455,-27.200939178466797,40.978363037109375,16.878446578979492,71.47562408447266,86.62802124023438,65535.0
18713.64339181572,-867.19775390625,715.6941528320312,874.3582153320312,-8.292546272277832,-22.684938430786133,43.57136535644531,20.55743408203125,75.05585479736328,96.63243103027344,65535.0
18713.64379182427,-875.1378173828125,713.5831909179688,872.6752319335938,-34.6011962890625,-24.78656578063965,40.61618423461914,15.524850845336914,72.5527572631836,103.84135437011719,65535.0
18713.644191832824,-863.4818725585938,724.4391479492188,870.2667846679688,-59.107154846191406,-25.31757164001465,37.753841400146484,13.509343147277832,70.77269744873047,108.48368072509766,65535.0
18713.644591841377,-866.8096923828125,717.4960327148438,860.0040283203125,-74.00271606445312,-27.09568214416504,35.90040969848633,15.307943344116211,71.44157409667969,106.66488647460938,65535.0
18713.64499184993,-867.3213500976562,716.7494506835938,874.0740356445312,-56.423587799072266,-32.46227264404297,27.723068237304688,8.603421211242676,63.169490814208984,103.41036224365234,65535.0
18713.64539185848,-858.3428955078125,720.25732421875,874.4647827148438,-68.3885269165039,-23.160993576049805,33.01890182495117,15.459263801574707,68.46961975097656,103.21794891357422,65535.0
18713.645791867035,-868.3267211914062,708.409912109375,872.4769287109375,-140.21826171875,-35.61184310913086,19.54766273498535,3.9955894947052,58.907222747802734,88.61821746826172,65535.0
18713.64619187559,-875.243408203125,703.9367065429688,867.6629638671875,-218.50289916992188,-35.733978271484375,19.318927764892578,5.934788227081299,60.39776611328125,95.25227355957031,65535.0
18713.64659188414,-874.5328979492188,702.5123291015625,856.1398315429688,-221.01077270507812,-39.036075592041016,14.553605079650879,2.0657460689544678,57.5274543762207,88.73251342773438,65535.0
18713.646991892692,-857.380126953125,683.7777709960938,853.344482421875,-155.40744018554688,-40.784854888916016,15.156349182128906,1.2932950258255005,56.75888442993164,97.17638397216797,65535.0
18713.647391901246,-831.257568359375,691.1185913085938,862.3411865234375,-93.14350891113281,-38.718544006347656,17.931171417236328,5.119632720947266,58.973968505859375,98.961669921875,65535.0
18713.6477919098,-831.9461059570312,699.6290283203125,859.6270141601562,-83.68819427490234,-33.91793441772461,20.385080337524414,7.158163070678711,61.03993225097656,95.4046401977539,65535.0
18713.64819191835,-847.1589965820312,694.5331420898438,859.6607666015625,-77.48187255859375,-35.78122329711914,23.616737365722656,6.723527431488037,64.77735137939453,96.3624038696289,65535.0
18713.648591926903,-861.9295043945312,700.0892944335938,876.8221435546875,-66.6107177734375,-40.05137634277344,18.44939613342285,4.056949615478516,60.111576080322266,80.27371978759766,65535.0
18713.648991935457,-870.6611328125,706.5377807617188,879.5485229492188,-98.14111328125,-28.23988914489746,31.09615707397461,13.387950897216797,68.65282440185547,94.97093200683594,65535.0
18713.649391944007,-855.9984130859375,700.3885498046875,877.3355102539062,-101.11691284179688,-41.21464157104492,19.23029899597168,-0.40261825919151306,54.988895416259766,97.4013900756836,65535.0
18713.64979195256,-874.2099609375,698.6602783203125,863.4104614257812,-69.66690826416016,-35.80976104736328,19.21139907836914,4.488426208496094,58.53413772583008,85.17939758300781,65535.0
18713.650191961115,-888.8749389648438,697.4749145507812,861.4758911132812,-54.118499755859375,-43.34870910644531,15.955351829528809,-1.56339430809021,51.02850341796875,114.25514221191406,65535.0
18713.65059196967,-873.9989013671875,699.1761474609375,854.2352294921875,-43.542606353759766,-34.02950668334961,25.772235870361328,5.8040385246276855,61.91225051879883,101.5738296508789,65535.0
18713.65099197822,-869.5071411132812,693.7855834960938,826.71484375,-30.92087173461914,-39.97416687011719,24.8521785736084,5.710805892944336,59.512939453125,91.46004486083984,65535.0
18713.651391986772,-885.4944458007812,705.5210571289062,830.2799682617188,-34.67247009277344,-40.048988342285156,23.068666458129883,4.032987594604492,57.859642028808594,95.66024780273438,65535.0
18713.651791995326,-880.6061401367188,708.8157958984375,804.9401245117188,-21.43401336669922,-24.528207778930664,39.03581619262695,13.869514465332031,70.3211669921875,92.78791046142578,65535.0
18713.652192003876,-878.0664672851562,705.215576171875,806.6581420898438,-4.105673789978027,-32.33424758911133,31.386316299438477,5.93212366104126,60.91218185424805,95.52971649169922,65535.0
18713.65259201243,-876.8228149414062,706.61181640625,807.2796630859375,29.041955947875977,-31.774200439453125,34.43943405151367,10.075066566467285,64.02871704101562,93.91900634765625,65535.0
18713.652992020983,-879.1788940429688,701.996337890625,805.4473876953125,83.76959991455078,-33.93228530883789,33.77275848388672,7.124866485595703,59.96927261352539,96.09779357910156,65535.0
18713.653392029537,-866.9566650390625,687.159423828125,809.6784057617188,99.1225357055664,-33.35007858276367,38.29258728027344,8.16877555847168,61.454219818115234,99.74754333496094,65535.0
18713.653792038087,-865.14404296875,693.8419189453125,798.6812744140625,76.24264526367188,-19.174903869628906,55.8731575012207,22.351404190063477,77.16362762451172,102.27668762207031,65535.0
18713.65419204664,-848.3552856445312,699.3987426757812,820.9857177734375,52.34500503540039,-21.051307678222656,56.50217819213867,19.18749237060547,76.27278137207031,98.62323760986328,65535.0
18713.654592055194,-845.0707397460938,694.3779907226562,826.2352905273438,24.73767852783203,-17.508445739746094,57.56926727294922,21.992040634155273,78.26964569091797,92.41072082519531,65535.0
18713.654992063744,-830.9846801757812,705.4995727539062,829.3861083984375,-1.2350527048110962,-23.559921264648438,54.39701461791992,19.01115608215332,73.66783142089844,83.12703704833984,65535.0
18713.655392072298,-839.5962524414062,697.8057250976562,834.9945678710938,-20.18808364868164,-15.27746295928955,63.7503776550293,25.98833465576172,82.7880859375,95.56282043457031,65535.0
18713.655792080852,-850.4376220703125,714.2241821289062,845.0780639648438,-30.390470504760742,-15.436448097229004,67.55882263183594,26.073232650756836,82.66365051269531,102.55396270751953,65535.0
18713.656192089406,-829.2210083007812,704.1668090820312,864.4445190429688,-13.98304557800293,-21.87367057800293,60.27611541748047,22.69637107849121,75.18138885498047,96.26814270019531,65535.0
18713.656592097956,-799.040283203125,710.701171875,870.1649169921875,6.622316360473633,-15.616334915161133,61.972415924072266,26.401887893676758,79.3282241821289,103.86080932617188,65535.0
18713.65699210651,-775.327880859375,717.1311645507812,859.4410400390625,27.211891174316406,-15.511689186096191,63.666988372802734,26.953819274902344,80.49794006347656,92.94831848144531,65535.0
18713.657392115063,-774.6990966796875,717.6412963867188,872.44384765625,21.163944244384766,-18.789091110229492,59.969085693359375,23.595483779907227,77.9013442993164,87.61078643798828,65535.0
18713.657792123613,-780.755126953125,719.681640625,860.1307983398438,7.889881610870361,-24.58584976196289,54.111202239990234,18.192350387573242,73.58760833740234,91.98556518554688,65535.0
18713.658192132167,-763.4765625,713.0416870117188,868.973388671875,3.025688886642456,-13.85325813293457,64.7905044555664,29.6661319732666,83.35431671142578,90.45382690429688,65535.0
18713.65859214072,-763.4408569335938,716.0947265625,879.98046875,-50.972896575927734,-15.131513595581055,64.46336364746094,26.609586715698242,80.24034118652344,95.3631591796875,65535.0
18713.658992149274,-775.6102905273438,717.0632934570312,883.7333984375,-119.01187133789062,-24.859127044677734,52.54479217529297,16.55768585205078,73.88224792480469,98.02949523925781,65535.0
18713.659392157824,-791.9328002929688,718.4942626953125,894.61279296875,-128.1569366455078,-16.53744125366211,59.4144172668457,20.919443130493164,79.78791809082031,91.30561828613281,65535.0
18713.659792166378,-798.501708984375,721.5535888671875,893.2236938476562,-101.14595794677734,-22.401561737060547,50.02156066894531,17.98188018798828,74.24639892578125,97.71710968017578,65535.0
18713.66019217493,-828.4378051757812,715.2608642578125,893.3458251953125,-56.93638229370117,-31.213054656982422,40.546730041503906,8.367311477661133,64.74751281738281,106.7688980102539,65535.0
18713.66059218348,-858.8303833007812,717.4112548828125,885.7662353515625,10.758112907409668,-28.112308502197266,43.137996673583984,14.075237274169922,69.85530090332031,100.47471618652344,65535.0
18713.660992192035,-881.4041748046875,713.969482421875,890.0704345703125,48.85575866699219,-24.487428665161133,46.54543685913086,18.961687088012695,73.8686752319336,85.41175079345703,65535.0
18713.66139220059,-899.8209838867188,714.049560546875,889.6671752929688,74.11577606201172,-28.314884185791016,42.861785888671875,14.767204284667969,68.62029266357422,97.53848266601562,65535.0
18713.661792209143,-908.7828979492188,715.9462280273438,894.1458740234375,86.75595092773438,-27.97406578063965,41.247257232666016,12.562944412231445,69.43941497802734,89.25847625732422,65535.0
18713.662192217693,-908.8359985351562,713.8247680664062,892.5669555664062,100.69281768798828,-25.991680145263672,42.01755905151367,15.453827857971191,69.45430755615234,100.13375854492188,65535.0
18713.662592226246,-906.27001953125,702.936767578125,898.8096923828125,81.5938949584961,-18.864181518554688,50.04387283325195,23.424537658691406,75.36255645751953,100.0029525756836,65535.0
18713.6629922348,-901.3505249023438,714.6544799804688,897.69775390625,75.722412109375,-26.623905181884766,39.381568908691406,13.254931449890137,67.74561309814453,93.27873229980469,65535.0
18713.66339224335,-890.3404541015625,717.109130859375,889.2236328125,74.46248626708984,-28.47894287109375,35.445167541503906,11.805075645446777,68.37935638427734,99.07169342041016,65535.0
18713.663792251904,-841.6456298828125,719.8330688476562,884.7828369140625,67.60616302490234,-24.430044174194336,41.657840728759766,18.890377044677734,74.91832733154297,77.59441375732422,65535.0
18713.664192260458,-804.9012451171875,721.232666015625,881.9066162109375,64.90673065185547,-31.104520797729492,33.21442794799805,13.336345672607422,66.37464904785156,85.81513214111328,65535.0
18713.66459226901,-780.9789428710938,727.177734375,884.748291015625,50.19937515258789,-35.74007034301758,25.60772132873535,5.897204875946045,62.37826156616211,104.73319244384766,65535.0
18713.66499227756,-777.6670532226562,732.6785278320312,875.6156616210938,27.97884178161621,-37.83390808105469,23.43958854675293,3.7087011337280273,60.19414520263672,101.95960235595703,65535.0
18713.665392286115,-781.5381469726562,738.802734375,862.4110717773438,24.104196548461914,-40.26799392700195,18.48927879333496,1.8935788869857788,57.22455978393555,106.0938491821289,65535.0
18713.66579229467,-781.9821166992188,735.8605346679688,862.7356567382812,28.88220977783203,-39.89974594116211,18.791744232177734,2.5314762592315674,59.21668243408203,100.98217010498047,65535.0
18713.66619230322,-786.4208984375,725.1867065429688,861.9639282226562,39.59585189819336,-45.30438995361328,14.03166675567627,-1.2441571950912476,53.87611389160156,104.66259002685547,65535.0
18713.666592311773,-796.6033935546875,715.4249877929688,868.6354370117188,56.34033966064453,-37.65394973754883,19.5240535736084,4.40366268157959,60.49795150756836,98.95381164550781,65535.0
18713.666992320326,-808.864501953125,718.2830810546875,880.2918090820312,70.95931243896484,-35.09083938598633,18.502485275268555,4.344523906707764,59.50337219238281,97.03055572509766,65535.0
18713.66739232888,-791.3599853515625,724.477783203125,888.63525390625,65.0632095336914,-38.51461410522461,19.642810821533203,1.6342709064483643,58.75151443481445,109.28181457519531,65535.0
18713.66779233743,-782.3056640625,713.9966430664062,869.265380859375,73.15009307861328,-34.681819915771484,22.884113311767578,4.983058452606201,59.620750427246094,99.63461303710938,65535.0
18713.668192345984,-791.7675170898438,715.9263305664062,849.0527954101562,56.4138298034668,-41.58608627319336,15.487305641174316,-3.5698344707489014,53.94124984741211,98.63301086425781,65535.0
18713.668592354537,-798.0848388671875,717.8653564453125,842.197021484375,17.08008575439453,-45.99010467529297,11.454895973205566,-3.8346381187438965,50.91828918457031,106.77590942382812,65535.0
18713.668992363087,-811.2775268554688,718.3605346679688,844.5254516601562,-1.3549691438674927,-44.95060729980469,12.473067283630371,-4.579405784606934,49.95559310913086,103.5729751586914,65535.0
18713.66939237164,-807.8265991210938,722.6275634765625,855.8457641601562,-9.102873802185059,-49.17464065551758,8.062647819519043,-9.958168983459473,46.55012130737305,102.93466186523438,65535.0
18713.669792380195,-801.2609252929688,721.2947387695312,851.1534423828125,-28.63690185546875,-40.865848541259766,17.53551483154297,0.9077040553092957,55.94873809814453,102.5133285522461,65535.0
18713.67019238875,-786.7626342773438,713.9921264648438,836.2169189453125,-35.70123291015625,-41.673316955566406,17.373661041259766,0.8646469116210938,53.89625549316406,93.04360961914062,65535.0
18713.6705923973,-767.9141235351562,711.477783203125,844.7243041992188,-25.620847702026367,-48.853126525878906,12.303692817687988,-5.643008708953857,49.743377685546875,108.55850982666016,65535.0
18713.670992405852,-734.9932861328125,718.7638549804688,854.9617919921875,-18.4118595123291,-50.94365692138672,10.609070777893066,-7.0395636558532715,46.98724365234375,105.8573989868164,65535.0
18713.671392414406,-715.2100219726562,725.7373046875,855.7360229492188,1.3423773050308228,-39.53330993652344,20.68762969970703,1.91805100440979,57.389530181884766,83.50707244873047,65535.0
18713.671792422956,-734.3990478515625,722.1742553710938,863.648193359375,15.113229751586914,-35.382408142089844,26.06229591369629,4.448089599609375,60.99753189086914,90.71247100830078,65535.0
18713.67219243151,-733.9944458007812,725.6719970703125,862.766845703125,37.15662384033203,-27.763439178466797,41.41886901855469,14.162300109863281,69.48841857910156,98.51909637451172,65535.0
18713.672592440063,-718.898681640625,711.4776611328125,856.3445434570312,61.08910369873047,-17.895383834838867,51.684295654296875,26.111942291259766,78.1414794921875,106.8320541381836,65535.0
18713.672992448617,-712.7928466796875,708.5341186523438,850.9562377929688,75.0370101928711,-25.190174102783203,49.24795150756836,19.350156784057617,70.8270263671875,93.81100463867188,65535.0
18713.673392457167,-689.9390258789062,712.2091064453125,851.1875610351562,73.86909484863281,-26.94986343383789,46.10142517089844,13.137083053588867,67.5179672241211,90.35035705566406,65535.0
18713.67379246572,-688.8753662109375,710.7069702148438,845.2115478515625,62.749263763427734,-23.06576919555664,49.25539016723633,15.091939926147461,70.48401641845703,95.59027862548828,65535.0
18713.674192474275,-687.7296752929688,715.4746704101562,852.0909423828125,60.38789367675781,-19.456745147705078,56.94633102416992,19.664947509765625,75.44969940185547,92.73773956298828,65535.0
18713.674592482825,-687.1988525390625,720.066650390625,838.1192626953125,41.32499694824219,-33.7963752746582,41.94071960449219,8.232696533203125,62.8173713684082,89.61518859863281,65535.0
18713.67499249138,-679.5682983398438,716.3782348632812,837.0172729492188,34.14472198486328,-29.423633575439453,44.940277099609375,9.8035306930542,67.45909118652344,86.5945816040039,65535.0
18713.675392499932,-682.5571899414062,713.4681396484375,829.875244140625,47.017940521240234,-27.41184425354004,52.190189361572266,15.200216293334961,72.01696014404297,94.13001251220703,65535.0
18713.675792508486,-695.37890625,709.5922241210938,839.9115600585938,96.5474624633789,-21.612668991088867,56.507389068603516,18.130266189575195,74.00301361083984,108.53595733642578,65535.0
18713.676192517036,-721.7194213867188,715.203857421875,849.0137329101562,123.10507202148438,-19.68425178527832,60.55842971801758,19.91248321533203,76.44821166992188,96.72682189941406,65535.0
18713.67659252559,-738.3152465820312,720.5400390625,852.595947265625,133.17086791992188,-20.455974578857422,60.48228454589844,19.8537654876709,78.09831237792969,85.69387817382812,65535.0
18713.676992534143,-742.1202392578125,708.0242309570312,867.106689453125,105.68771362304688,-27.475969314575195,53.00102996826172,12.015170097351074,72.13861846923828,98.86024475097656,65535.0
18713.677392542693,-766.5006103515625,717.0282592773438,862.7002563476562,60.73638916015625,-25.250749588012695,52.76967239379883,11.61766242980957,70.64582824707031,96.56749725341797,65535.0
18713.677792551247,-781.2062377929688,717.5104370117188,882.2238159179688,13.912135124206543,-24.92784881591797,52.918922424316406,16.693544387817383,72.43505096435547,103.03328704833984,65535.0
18713.6781925598,-792.1129760742188,712.6611328125,880.3114624023438,-25.639110565185547,-23.794326782226562,53.86043930053711,17.219648361206055,68.3145980834961,93.53175354003906,65535.0
18713.678592568354,-800.2692260742188,718.703857421875,868.8963623046875,-52.85134506225586,-32.351898193359375,44.19445037841797,7.50399923324585,63.39885711669922,101.71973419189453,65535.0
18713.678992576904,-782.5403442382812,718.0942993164062,869.1635131835938,-63.50130081176758,-30.47838592529297,45.59716033935547,10.942025184631348,68.38630676269531,100.43342590332031,65535.0
18713.679392585458,-756.2554321289062,711.4925537109375,851.8286743164062,-55.54045867919922,-27.88296890258789,47.09653854370117,14.01453685760498,68.31610870361328,78.74372863769531,65535.0
18713.67979259401,-743.765380859375,710.8859252929688,846.0960693359375,-43.324806213378906,-33.97486114501953,43.07682418823242,8.86229419708252,65.19403839111328,94.83092498779297,65535.0
18713.680192602562,-752.73095703125,711.9948120117188,845.9203491210938,-10.394844055175781,-31.08202362060547,44.339324951171875,10.176264762878418,68.69795227050781,104.0268325805664,65535.0
18713.680592611116,-763.5126342773438,720.5947265625,842.4913330078125,25.997074127197266,-28.250690460205078,43.35905838012695,11.313998222351074,66.31056213378906,100.33839416503906,65535.0
18713.68099261967,-778.9512939453125,710.7014770507812,837.9751586914062,62.06439971923828,-22.906808853149414,47.06670379638672,16.955402374267578,71.25806427001953,97.54893493652344,65535.0
18713.681392628223,-793.4697875976562,725.9588012695312,843.2623901367188,81.6865005493164,-22.71434211730957,46.8052864074707,18.180362701416016,72.60697937011719,93.10816192626953,65535.0
18713.681792636773,-789.4815673828125,734.2136840820312,845.088623046875,101.2044677734375,-19.69139289855957,53.59441375732422,21.93523406982422,76.2225341796875,92.0204849243164,65535.0
18713.682192645327,-778.9285278320312,728.6270141601562,844.0830688476562,117.05648803710938,-18.741979598999023,57.09918212890625,22.872201919555664,77.74745178222656,104.27133178710938,65535.0
18713.68259265388,-744.06787109375,733.382080078125,839.7113647460938,110.38914489746094,-22.058629989624023,50.6389274597168,21.614055633544922,76.60611724853516,98.985107421875,65535.0
18713.68299266243,-743.0794677734375,726.3560791015625,849.769775390625,91.924072265625,-35.95435333251953,32.75931167602539,8.97913646697998,60.00128936767578,86.78512573242188,65535.0
18713.683392670984,-767.8142700195312,723.5389404296875,859.39111328125,76.73802947998047,-41.913211822509766,24.17633819580078,1.8196866512298584,54.761863708496094,88.77680206298828,65535.0
18713.683792679538,-795.1554565429688,735.8067626953125,855.908447265625,55.77191925048828,-28.63814353942871,31.6680965423584,10.985190391540527,65.8587646484375,90.29519653320312,65535.0
18713.68419268809,-809.6990966796875,735.7384033203125,844.0924072265625,58.682823181152344,-30.517080307006836,32.8926887512207,12.444456100463867,66.05864715576172,85.79664611816406,65535.0
18713.68459269664,-824.6115112304688,741.9254150390625,838.4200439453125,41.70018005371094,-36.77641677856445,24.201398849487305,4.812676906585693,57.714874267578125,79.38280487060547,65535.0
18713.684992705195,-829.9844970703125,741.6022338867188,829.5888671875,16.973541259765625,-38.961429595947266,18.65985679626465,2.311187982559204,59.51785659790039,84.49787902832031,65535.0
18713.68539271375,-838.924560546875,751.968017578125,843.8878784179688,-19.395111083984375,-42.48975372314453,13.498496055603027,-1.8125754594802856,54.296260833740234,91.53446960449219,65535.0
18713.6857927223,-867.620849609375,754.8746337890625,845.052734375,-83.87542724609375,-39.3353157043457,18.945417404174805,3.128073215484619,56.33381271362305,93.9073257446289,65535.0
18713.686192730853,-889.6007690429688,745.2181396484375,848.1829833984375,-109.02436828613281,-41.5177116394043,16.215187072753906,1.4256610870361328,53.467281341552734,84.900390625,65535.0
18713.686592739406,-883.964111328125,731.618408203125,832.0374755859375,-121.01676940917969,-41.9199333190918,12.167526245117188,-4.213465690612793,53.16202926635742,94.56591796875,65535.0
18713.68699274796,-851.0113525390625,744.5123901367188,831.1104736328125,-140.72048950195312,-33.17078399658203,24.34804916381836,9.623376846313477,64.6810531616211,81.96207427978516,65535.0
18713.68739275651,-814.4483642578125,751.7992553710938,819.7518920898438,-142.3776092529297,-38.94776153564453,18.808828353881836,2.774148464202881,60.459693908691406,90.43694305419922,65535.0
18713.687792765064,-804.363037109375,740.7378540039062,817.4688720703125,-156.23138427734375,-45.837833404541016,8.341361999511719,-5.715746879577637,48.50890350341797,92.09442138671875,65535.0
18713.688192773618,-825.1680908203125,744.0034790039062,827.645263671875,-163.82711791992188,-44.727294921875,9.951105117797852,-6.562873363494873,49.08732986450195,85.10536193847656,65535.0
18713.688592782168,-860.7901000976562,732.633056640625,834.1666870117188,-130.1385040283203,-42.06685256958008,15.018620491027832,0.40589264035224915,56.11510467529297,86.46073913574219,65535.0
18713.68899279072,-889.0277709960938,720.9270629882812,834.5089111328125,-41.358402252197266,-45.115169525146484,16.545461654663086,0.19400954246520996,54.78843307495117,79.03727722167969,65535.0
18713.689392799275,-892.4488525390625,720.653564453125,836.1168212890625,36.36479949951172,-39.8076057434082,18.066722869873047,-0.3918188810348511,52.404239654541016,81.32191467285156,65535.0
18713.68979280783,-891.2732543945312,716.9441528320312,838.7005004882812,56.112674713134766,-43.64468765258789,16.137208938598633,-0.2629196047782898,53.94069290161133,81.35690307617188,65535.0
18713.69019281638,-875.7646484375,717.580078125,842.39453125,58.307647705078125,-47.504859924316406,11.125585556030273,-5.139055252075195,49.040260314941406,83.83866882324219,65535.0
18713.690592824933,-886.663818359375,716.4934692382812,843.3443603515625,43.77531814575195,-45.5743522644043,15.834168434143066,-2.8522465229034424,51.55712890625,102.07077026367188,65535.0
18713.690992833486,-901.1357421875,721.3164672851562,838.6654663085938,7.569827079772949,-43.848873138427734,19.168685913085938,-1.203957200050354,52.320777893066406,118.53556823730469,65535.0
18713.691392842036,-919.514892578125,727.1950073242188,855.2297973632812,-62.51417922973633,-39.82815170288086,21.093936920166016,2.836097002029419,54.75397872924805,86.0746078491211,65535.0
18713.69179285059,-932.2621459960938,715.907470703125,847.9369506835938,-136.17599487304688,-33.216819763183594,33.519142150878906,8.845809936523438,63.779090881347656,82.73152160644531,65535.0
18713.692192859144,-934.467041015625,701.1065673828125,842.4586791992188,-147.8038330078125,-41.931453704833984,29.230100631713867,0.6277916431427002,58.03326416015625,85.19042205810547,65535.0
18713.692592867697,-929.36865234375,711.8825073242188,841.9937133789062,-106.51997375488281,-34.05158615112305,33.839752197265625,7.016019821166992,63.7469596862793,85.7586441040039,65535.0
18713.692992876247,-915.95556640625,709.8534545898438,844.8093872070312,-89.061767578125,-35.467655181884766,30.98185157775879,4.6492180824279785,57.83241653442383,95.80088806152344,65535.0
18713.6933928848,-913.4412841796875,706.71533203125,842.5468139648438,-60.55051040649414,-37.37434005737305,27.708127975463867,1.9475340843200684,55.959014892578125,90.85059356689453,65535.0
18713.693792893355,-905.035400390625,711.9424438476562,840.0845947265625,-63.236968994140625,-23.95944595336914,43.39336013793945,14.419666290283203,70.40215301513672,88.01119232177734,65535.0
18713.694192901905,-896.992431640625,713.0161743164062,838.5311279296875,-91.33438110351562,-34.76921463012695,40.28034210205078,8.833749771118164,63.0679931640625,88.16561126708984,65535.0
18713.69459291046,-885.6754150390625,716.4475708007812,839.5178833007812,-49.714569091796875,-31.397415161132812,40.73115158081055,9.636322021484375,66.09846496582031,86.8899154663086,65535.0
18713.694992919012,-878.9837646484375,714.6158447265625,846.1066284179688,-26.9952392578125,-14.153905868530273,61.39288330078125,26.694381713867188,80.44310760498047,96.86419677734375,65535.0
18713.695392927566,-888.8818969726562,715.0439453125,847.4515991210938,-25.249326705932617,-9.070591926574707,70.60647583007812,31.62925148010254,84.81526184082031,88.94127655029297,65535.0
18713.695792936116,-890.3655395507812,709.9130249023438,855.0437622070312,-18.070323944091797,-11.94056510925293,68.68973541259766,28.725757598876953,82.8865966796875,83.14754486083984,65535.0
18713.69619294467,-897.290771484375,698.7102661132812,855.4302978515625,-4.8133544921875,-22.413589477539062,56.726192474365234,19.84947395324707,74.90184783935547,88.51184844970703,65535.0
18713.696592953223,-904.1467895507812,706.1446533203125,861.41943359375,8.136697769165039,-15.384077072143555,66.08544158935547,29.917776107788086,83.67060852050781,89.55680084228516,65535.0
18713.696992961774,-896.818603515625,711.58203125,878.8755493164062,10.098034858703613,-9.52285099029541,74.63057708740234,33.07999801635742,87.62002563476562,94.72942352294922,65535.0
18713.697392970327,-877.6878662109375,709.0278930664062,872.1943359375,17.744625091552734,-3.9344897270202637,77.80835723876953,36.58879852294922,93.8901138305664,88.30998992919922,65535.0
18713.69779297888,-864.802001953125,704.6548461914062,878.1174926757812,-16.042043685913086,-5.2541069984436035,75.59605407714844,34.359596252441406,90.68243408203125,89.83173370361328,65535.0
18713.69819298743,-848.7440795898438,697.8630981445312,869.4335327148438,-56.969268798828125,-20.255725860595703,61.42759323120117,23.62431526184082,76.50990295410156,77.41683197021484,65535.0
18713.698592995985,-842.8711547851562,703.404541015625,870.3028564453125,-71.39970397949219,-16.4887638092041,62.607730865478516,28.574146270751953,80.91442108154297,86.15830993652344,65535.0
18713.69899300454,-842.5305786132812,702.1284790039062,876.0269775390625,-82.83483123779297,-12.064202308654785,64.24850463867188,28.843996047973633,83.79216003417969,95.64567565917969,65535.0
18713.699393013092,-844.8248901367188,701.8096313476562,871.3572998046875,-17.754512786865234,-18.17695426940918,52.99738693237305,20.302797317504883,77.75189208984375,101.39678955078125,65535.0
18713.699793021642,-858.3250122070312,694.533203125,870.4738159179688,76.8276596069336,-15.825377464294434,55.29691696166992,23.579792022705078,79.37610626220703,91.81649017333984,65535.0
18713.700193030196,-860.049072265625,698.0489501953125,862.9896240234375,119.53913879394531,-17.20372772216797,56.863853454589844,25.589414596557617,79.38170623779297,82.19589233398438,65535.0
18713.70059303875,-831.748291015625,696.1220092773438,873.8759155273438,131.4009246826172,-13.065753936767578,59.56645584106445,27.779043197631836,81.47968292236328,84.64933013916016,65535.0
18713.7009930473,-830.3174438476562,698.6242065429688,863.902587890625,136.890380859375,-16.187454223632812,59.1075553894043,26.60735321044922,80.93394470214844,90.57269287109375,65535.0
18713.701393055853,-827.3215942382812,696.4376220703125,864.9337768554688,122.62128448486328,-18.031858444213867,55.46323776245117,26.427921295166016,81.7343978881836,91.99982452392578,65535.0
18713.701793064407,-824.7442626953125,696.3074340820312,866.7772827148438,83.29305267333984,-23.985450744628906,46.35846710205078,19.63134765625,73.25575256347656,72.7949447631836,65535.0
18713.70219307296,-818.1891479492188,694.7608032226562,866.9973754882812,38.632991790771484,-25.571414947509766,42.81016159057617,17.752941131591797,70.68370056152344,88.77529907226562,65535.0
18713.70259308151,-822.7314453125,708.2013549804688,873.111083984375,16.510936737060547,-24.710840225219727,42.6207389831543,14.061095237731934,72.46598815917969,83.70378875732422,65535.0
18713.702993090064,-831.9048461914062,710.56298828125,869.8631591796875,22.76702880859375,-32.74612045288086,32.1748161315918,8.91666030883789,65.36528015136719,88.62409210205078,65535.0
18713.703393098618,-833.455078125,715.3653564453125,873.13818359375,74.43819427490234,-26.453336715698242,37.87393569946289,17.825519561767578,70.36961364746094,85.22542572021484,65535.0
18713.703793107168,-834.6730346679688,721.7362670898438,871.335693359375,135.27542114257812,-28.687768936157227,35.84566116333008,14.284622192382812,69.22044372558594,73.33023834228516,65535.0
18713.704193115722,-843.7801513671875,724.8486938476562,874.9882202148438,162.21409606933594,-29.005887985229492,34.53845977783203,13.459117889404297,67.82462310791016,93.1489486694336,65535.0
18713.704593124276,-838.4669189453125,731.1476440429688,874.907958984375,171.08224487304688,-27.54218864440918,36.83857727050781,14.332343101501465,67.31581115722656,75.50739288330078,65535.0
18713.70499313283,-829.4368286132812,732.4522705078125,875.0200805664062,176.47720336914062,-34.160987854003906,25.269487380981445,8.376920700073242,62.090782165527344,76.59203338623047,65535.0
18713.70539314138,-821.8699951171875,734.4596557617188,875.7679443359375,169.7682342529297,-37.6107063293457,23.67454719543457,6.149501800537109,62.67000198364258,86.10762023925781,65535.0
18713.705793149933,-822.8262939453125,736.464599609375,863.0374755859375,168.33360290527344,-38.03193283081055,18.56704330444336,5.573829174041748,60.78615188598633,80.104248046875,65535.0
18713.706193158487,-809.6311645507812,734.2399291992188,861.77001953125,181.53758239746094,-41.49976348876953,16.84540557861328,0.702048659324646,54.57246398925781,80.37519073486328,65535.0
18713.706593167037,-808.739013671875,734.2943115234375,851.6724853515625,185.3992919921875,-32.88044357299805,29.030948638916016,10.548931121826172,64.95646667480469,86.44990539550781,65535.0
18713.70699317559,-831.5151977539062,731.9747924804688,850.1951904296875,199.96588134765625,-38.99245071411133,19.95745277404785,0.40173229575157166,56.62430953979492,90.60004425048828,65535.0
18713.707393184144,-824.306640625,736.354736328125,856.7721557617188,226.88394165039062,-44.480735778808594,9.266846656799316,-4.29595422744751,52.47823715209961,89.66023254394531,65535.0
18713.707793192698,-806.1885986328125,733.10888671875,850.2550659179688,211.1511993408203,-44.95585632324219,12.003678321838379,-2.297072172164917,50.790374755859375,87.17367553710938,65535.0
18713.708193201248,-787.0425415039062,729.0365600585938,845.9938354492188,125.81034088134766,-43.308345794677734,14.21297550201416,-2.7328708171844482,52.6797981262207,93.94347381591797,65535.0
18713.7085932098,-766.6437377929688,718.0839233398438,850.3644409179688,28.522602081298828,-36.04621124267578,19.950044631958008,5.3631157875061035,61.38626480102539,94.10223388671875,65535.0
18713.708993218355,-784.4603881835938,724.6495361328125,854.0841064453125,-24.418296813964844,-38.95158767700195,20.665081024169922,5.015315055847168,58.564598083496094,85.80844116210938,65535.0
18713.709393226905,-802.852783203125,727.1199340820312,850.465576171875,-46.071136474609375,-39.12614059448242,22.011215209960938,3.239992618560791,58.918601989746094,85.5522689819336,65535.0
18713.70979323546,-795.3648071289062,729.4779052734375,854.5419921875,-30.53696632385254,-44.62508773803711,14.040007591247559,-4.460312366485596,52.32753372192383,94.61814880371094,65535.0
18713.710193244013,-783.4276123046875,729.9456787109375,850.0945434570312,19.76606559753418,-34.342750549316406,25.745826721191406,8.508655548095703,62.236572265625,91.14494323730469,65535.0
18713.710593252566,-771.6385498046875,733.5692749023438,851.7478637695312,59.091915130615234,-31.881004333496094,29.936107635498047,7.487288475036621,64.06004333496094,91.86527252197266,65535.0
18713.710993261117,-742.4966430664062,722.5219116210938,858.5535888671875,64.0962905883789,-34.8338508605957,28.627546310424805,8.643060684204102,61.194942474365234,93.20325469970703,65535.0
18713.71139326967,-727.7665405273438,720.3709716796875,852.56884765625,2.0668320655822754,-32.155269622802734,32.84629440307617,10.427109718322754,64.94283294677734,87.47941589355469,65535.0
18713.711793278224,-758.5122680664062,719.4061279296875,851.6444702148438,-45.46694564819336,-32.116825103759766,35.089298248291016,11.755853652954102,66.41310119628906,84.4899673461914,65535.0
18713.712193286774,-776.5391845703125,715.1534423828125,846.8529663085938,-45.6103515625,-29.17654800415039,41.15180206298828,16.426570892333984,69.04679107666016,76.43990325927734,65535.0
18713.712593295328,-785.1016235351562,717.0477294921875,860.2070922851562,-52.084388732910156,-27.303037643432617,44.83845901489258,15.383444786071777,71.11634063720703,83.5595703125,65535.0
18713.71299330388,-787.887451171875,721.1910400390625,861.1221313476562,-25.962472915649414,-26.533601760864258,41.52101516723633,14.347323417663574,68.02716827392578,97.12993621826172,65535.0
18713.713393312435,-802.5040893554688,721.6951293945312,867.96484375,15.470625877380371,-29.04202651977539,43.66167449951172,15.929906845092773,68.9378433227539,90.47266387939453,65535.0
18713.713793320985,-806.1301879882812,713.095947265625,873.3668823242188,9.524042129516602,-15.102648735046387,61.88361740112305,25.59805679321289,82.65096282958984,96.06250762939453,65535.0
18713.71419332954,-799.1227416992188,712.0371704101562,869.118408203125,-50.872066497802734,-15.086671829223633,60.82853317260742,26.954219818115234,82.98284149169922,89.372802734375,65535.0
18713.714593338093,-798.3910522460938,708.141357421875,857.6109008789062,-83.20580291748047,-22.39083480834961,55.15998077392578,20.881200790405273,77.50826263427734,81.24462890625,65535.0
18713.714993346643,-807.7437744140625,699.8494873046875,856.2816772460938,-106.2091293334961,-12.560164451599121,65.06643676757812,29.824756622314453,82.8056869506836,90.72855377197266,65535.0
18713.715393355196,-812.843505859375,714.5047607421875,863.0604858398438,-152.241455078125,-14.233631134033203,59.010807037353516,24.869150161743164,81.1243896484375,85.05845642089844,65535.0
18713.71579336375,-809.2076416015625,706.300537109375,861.9412231445312,-187.84503173828125,-15.630847930908203,59.937652587890625,22.43061065673828,80.38758087158203,78.68450164794922,65535.0
18713.716193372304,-785.2115478515625,704.8294677734375,862.6412353515625,-195.5692138671875,-18.2017879486084,56.51454544067383,22.046966552734375,77.48871612548828,91.09137725830078,65535.0
18713.716593380854,-759.1593627929688,709.2056274414062,873.2236328125,-167.09774780273438,-23.126279830932617,54.61310577392578,19.641077041625977,73.4186782836914,93.5815200805664,65535.0
18713.716993389407,-772.9700317382812,717.8369140625,863.8685302734375,-114.56434631347656,-23.080350875854492,56.137535095214844,18.957958221435547,74.8843765258789,87.61040496826172,65535.0
18713.71739339796,-800.4153442382812,713.7936401367188,861.5194702148438,-70.46595001220703,-14.942203521728516,58.862449645996094,22.57888412475586,79.6415786743164,85.77842712402344,65535.0
18713.71779340651,-811.5033569335938,727.075439453125,871.4326782226562,-10.343242645263672,-14.814536094665527,61.662837982177734,27.82842254638672,80.57073211669922,74.78331756591797,65535.0
18713.718193415065,-788.1939086914062,731.8368530273438,876.1690673828125,54.46454620361328,-24.5736026763916,54.122894287109375,18.76340103149414,72.64701080322266,80.06920623779297,65535.0
18713.71859342362,-737.1524658203125,731.7902221679688,879.4944458007812,90.75239562988281,-27.69024658203125,48.95913314819336,15.366520881652832,73.47418975830078,100.02059936523438,65535.0
18713.718993432172,-732.5701904296875,734.6106567382812,881.97705078125,126.20914459228516,-15.305033683776855,62.2129020690918,28.145517349243164,84.38194274902344,85.80479431152344,65535.0
18713.719393440722,-731.18212890625,731.98681640625,878.3469848632812,145.76412963867188,-19.727039337158203,57.47315979003906,24.68307113647461,77.4102783203125,75.34546661376953,65535.0
18713.719793449276,-741.2389526367188,732.3720703125,876.365234375,139.19154357910156,-22.154993057250977,52.83692169189453,20.61848258972168,75.51918029785156,90.39017486572266,65535.0
18713.72019345783,-758.5341186523438,730.947998046875,873.2825317382812,107.57351684570312,-19.419897079467773,55.55670928955078,24.821073532104492,79.32876586914062,81.67913055419922,65535.0
18713.72059346638,-759.5103759765625,726.5241088867188,861.1298828125,120.52886962890625,-21.495460510253906,50.56452178955078,19.86736297607422,74.33322143554688,89.55419921875,65535.0
18713.720993474933,-787.4900512695312,737.0001220703125,873.4190673828125,119.96402740478516,-31.90459442138672,42.37008285522461,11.548113822937012,64.51963806152344,93.38908386230469,65535.0
18713.721393483487,-816.8944091796875,745.5520629882812,892.6470947265625,121.00733947753906,-25.880224227905273,43.27072525024414,18.11420440673828,71.03992462158203,76.74067687988281,65535.0
18713.72179349204,-805.8093872070312,732.144287109375,890.0115356445312,135.34707641601562,-12.528860092163086,58.2492561340332,27.234867095947266,81.73495483398438,79.86841583251953,65535.0
18713.72219350059,-804.640625,737.4580078125,893.6188354492188,121.05459594726562,-20.24224853515625,51.345176696777344,19.64605712890625,74.54481506347656,74.38626098632812,65535.0
18713.722593509145,-822.5760498046875,746.1825561523438,899.1664428710938,76.55760955810547,-28.411407470703125,39.70629119873047,14.40941047668457,69.50790405273438,86.13333129882812,65535.0
18713.7229935177,-815.770751953125,736.95166015625,898.6322631835938,68.32083892822266,-28.20669937133789,39.424983978271484,14.438246726989746,67.38139343261719,92.593994140625,65535.0
18713.72339352625,-794.0009155273438,748.061279296875,901.1923828125,42.81122589111328,-26.791372299194336,39.973976135253906,14.380617141723633,68.96393585205078,89.60075378417969,65535.0
18713.723793534802,-790.6643676757812,753.5338134765625,898.8274536132812,-16.61573600769043,-23.04029655456543,40.22047805786133,18.560977935791016,73.30267333984375,90.96439361572266,65535.0
18713.724193543356,-801.8673706054688,749.4721069335938,885.5795288085938,-30.41126251220703,-44.073036193847656,17.135026931762695,-1.1189424991607666,53.20884704589844,91.0577163696289,65535.0
18713.72459355191,-815.6502685546875,743.5107421875,889.9302368164062,-6.928391456604004,-48.60342025756836,10.396798133850098,-4.109469890594482,50.15812683105469,87.6064682006836,65535.0
18713.72499356046,-836.0698852539062,742.7388916015625,881.6795043945312,31.40686798095703,-40.92925262451172,19.132726669311523,4.7214436531066895,56.40189743041992,84.97960662841797,65535.0
18713.725393569013,-852.4692993164062,745.2772216796875,871.6909790039062,23.13811492919922,-28.320720672607422,28.727882385253906,10.783760070800781,67.31996154785156,85.1489486694336,65535.0
18713.725793577567,-852.5364379882812,738.1843872070312,874.8638305664062,17.152448654174805,-36.60981750488281,18.26422882080078,5.298893451690674,60.197818756103516,82.72628021240234,65535.0
18713.726193586117,-869.41796875,730.1896362304688,872.3062133789062,26.502025604248047,-39.20636749267578,15.143657684326172,3.709986686706543,59.69293975830078,90.7762451171875,65535.0
18713.72659359467,-899.6009521484375,719.2855224609375,867.02880859375,5.021061420440674,-37.189239501953125,17.184465408325195,3.6663646697998047,58.72902297973633,73.17337036132812,65535.0
18713.726993603224,-932.3229370117188,712.481201171875,863.2005615234375,-68.27400970458984,-40.163230895996094,15.31096363067627,2.7120015621185303,55.76443862915039,87.30526733398438,65535.0
18713.727393611778,-946.6222534179688,718.0076293945312,879.98681640625,-194.14486694335938,-38.57121658325195,15.537198066711426,3.496005058288574,56.451908111572266,82.92218017578125,65535.0
18713.727793620328,-949.1364135742188,721.2903442382812,878.51318359375,-296.2204284667969,-36.79845428466797,18.20736312866211,7.54873514175415,60.21192169189453,79.98825073242188,65535.0
18713.728193628882,-958.0089721679688,728.4632568359375,872.1690673828125,-339.53106689453125,-40.997928619384766,15.459831237792969,2.4646658897399902,57.08563232421875,83.59123229980469,65535.0
18713.728593637436,-958.7548828125,728.84619140625,877.4483642578125,-298.5257568359375,-39.721736907958984,17.73870277404785,0.7648797631263733,56.51362609863281,83.56636810302734,65535.0
18713.728993645986,-952.1770629882812,734.7708740234375,869.48828125,-224.3029327392578,-30.322765350341797,27.35852813720703,9.472359657287598,63.01009750366211,78.5130844116211,65535.0
18713.72939365454,-966.650390625,726.4175415039062,858.7814331054688,-170.96180725097656,-39.331947326660156,18.57170295715332,3.119987964630127,58.01053237915039,53.051124572753906,65535.0
18713.729793663093,-983.900634765625,725.080322265625,846.3796997070312,-152.51495361328125,-35.92619323730469,19.390811920166016,4.226624965667725,59.206817626953125,70.11510467529297,65535.0
18713.730193671647,-984.329833984375,730.5451049804688,847.11181640625,-165.4642333984375,-32.88328552246094,25.008405685424805,9.041171073913574,63.397674560546875,88.6222915649414,65535.0
18713.730593680197,-990.30224609375,718.05126953125,843.7064208984375,-181.7798614501953,-40.13497543334961,22.472877502441406,2.5191543102264404,55.81979751586914,82.61273193359375,65535.0
18713.73099368875,-1000.45703125,705.9373168945312,863.233154296875,-187.27638244628906,-32.689735412597656,29.072715759277344,9.329201698303223,63.286102294921875,77.22685241699219,65535.0
18713.731393697304,-996.718505859375,709.8377075195312,852.6822509765625,-186.59654235839844,-36.8620719909668,27.763498306274414,6.319840431213379,60.878631591796875,79.54649353027344,65535.0
18713.731793705854,-998.7197265625,713.1535034179688,843.0054931640625,-169.90492248535156,-33.849395751953125,31.907962799072266,6.854462623596191,64.27376556396484,92.8517074584961,65535.0
18713.732193714408,-996.182373046875,705.7689819335938,855.6724853515625,-125.36467742919922,-30.476909637451172,34.06787872314453,11.267948150634766,63.408660888671875,82.22933197021484,65535.0
18713.73259372296,-977.0097045898438,713.0186157226562,853.451904296875,-109.12589263916016,-26.119590759277344,40.31787109375,14.956185340881348,71.0816650390625,82.60858154296875,65535.0
18713.732993731515,-936.9448852539062,715.9008178710938,855.76123046875,-120.51976776123047,-22.786436080932617,43.57133865356445,18.88694953918457,73.6468505859375,88.51548767089844,65535.0
18713.733393740065,-914.272705078125,712.4164428710938,866.5303344726562,-139.74383544921875,-30.419784545898438,37.11585235595703,9.839947700500488,61.97575759887695,86.51737976074219,65535.0
18713.73379374862,-910.8228149414062,721.096435546875,862.1333618164062,-155.1471405029297,-31.21817970275879,40.21046447753906,9.89737319946289,66.65126037597656,85.51622009277344,65535.0
18713.734193757173,-890.9845581054688,731.3419189453125,856.36572265625,-149.02748107910156,-27.571645736694336,45.5615119934082,15.823949813842773,70.74098205566406,91.48831939697266,65535.0
18713.734593765723,-881.5780029296875,717.5125122070312,855.0352783203125,-159.88389587402344,-23.57301902770996,46.67565155029297,14.965636253356934,70.38555908203125,93.77322387695312,65535.0
18713.734993774277,-906.1798095703125,713.904052734375,861.0228271484375,-172.4456024169922,-21.242538452148438,55.85886001586914,20.095111846923828,77.25350952148438,92.51964569091797,65535.0
18713.73539378283,-950.3939208984375,714.4214477539062,856.9119262695312,-156.7738800048828,-17.84479331970215,60.32548522949219,24.043115615844727,76.67178344726562,93.83810424804688,65535.0
18713.735793791384,-905.2245483398438,729.9092407226562,854.74267578125,-114.1830062866211,-18.929174423217773,61.220645904541016,23.801193237304688,80.24592590332031,85.26741027832031,65535.0
18713.736193799934,-851.5408325195312,725.3391723632812,864.619873046875,-56.759498596191406,-16.167543411254883,62.39213562011719,25.39493751525879,83.31391906738281,87.9592514038086,65535.0
18713.736593808488,-855.8676147460938,725.483642578125,857.6259765625,18.417301177978516,-13.974039077758789,67.20469665527344,27.495168685913086,84.22820281982422,94.33929443359375,65535.0
18713.73699381704,-836.943115234375,727.5767211914062,863.7950439453125,118.91647338867188,-25.36994171142578,51.80348587036133,16.560869216918945,70.81039428710938,81.34490966796875,65535.0
18713.73739382559,-789.3714599609375,724.0631713867188,861.9993286132812,186.52099609375,-14.994667053222656,65.60063171386719,27.486799240112305,80.69779968261719,70.56670379638672,65535.0
18713.737793834145,-731.031005859375,728.1255493164062,869.3502807617188,225.6091766357422,-21.210338592529297,59.98836898803711,20.817567825317383,76.81366729736328,84.39729309082031,65535.0
18713.7381938427,-735.9573364257812,726.209228515625,873.2274169921875,258.8712158203125,-15.791903495788574,59.849308013916016,22.623809814453125,81.76390075683594,89.23757934570312,65535.0
18713.738593851253,-766.4564208984375,733.4886474609375,876.38623046875,267.4302978515625,-17.398958206176758,61.1204833984375,24.938018798828125,78.73922729492188,82.2789535522461,65535.0
18713.738993859803,-737.0115966796875,736.6074829101562,884.9886474609375,252.10025024414062,-17.177181243896484,59.206756591796875,23.98183822631836,79.10515594482422,84.4124526977539,65535.0
18713.739393868356,-700.3257446289062,735.5614624023438,869.6129760742188,198.65072631835938,-17.839237213134766,57.014034271240234,25.287614822387695,79.40278625488281,86.18260192871094,65535.0
18713.73979387691,-698.708251953125,729.5466918945312,853.6138305664062,160.85960388183594,-19.58199119567871,55.27413558959961,21.610013961791992,77.2585678100586,81.2814712524414,65535.0
18713.74019388546,-706.6506958007812,725.6953735351562,859.8604736328125,142.19439697265625,-14.897078514099121,59.49794006347656,25.637361526489258,81.52821350097656,85.99011993408203,65535.0
18713.740593894014,-721.4166259765625,727.4724731445312,860.9549560546875,104.83732604980469,-19.586227416992188,54.17334747314453,23.090770721435547,79.31676483154297,82.45270538330078,65535.0
18713.740993902567,-721.0997924804688,723.0982055664062,872.7492065429688,86.86299133300781,-39.59709167480469,31.79892921447754,3.8740475177764893,58.34010314941406,81.7817153930664,65535.0
18713.74139391112,-715.7907104492188,722.9859008789062,880.6224975585938,90.41414642333984,-32.36105728149414,36.32122802734375,9.113618850708008,65.06210327148438,84.17284393310547,65535.0
18713.74179391967,-730.7550048828125,728.4136962890625,876.6085205078125,91.91297149658203,-24.314716339111328,42.84947967529297,17.239423751831055,71.22418975830078,79.39107513427734,65535.0
18713.742193928225,-744.633544921875,727.2875366210938,872.9220581054688,69.57526397705078,-26.892946243286133,44.734764099121094,16.638322830200195,71.55882263183594,77.44689178466797,65535.0
18713.74259393678,-753.0628051757812,725.771240234375,846.9389038085938,56.53134536743164,-31.28706932067871,38.294517517089844,11.855616569519043,69.79413604736328,92.7864761352539,65535.0
18713.74299394533,-756.5552368164062,723.471923828125,848.8192749023438,72.448974609375,-27.9736385345459,38.496456146240234,11.528450965881348,70.48715209960938,81.9163589477539,65535.0
18713.743393953882,-752.3386840820312,732.965087890625,852.1552124023438,102.37215423583984,-25.46366310119629,42.524208068847656,17.263578414916992,72.09478759765625,77.05321502685547,65535.0
18713.743793962436,-748.8904418945312,733.1975708007812,852.3333129882812,128.76162719726562,-34.20709228515625,28.407268524169922,5.0248003005981445,60.81534957885742,88.14021301269531,65535.0
18713.74419397099,-721.1102905273438,727.169921875,853.97119140625,118.41918182373047,-44.069618225097656,13.530071258544922,-2.9792165756225586,51.41096496582031,92.36773681640625,65535.0
18713.74459397954,-705.3775024414062,729.5747680664062,850.9834594726562,61.6196403503418,-45.26557540893555,10.393808364868164,-2.885258913040161,52.53861999511719,80.52305603027344,65535.0
18713.744993988093,-684.32275390625,738.13330078125,847.0003662109375,22.908946990966797,-30.910154342651367,28.15501594543457,9.849806785583496,63.311912536621094,70.7166748046875,65535.0
18713.745393996647,-673.615966796875,740.2431030273438,835.66796875,-0.11109878867864609,-37.79164505004883,23.401945114135742,7.42293643951416,62.900535583496094,88.97738647460938,65535.0
18713.745794005197,-670.77978515625,732.3704833984375,837.4440307617188,32.855186462402344,-38.23638153076172,18.841257095336914,2.5527002811431885,57.590335845947266,82.27651977539062,65535.0
18713.74619401375,-673.9381713867188,726.5201416015625,860.2455444335938,97.22322082519531,-38.491512298583984,21.922273635864258,4.884145736694336,57.01942825317383,78.21107482910156,65535.0
18713.746594022305,-682.2423095703125,730.18505859375,854.103759765625,138.40234375,-43.47177505493164,15.895116806030273,2.216991662979126,54.876068115234375,77.05137634277344,65535.0
18713.74699403086,-684.5615844726562,723.0770874023438,857.0531005859375,134.3426513671875,-43.42121124267578,11.719902038574219,-3.8465819358825684,51.77642822265625,79.92347717285156,65535.0
18713.74739403941,-694.124755859375,726.4917602539062,861.3983764648438,111.38130950927734,-39.27383041381836,15.988555908203125,1.96519136428833,57.64572525024414,91.18083953857422,65535.0
18713.747794047962,-705.3388061523438,721.5765991210938,856.5391235351562,101.1729736328125,-35.22859573364258,21.71798324584961,6.486029624938965,61.34750747680664,70.39848327636719,65535.0
18713.748194056516,-722.820068359375,716.5700073242188,873.4293823242188,101.78325653076172,-35.469078063964844,28.97922706604004,9.711356163024902,66.58486938476562,72.80905151367188,65535.0
18713.748594065066,-727.2203369140625,717.3818969726562,867.6321411132812,132.90301513671875,-35.99844741821289,26.07187271118164,6.75557279586792,63.19221496582031,96.36576843261719,65535.0
18713.74899407362,-745.2753295898438,724.9058837890625,875.960205078125,162.37969970703125,-35.82432174682617,22.987560272216797,6.077228546142578,59.619041442871094,79.15277862548828,65535.0
18713.749394082173,-783.7717895507812,717.2701416015625,881.810302734375,92.54630279541016,-32.239349365234375,32.492122650146484,11.110089302062988,65.6434097290039,77.38892364501953,65535.0
18713.749794090727,-797.2340087890625,703.64892578125,870.33447265625,14.698362350463867,-33.28190994262695,32.19255828857422,10.0770263671875,64.14788055419922,93.58026123046875,65535.0
18713.750194099277,-831.2909545898438,705.3697509765625,876.1636962890625,-4.128256320953369,-29.50393295288086,32.52818298339844,10.96200180053711,67.46975708007812,77.64219665527344,65535.0
18713.75059410783,-883.49365234375,717.1808471679688,860.0492553710938,-5.296412944793701,-26.118844985961914,41.47938919067383,15.772184371948242,72.60053253173828,73.20694732666016,65535.0
18713.750994116384,-913.5540161132812,717.5064697265625,864.8909912109375,12.311718940734863,-33.71142578125,35.36138916015625,11.063554763793945,66.75055694580078,80.71450805664062,65535.0
18713.751394124934,-956.7743530273438,705.2969970703125,857.2473754882812,29.7345027923584,-26.429256439208984,38.86556625366211,15.083382606506348,70.9698715209961,81.23238372802734,65535.0
18713.751794133488,-981.9603881835938,706.447509765625,852.4244384765625,17.638349533081055,-37.9296760559082,31.850934982299805,9.745774269104004,60.9439582824707,72.8016357421875,65535.0
18713.752194142042,-975.2999267578125,716.7842407226562,838.1868896484375,13.481072425842285,-35.33407211303711,31.425094604492188,7.145589828491211,62.11286544799805,76.73087310791016,65535.0
18713.752594150596,-970.2365112304688,716.1400756835938,836.912109375,17.695293426513672,-24.17683219909668,43.93105697631836,16.71661949157715,71.83268737792969,84.95716094970703,65535.0
18713.752994159146,-935.7002563476562,714.8684692382812,835.928955078125,-5.45261287689209,-20.9312686920166,51.86919021606445,20.54369354248047,74.00637817382812,89.44478607177734,65535.0
18713.7533941677,-893.4235229492188,705.5740356445312,841.9183349609375,25.52054786682129,-20.50068473815918,52.975555419921875,22.53485107421875,75.82746887207031,80.33414459228516,65535.0
18713.753794176253,-867.2088623046875,697.2266235351562,831.5133056640625,68.92399597167969,-23.95973777770996,50.45551681518555,18.009349822998047,71.49171447753906,83.39393615722656,65535.0
18713.754194184803,-844.5518188476562,712.7511596679688,841.9866943359375,85.65386962890625,-27.42241859436035,49.17957305908203,16.72125244140625,70.6593017578125,75.1710433959961,65535.0
18713.754594193357,-816.8867797851562,709.1301879882812,840.119140625,114.5660629272461,-24.027353286743164,48.42330551147461,16.65508270263672,72.96920013427734,90.12744903564453,65535.0
18713.75499420191,-790.5038452148438,705.7938232421875,838.2490234375,143.72218322753906,-12.1985502243042,63.47582244873047,31.28389549255371,85.17998504638672,71.42478942871094,65535.0
18713.755394210464,-774.0142211914062,713.5056762695312,846.8114624023438,138.89572143554688,-9.389494895935059,72.2509765625,35.55120849609375,87.6395492553711,87.85372924804688,65535.0
18713.755794219014,-773.2661743164062,705.9124145507812,849.0900268554688,117.60979461669922,-14.308713912963867,66.20111083984375,29.19034767150879,81.88726806640625,90.93114471435547,65535.0
18713.756194227568,-800.5678100585938,707.3865356445312,845.9319458007812,47.02691650390625,-16.66040802001953,60.09596633911133,25.306886672973633,79.422607421875,71.84786987304688,65535.0
18713.75659423612,-831.7214965820312,698.3665771484375,855.0792236328125,-61.108158111572266,-6.590484142303467,75.2906265258789,34.928619384765625,87.48465728759766,72.37742614746094,65535.0
18713.75699424467,-866.4406127929688,706.2904663085938,839.992919921875,-115.61023712158203,-11.395355224609375,67.69928741455078,31.363174438476562,85.03334045410156,71.10490417480469,65535.0
18713.757394253225,-869.0419921875,712.3955688476562,838.7213745117188,-83.51168823242188,-13.40571403503418,63.911617279052734,25.61699676513672,84.10995483398438,72.91495513916016,65535.0
18713.75779426178,-874.4019165039062,718.48095703125,852.716064453125,-25.8204345703125,-16.035327911376953,65.39617156982422,28.042499542236328,81.475341796875,74.62444305419922,65535.0
18713.758194270333,-846.903564453125,719.4864501953125,853.6287231445312,-1.2055054903030396,-16.649065017700195,63.22258377075195,26.656352996826172,81.47724914550781,71.9061279296875,65535.0
18713.758594278883,-819.748046875,713.4361572265625,844.6423950195312,-10.027381896972656,-18.61262321472168,56.97536087036133,24.172313690185547,81.02230834960938,87.69600677490234,65535.0
18713.758994287437,-816.7901000976562,708.4461059570312,847.7410278320312,-23.252626419067383,-11.857343673706055,63.262306213378906,29.57149314880371,85.75448608398438,83.65621185302734,65535.0
18713.75939429599,-816.5887451171875,712.7884521484375,854.00830078125,0.13325826823711395,-20.722726821899414,55.74992752075195,22.89789581298828,78.15284729003906,66.86689758300781,65535.0
18713.75979430454,-825.7333984375,699.4404296875,862.8104858398438,44.25020217895508,-24.153553009033203,51.32733917236328,18.96366310119629,78.1825180053711,76.09577941894531,65535.0
18713.760194313094,-843.9056396484375,691.429443359375,859.7210083007812,81.1161117553711,-12.325508117675781,61.78697967529297,27.383188247680664,83.22472381591797,75.23831939697266,65535.0
18713.760594321648,-884.5105590820312,686.1665649414062,856.5316162109375,106.96585845947266,-14.547626495361328,58.17277908325195,23.11058235168457,78.46439361572266,66.76097869873047,65535.0
18713.7609943302,-917.73193359375,689.622314453125,853.455322265625,130.19566345214844,-18.7545108795166,53.62869644165039,23.997098922729492,77.32654571533203,65.09002685546875,65535.0
18713.76139433875,-926.890869140625,688.5125122070312,851.147216796875,155.28204345703125,-19.231983184814453,52.99287796020508,22.829999923706055,77.37210845947266,69.0474624633789,65535.0
18713.761794347305,-931.1246948242188,687.5995483398438,863.2500610351562,137.6444091796875,-22.240699768066406,47.803924560546875,18.951658248901367,72.96900939941406,80.35934448242188,65535.0
18713.76219435586,-916.6347045898438,690.0198364257812,862.466552734375,119.87059020996094,-20.80194664001465,44.6027717590332,17.721256256103516,72.66786193847656,80.02105712890625,65535.0
18713.76259436441,-884.25927734375,697.9057006835938,855.8853759765625,72.49916076660156,-24.545072555541992,42.835025787353516,16.941537857055664,70.45841979980469,67.55301666259766,65535.0
18713.762994372963,-839.6973876953125,711.8511962890625,867.7904052734375,19.85102653503418,-23.675458908081055,40.69770812988281,18.333023071289062,72.77519989013672,79.2090835571289,65535.0
18713.763394381516,-781.1670532226562,714.0572509765625,866.0869140625,-27.250123977661133,-23.486059188842773,41.944705963134766,18.047260284423828,75.7423324584961,81.38896942138672,65535.0
18713.76379439007,-736.34814453125,708.92578125,871.4378051757812,-72.79717254638672,-29.938255310058594,34.004608154296875,13.191202163696289,68.1648178100586,76.76373291015625,65535.0
18713.76419439862,-712.7175903320312,704.8941040039062,868.4652099609375,-114.4596176147461,-39.66273880004883,21.170974731445312,-0.09729669243097305,58.86964416503906,83.885009765625,65535.0
18713.764594407174,-694.58447265625,718.3929443359375,872.218994140625,-108.9669189453125,-37.23140335083008,21.58885383605957,5.217188358306885,60.53227615356445,71.07394409179688,65535.0
18713.764994415727,-689.7549438476562,733.1134643554688,865.5466918945312,-77.12428283691406,-35.9192008972168,20.351659774780273,4.991607666015625,58.71692657470703,72.96634674072266,65535.0
18713.765394424277,-678.3489990234375,719.2437744140625,858.2021484375,-51.41391372680664,-35.90550994873047,22.186647415161133,8.835474014282227,61.60078811645508,64.37767028808594,65535.0
18713.76579443283,-700.13330078125,724.0342407226562,853.492919921875,-33.82865905761719,-40.7191162109375,16.401275634765625,5.221558094024658,57.310523986816406,67.84626770019531,65535.0
18713.766194441385,-695.8952026367188,719.75537109375,859.1041259765625,-21.083677291870117,-39.1369743347168,18.59784698486328,1.6711711883544922,58.63154602050781,68.41451263427734,65535.0
18713.76659444994,-664.0726318359375,718.3131713867188,864.365478515625,-13.369563102722168,-48.16108703613281,9.7539644241333,-3.329286575317383,51.337188720703125,67.73348999023438,65535.0
18713.76699445849,-671.796630859375,719.4269409179688,865.0908813476562,-4.897466659545898,-43.72686004638672,9.498133659362793,-2.3043482303619385,50.78657531738281,74.62858581542969,65535.0
18713.767394467042,-702.1212158203125,715.3799438476562,866.0718383789062,24.367082595825195,-32.409149169921875,25.134140014648438,11.782445907592773,63.554080963134766,78.64734649658203,65535.0
18713.767794475596,-717.607421875,720.1765747070312,867.510986328125,36.79267120361328,-33.72395706176758,26.052555084228516,9.080366134643555,61.705467224121094,82.72783660888672,65535.0
18713.768194484146,-721.3173828125,719.1538696289062,866.2955322265625,34.50931930541992,-35.693607330322266,23.42714500427246,7.619551181793213,62.11697006225586,72.1916732788086,65535.0
18713.7685944927,-734.744873046875,710.7008666992188,869.7353515625,35.747764587402344,-45.966087341308594,18.37652587890625,-1.4432247877120972,53.49565887451172,65.9415054321289,65535.0
18713.768994501253,-759.3560791015625,714.0305786132812,879.3074340820312,34.5425910949707,-40.62586975097656,21.847503662109375,0.38293036818504333,55.31932830810547,79.73936462402344,65535.0
18713.769394509807,-806.9451904296875,712.1910400390625,865.591796875,36.68391036987305,-40.53322219848633,22.336240768432617,1.8620554208755493,57.95839309692383,76.28790283203125,65535.0
18713.769794518357,-859.2366943359375,708.463134765625,869.3095092773438,22.107282638549805,-36.173683166503906,27.27163314819336,7.869274616241455,61.57108688354492,70.10025787353516,65535.0
18713.77019452691,-882.077392578125,717.43017578125,869.1221313476562,-2.239001750946045,-31.16839599609375,34.1303596496582,11.638679504394531,66.91088104248047,86.6105728149414,65535.0
18713.770594535465,-881.9110717773438,706.9651489257812,868.4761352539062,-6.598586082458496,-39.08154296875,23.897817611694336,3.6901650428771973,58.06572723388672,86.651123046875,65535.0
18713.770994544015,-875.6257934570312,693.1471557617188,869.09521484375,-1.899731993675232,-52.21617126464844,13.069653511047363,-6.4010396003723145,48.26496887207031,73.79390716552734,65535.0
18713.77139455257,-875.4586181640625,687.76025390625,859.5698852539062,-14.038238525390625,-41.75645446777344,26.27457046508789,3.1921567916870117,57.96787643432617,69.9610595703125,65535.0
18713.771794561122,-910.8079223632812,685.473388671875,867.7391357421875,1.420236349105835,-35.03109359741211,29.775741577148438,7.70768928527832,60.49891662597656,91.08966827392578,65535.0
18713.772194569676,-935.2869873046875,673.9243774414062,873.16796875,17.245580673217773,-32.168128967285156,35.9706916809082,10.392200469970703,65.63628387451172,82.24112701416016,65535.0
18713.772594578226,-966.5994262695312,667.301513671875,874.5064086914062,51.882389068603516,-27.116411209106445,45.70707702636719,18.15761375427246,73.40974426269531,78.59518432617188,65535.0
18713.77299458678,-989.23876953125,666.5813598632812,868.30810546875,80.861083984375,-17.652570724487305,56.592689514160156,22.626733779907227,78.71824645996094,78.76519775390625,65535.0
18713.773394595333,-967.4968872070312,676.1221313476562,871.1258544921875,91.51704406738281,-27.608139038085938,44.65761184692383,11.987997055053711,67.95156860351562,74.94022369384766,65535.0
18713.773794603883,-952.1218872070312,683.4840087890625,881.4713745117188,101.3497543334961,-38.67912673950195,31.94146728515625,2.0048556327819824,57.24771499633789,82.66888427734375,65535.0
18713.774194612437,-933.887451171875,678.04833984375,876.8150024414062,94.89350891113281,-25.332015991210938,51.71211624145508,17.493051528930664,71.3095703125,74.56813049316406,65535.0
18713.77459462099,-890.4251708984375,672.2276000976562,869.6192016601562,60.28896713256836,-17.771644592285156,58.51553726196289,22.259920120239258,74.94144439697266,74.19248962402344,65535.0
18713.774994629544,-855.2763061523438,671.2448120117188,884.7476196289062,22.54923439025879,-15.0353364944458,67.01492309570312,27.80811882019043,83.45203399658203,74.80892181396484,65535.0
18713.775394638094,-856.0260620117188,687.9300537109375,883.518310546875,-30.667339324951172,-10.212458610534668,71.68820190429688,32.34287643432617,86.601806640625,79.32440948486328,65535.0
18713.775794646648,-870.88525390625,686.7288208007812,886.8313598632812,-41.20037841796875,-16.74294090270996,68.43994140625,28.59971046447754,81.29821014404297,79.61966705322266,65535.0
18713.776194655202,-896.4366455078125,697.693359375,887.2503662109375,-19.813365936279297,-28.28147315979004,57.765419006347656,16.51253318786621,70.73590850830078,73.9499282836914,65535.0
18713.776594663752,-904.0787963867188,702.991943359375,884.3362426757812,22.17087173461914,-28.479841232299805,53.0980339050293,14.694501876831055,70.60381317138672,86.19277954101562,65535.0
18713.776994672306,-888.4559326171875,702.4876708984375,884.0060424804688,32.876583099365234,-22.588836669921875,57.639835357666016,17.696197509765625,74.55792236328125,78.45545959472656,65535.0
18713.77739468086,-873.5726318359375,705.6246948242188,869.0947875976562,24.22318458557129,-15.898906707763672,65.98390197753906,26.05348777770996,80.96762084960938,78.38849639892578,65535.0
18713.777794689413,-864.5199584960938,703.4321899414062,868.2333984375,30.992719650268555,-15.465522766113281,68.50712585449219,27.704736709594727,84.484619140625,93.08424377441406,65535.0
18713.778194697963,-865.2779541015625,719.3684692382812,861.2070922851562,39.57483673095703,-7.591187953948975,75.63075256347656,32.69587707519531,87.0037612915039,77.90745544433594,65535.0
18713.778594706517,-895.3938598632812,719.1084594726562,857.7938842773438,57.154945373535156,-9.090152740478516,71.10017395019531,32.19682693481445,86.02301025390625,74.76309204101562,65535.0
18713.77899471507,-911.2968139648438,706.4606323242188,845.1031494140625,49.69496536254883,-22.284666061401367,57.32660675048828,18.92191505432129,73.26018524169922,70.64215850830078,65535.0
18713.77939472362,-887.2650756835938,710.7595825195312,826.5128173828125,-10.300148010253906,-20.79759407043457,54.63836669921875,20.718055725097656,73.65510559082031,76.17770385742188,65535.0
18713.779794732174,-876.1929321289062,703.4270629882812,823.3881225585938,-43.66786575317383,-28.196163177490234,48.32229232788086,14.446306228637695,69.78642272949219,84.14173889160156,65535.0
18713.780194740728,-857.864013671875,699.5614013671875,827.9945678710938,-56.93035888671875,-27.296619415283203,48.379695892333984,15.91391372680664,71.22209167480469,76.00506591796875,65535.0
18713.78059474928,-843.1661987304688,709.4095458984375,825.4783935546875,-67.77392578125,-24.53434944152832,53.0158576965332,17.45399284362793,75.0533218383789,73.72069549560547,65535.0
18713.78099475783,-842.610107421875,708.19287109375,826.638916015625,-78.32682800292969,-33.62399673461914,40.54387283325195,11.41158390045166,63.330360412597656,75.45537567138672,65535.0
18713.781394766385,-841.896728515625,704.61279296875,843.1909790039062,-108.94493865966797,-21.121267318725586,52.3079719543457,24.505598068237305,78.90637969970703,69.48017883300781,65535.0
18713.78179477494,-859.8211669921875,708.2349243164062,837.9420776367188,-125.38175201416016,-33.789180755615234,41.01729202270508,11.794515609741211,65.52789306640625,73.35620880126953,65535.0
18713.78219478349,-881.187744140625,720.0572509765625,832.8616333007812,-108.98114013671875,-39.178260803222656,29.51959800720215,1.7666971683502197,61.08417892456055,75.82010650634766,65535.0
18713.782594792043,-891.5033569335938,727.5840454101562,841.4126586914062,-31.70599937438965,-30.327869415283203,34.363731384277344,8.996442794799805,65.53765106201172,59.96597671508789,65535.0
18713.782994800596,-903.256591796875,723.0379028320312,850.983154296875,29.4510440826416,-23.40093421936035,42.569766998291016,16.646648406982422,72.79296875,69.99526977539062,65535.0
18713.78339480915,-892.59521484375,721.4385375976562,857.2586059570312,51.67696762084961,-30.005247116088867,39.52604293823242,12.77292251586914,67.7903060913086,81.24243927001953,65535.0
18713.7837948177,-879.0250244140625,710.3132934570312,841.3267822265625,67.0414047241211,-32.42923355102539,35.92154312133789,8.096240043640137,65.20443725585938,70.24827575683594,65535.0
18713.784194826254,-874.973876953125,708.9261474609375,843.2896118164062,52.71855163574219,-27.483766555786133,37.56046676635742,14.490762710571289,68.60623168945312,74.78394317626953,65535.0
18713.784594834808,-859.0881958007812,708.0123901367188,853.0218505859375,44.558746337890625,-33.943145751953125,31.742673873901367,11.104426383972168,66.20674896240234,78.1356430053711,65535.0
18713.784994843358,-849.4688110351562,709.5363159179688,866.4451293945312,23.83112907409668,-45.140472412109375,19.457111358642578,2.5891196727752686,55.52513885498047,67.90754699707031,65535.0
18713.78539485191,-848.5717163085938,706.4519653320312,858.42041015625,-41.776214599609375,-55.125308990478516,7.559330940246582,-11.265225410461426,42.60284423828125,66.0988540649414,65535.0
18713.785794860465,-841.3827514648438,707.9085693359375,850.1227416992188,-106.25276947021484,-48.38200378417969,11.6686429977417,-6.293137073516846,49.139583587646484,76.0992431640625,65535.0
18713.78619486902,-816.2872924804688,698.3657836914062,846.8577270507812,-127.66438293457031,-45.46370315551758,10.896219253540039,-4.481287956237793,48.97832107543945,78.57003784179688,65535.0
18713.78659487757,-807.2410278320312,685.2407836914062,840.6842041015625,-160.973388671875,-40.27641677856445,16.412582397460938,1.6124128103256226,56.00250244140625,77.69940948486328,65535.0
18713.786994886123,-775.917724609375,691.2677001953125,837.254150390625,-171.713134765625,-41.438594818115234,20.918243408203125,2.9918980598449707,57.49080276489258,82.06837463378906,65535.0
18713.787394894676,-740.2833862304688,689.3231811523438,834.633056640625,-158.78346252441406,-43.60108947753906,14.809905052185059,-2.772761106491089,51.35823440551758,78.21155548095703,65535.0
18713.787794903226,-727.4403076171875,697.6298217773438,835.8221435546875,-166.0487518310547,-41.048606872558594,17.93271255493164,1.2629953622817993,54.29927062988281,83.11993408203125,65535.0
18713.78819491178,-716.4506225585938,698.865234375,828.2110595703125,-159.1562042236328,-42.03241729736328,18.339075088500977,1.1493421792984009,55.7982292175293,77.04913330078125,65535.0
18713.788594920334,-734.0595703125,698.5279541015625,826.2388916015625,-164.9504852294922,-37.875526428222656,25.43883514404297,4.9941887855529785,59.454193115234375,73.14512634277344,65535.0
18713.788994928887,-748.9896850585938,696.7074584960938,837.4911499023438,-159.01376342773438,-38.67887878417969,25.758554458618164,5.761003017425537,60.60283660888672,81.146484375,65535.0
18713.789394937437,-782.24267578125,686.72021484375,831.2232055664062,-119.40355682373047,-29.518884658813477,34.10914611816406,12.57499885559082,68.52275085449219,84.36270904541016,65535.0
18713.78979494599,-800.9495239257812,688.1436767578125,827.8739013671875,-84.22277069091797,-34.25390625,33.184566497802734,5.5987935066223145,61.63954162597656,86.6295394897461,65535.0
18713.790194954545,-805.52880859375,688.954345703125,836.6495361328125,-59.033348083496094,-32.46856689453125,32.91370391845703,9.951776504516602,62.46083450317383,67.68599700927734,65535.0
18713.790594963095,-818.5609741210938,686.0553588867188,830.9393920898438,-41.09120559692383,-33.39445495605469,32.63676071166992,10.74734115600586,66.70378875732422,74.52596282958984,65535.0
18713.79099497165,-835.4946899414062,686.7479858398438,826.5891723632812,-13.417404174804688,-26.851696014404297,41.38814926147461,15.575342178344727,69.71080017089844,85.19852447509766,65535.0
18713.791394980202,-849.482666015625,679.271484375,820.35546875,15.666314125061035,-24.69257354736328,47.82887268066406,17.21475601196289,70.78870391845703,84.70108795166016,65535.0
18713.791794988756,-841.3065185546875,681.8828735351562,828.436279296875,30.132694244384766,-24.99509620666504,47.61106872558594,15.939812660217285,73.48362731933594,69.39750671386719,65535.0
18713.792194997306,-829.9232177734375,678.5609741210938,825.4620361328125,25.169893264770508,-22.310813903808594,51.19620895385742,21.927644729614258,75.55574035644531,82.3271713256836,65535.0
18713.79259500586,-814.2072143554688,671.6130981445312,821.7329711914062,20.382837295532227,-21.277294158935547,56.29591369628906,22.64020347595215,78.23394012451172,88.27137756347656,65535.0
18713.792995014413,-816.864990234375,670.9091796875,816.6343994140625,19.95556640625,-23.32289695739746,53.69730758666992,18.924388885498047,77.2686538696289,76.8768539428711,65535.0
18713.793395022964,-805.002685546875,668.1278076171875,806.732666015625,18.224773406982422,-24.284692764282227,56.2567024230957,19.63803482055664,75.45932006835938,77.60218811035156,65535.0
18713.793795031517,-794.9139404296875,671.0748901367188,818.0791625976562,9.685215950012207,-22.428874969482422,60.388248443603516,21.19877052307129,76.9461441040039,89.02373504638672,65535.0
18713.79419504007,-825.36474609375,681.083984375,826.6878051757812,8.957508087158203,-19.524028778076172,63.941810607910156,25.02183723449707,77.95938873291016,84.72915649414062,65535.0
18713.794595048625,-855.8442993164062,675.3933715820312,831.68359375,10.20787239074707,-11.611322402954102,69.78685760498047,30.051509857177734,84.87952423095703,71.7818374633789,65535.0
18713.794995057175,-878.7056884765625,659.2830810546875,847.3773803710938,-5.603622913360596,-16.490646362304688,69.36971282958984,26.17879867553711,81.08035278320312,78.1717758178711,65535.0
18713.79539506573,-878.236083984375,665.6195678710938,852.2106323242188,-16.333696365356445,-30.499893188476562,54.096275329589844,11.885937690734863,66.97728729248047,80.46712493896484,65535.0
18713.795795074282,-837.4852905273438,673.34228515625,857.2681884765625,-32.13796615600586,-22.63298797607422,60.71017074584961,19.268798828125,73.39393615722656,85.59121704101562,65535.0
18713.796195082832,-821.9824829101562,675.7554321289062,847.6314697265625,-49.21402359008789,-15.118279457092285,68.41893768310547,25.37889289855957,81.44264221191406,92.88577270507812,65535.0
18713.796595091386,-826.572021484375,667.7288818359375,859.5282592773438,-51.172218322753906,-8.68111515045166,74.61107635498047,33.837188720703125,89.86001586914062,94.85411071777344,65535.0
18713.79699509994,-842.6784057617188,663.8250122070312,864.696533203125,-45.82493209838867,-7.963003158569336,77.4453353881836,34.49350357055664,88.95175170898438,68.73406219482422,65535.0
18713.797395108493,-849.0988159179688,672.5975341796875,866.48779296875,-21.08578872680664,-6.607922554016113,77.53295135498047,37.033748626708984,92.55596923828125,76.2651596069336,65535.0
18713.797795117043,-875.9678955078125,669.3375854492188,879.0560913085938,-24.714752197265625,-8.265584945678711,75.23733520507812,34.74565505981445,89.78893280029297,68.45182037353516,65535.0
18713.798195125597,-898.2698364257812,681.3934936523438,877.5278930664062,-65.59984588623047,-13.915121078491211,70.12997436523438,30.55809783935547,86.11713409423828,69.18156433105469,65535.0
18713.79859513415,-906.051513671875,680.1930541992188,865.2216186523438,-89.69702911376953,-17.840911865234375,64.66410827636719,24.73406219482422,80.56370544433594,85.42018127441406,65535.0
18713.7989951427,-914.0352783203125,676.2479858398438,867.0769653320312,-64.02523040771484,-20.406909942626953,60.56489562988281,21.91872787475586,77.09602355957031,89.57843780517578,65535.0
18713.799395151254,-916.5360107421875,676.0322875976562,869.4945068359375,-41.17576599121094,-16.36556625366211,64.15679931640625,27.451711654663086,80.30167388916016,84.0414047241211,65535.0
18713.799795159808,-902.9824829101562,687.1861572265625,865.8179321289062,-44.58183288574219,-23.210983276367188,53.24488067626953,19.113473892211914,72.72325897216797,87.93535614013672,65535.0
18713.800195168362,-900.7752075195312,695.1459350585938,861.8939819335938,-44.56986999511719,-21.44290542602539,55.94057083129883,21.383201599121094,77.56916046142578,87.4338607788086,65535.0
18713.800595176912,-912.0921020507812,690.0462646484375,866.1259765625,-39.22999572753906,-16.32464027404785,60.46516418457031,26.46602439880371,79.15483856201172,73.99569702148438,65535.0
18713.800995185466,-919.7788696289062,692.4777221679688,864.5546264648438,-69.06019592285156,-24.555892944335938,52.8995361328125,18.20777702331543,72.91835021972656,78.05799102783203,65535.0
18713.80139519402,-914.8889770507812,684.207763671875,877.6135864257812,-99.06360626220703,-28.636188507080078,43.69462203979492,10.662101745605469,69.21759796142578,76.42587280273438,65535.0
18713.80179520257,-895.2134399414062,675.3333129882812,889.9447631835938,-93.33281707763672,-38.06382369995117,32.48070526123047,5.115878582000732,63.26218032836914,74.22857666015625,65535.0
18713.802195211123,-904.6694946289062,671.37744140625,888.5687866210938,-72.35663604736328,-37.735740661621094,29.07403564453125,2.860703706741333,61.41721725463867,67.42581939697266,65535.0
18713.802595219677,-912.6570434570312,676.0599365234375,889.8374633789062,-31.353496551513672,-20.001056671142578,48.05501174926758,19.82076644897461,75.97811889648438,74.7862319946289,65535.0
18713.80299522823,-909.3250732421875,685.5972900390625,897.4500732421875,-25.92635726928711,-31.411325454711914,42.31895446777344,13.22988510131836,69.17870330810547,85.99311065673828,65535.0
18713.80339523678,-927.1321411132812,667.6566772460938,887.7328491210938,-18.231176376342773,-31.72850227355957,34.9844856262207,10.077859878540039,65.48035430908203,89.80180358886719,65535.0
18713.803795245334,-935.57568359375,665.619384765625,884.7514038085938,-28.972572326660156,-29.68958282470703,36.899723052978516,10.456559181213379,65.86432647705078,66.75904083251953,65535.0
18713.804195253888,-935.535888671875,678.48681640625,883.9077758789062,-35.997806549072266,-34.0740966796875,31.65778923034668,9.657648086547852,65.53147888183594,65.07524108886719,65535.0
18713.804595262438,-963.1094360351562,685.3508911132812,872.1754150390625,-47.019439697265625,-30.55232810974121,31.683006286621094,9.526956558227539,65.50010681152344,81.4204330444336,65535.0
18713.80499527099,-970.8140869140625,690.21240234375,880.5675659179688,-59.63515090942383,-25.039628982543945,35.149967193603516,17.175199508666992,70.99712371826172,76.62075805664062,65535.0
18713.805395279545,-970.7808227539062,692.0580444335938,869.5367431640625,-64.73079681396484,-33.98305130004883,27.155044555664062,6.731573581695557,61.04468536376953,68.3414306640625,65535.0
18713.8057952881,-965.8046264648438,685.8439331054688,867.4110717773438,-72.45549774169922,-36.108829498291016,22.457822799682617,2.4018442630767822,59.90446090698242,69.0378189086914,65535.0
18713.80619529665,-940.2747802734375,693.3193969726562,871.560791015625,-77.36553192138672,-30.962020874023438,28.869447708129883,12.272459030151367,65.87702941894531,74.62946319580078,65535.0
18713.806595305203,-914.225341796875,691.5363159179688,870.0030517578125,-85.35981750488281,-36.716331481933594,25.582643508911133,7.714225769042969,60.686187744140625,78.42220306396484,65535.0
18713.806995313756,-882.3541259765625,692.67431640625,874.97265625,-77.52679443359375,-36.48392105102539,22.774349212646484,4.50902795791626,61.31206130981445,79.80018615722656,65535.0
18713.807395322307,-853.7613525390625,692.4520874023438,875.9625854492188,-62.869232177734375,-38.49346923828125,19.650423049926758,3.7914113998413086,56.89216613769531,82.60526275634766,65535.0
18713.80779533086,-838.8703002929688,689.0325317382812,878.948486328125,-57.87282180786133,-36.432701110839844,25.390853881835938,8.503390312194824,60.353515625,83.74114990234375,65535.0
18713.808195339414,-840.161376953125,687.1326904296875,876.2046508789062,-67.85338592529297,-37.156890869140625,23.337276458740234,4.510116100311279,58.761905670166016,64.46977996826172,65535.0
18713.808595347968,-847.0703125,681.8468017578125,873.2252197265625,-59.101593017578125,-33.44834518432617,26.521217346191406,6.657740592956543,63.24982452392578,55.76450729370117,65535.0
18713.808995356518,-856.1115112304688,675.0353393554688,884.012939453125,-40.73732376098633,-38.23126220703125,23.828510284423828,5.006802082061768,60.770103454589844,74.43399810791016,65535.0
18713.80939536507,-854.1802368164062,679.314453125,868.3922119140625,-29.815797805786133,-27.611549377441406,35.81834411621094,14.044201850891113,69.33085632324219,72.06873321533203,65535.0
18713.809795373625,-856.2998657226562,681.505859375,860.6486206054688,-26.281152725219727,-38.22724533081055,25.840951919555664,4.84595251083374,61.80864715576172,75.49662780761719,65535.0
18713.810195382175,-834.97265625,680.1370239257812,857.763916015625,-40.262149810791016,-40.05192565917969,20.777568817138672,3.455047369003296,55.46500015258789,70.7527084350586,65535.0
18713.81059539073,-794.8650512695312,675.6739501953125,857.9675903320312,-48.349544525146484,-32.45103454589844,30.702991485595703,9.509771347045898,65.52296447753906,77.18742370605469,65535.0
18713.810995399283,-780.9419555664062,676.7215576171875,853.991943359375,-61.24078369140625,-32.46417999267578,33.53580856323242,9.200916290283203,65.30774688720703,80.62793731689453,65535.0
18713.811395407836,-790.6066284179688,663.057373046875,854.4559936523438,-69.46455383300781,-29.649269104003906,33.831764221191406,11.440637588500977,64.92768859863281,71.01435089111328,65535.0
18713.811795416386,-791.4877319335938,664.754150390625,846.9864501953125,-64.47586822509766,-26.557785034179688,40.922393798828125,16.875755310058594,70.99420928955078,76.74292755126953,65535.0
18713.81219542494,-799.1490478515625,679.5149536132812,834.7881469726562,-41.781898498535156,-26.712478637695312,42.852378845214844,17.42445182800293,72.36215209960938,90.30320739746094,65535.0
18713.812595433494,-785.1080322265625,669.5675048828125,833.5784912109375,-27.926929473876953,-19.000503540039062,57.07297897338867,25.642038345336914,80.97117614746094,66.1202392578125,65535.0
18713.812995442044,-756.7178344726562,663.8255615234375,829.7382202148438,-27.411828994750977,-14.8836669921875,62.334136962890625,28.431346893310547,83.71550750732422,75.31690216064453,65535.0
18713.813395450597,-716.1950073242188,671.5985107421875,829.6908569335938,-13.898885726928711,-14.622759819030762,63.009151458740234,28.999052047729492,82.8774185180664,78.51350402832031,65535.0
18713.81379545915,-701.0947875976562,671.0289916992188,812.2047729492188,13.724395751953125,-33.31796646118164,42.9907112121582,10.427362442016602,66.25122833251953,74.71546936035156,65535.0
18713.814195467705,-678.8905639648438,681.5626220703125,806.2796020507812,58.26774978637695,-29.309173583984375,41.33314514160156,12.462944984436035,66.79660034179688,77.64347839355469,65535.0
18713.814595476255,-655.00634765625,680.609619140625,812.9039306640625,113.79869079589844,-24.10886573791504,55.37968063354492,18.051753997802734,70.97734069824219,76.54562377929688,65535.0
18713.81499548481,-661.7603759765625,667.1885375976562,810.9200439453125,156.91476440429688,-22.631168365478516,57.83878707885742,20.93165397644043,74.96478271484375,59.783058166503906,65535.0
18713.815395493362,-654.1126098632812,684.8720703125,812.5458984375,199.04930114746094,-19.07495880126953,59.85161590576172,23.08156967163086,77.58068084716797,70.93148040771484,65535.0
18713.815795501912,-667.0852661132812,685.3432006835938,819.8829345703125,171.23873901367188,-22.50167465209961,58.95897674560547,20.52130699157715,76.48548889160156,72.27698516845703,65535.0
18713.816195510466,-673.8252563476562,689.1075439453125,827.1942749023438,131.9011993408203,-18.428285598754883,62.950138092041016,24.57047462463379,79.9303970336914,67.36420440673828,65535.0
18713.81659551902,-688.7109375,695.8551025390625,830.9720458984375,122.00438690185547,-23.17463493347168,56.066062927246094,18.11030387878418,72.2947769165039,70.44451141357422,65535.0
18713.816995527573,-684.6376953125,685.6282958984375,844.0757446289062,112.8265151977539,-14.29582405090332,65.28759765625,28.01228141784668,82.09171295166016,70.36297607421875,65535.0
18713.817395536124,-680.4652709960938,677.1073608398438,853.3853759765625,79.01493835449219,-20.166522979736328,57.721744537353516,24.37704086303711,76.69766998291016,73.74557495117188,65535.0
18713.817795544677,-686.4475708007812,676.6920166015625,861.3836669921875,49.19459533691406,-26.945964813232422,54.43598175048828,18.219337463378906,71.47905731201172,80.38436889648438,65535.0
18713.81819555323,-700.0231323242188,691.8600463867188,854.0761108398438,60.754722595214844,-18.299171447753906,62.84611129760742,25.564184188842773,80.84345245361328,67.02640533447266,65535.0
18713.81859556178,-706.525146484375,694.6647338867188,872.64208984375,66.1642074584961,-22.795137405395508,56.000709533691406,20.112295150756836,76.70053100585938,63.593238830566406,65535.0
18713.818995570335,-727.3975830078125,699.6192626953125,877.9332275390625,74.15216827392578,-25.837669372558594,52.657386779785156,18.09891128540039,71.7473373413086,69.34770202636719,65535.0
18713.81939557889,-781.7064819335938,694.1568603515625,865.0974731445312,36.53205871582031,-25.640953063964844,48.043434143066406,16.16775894165039,71.22799682617188,71.20946502685547,65535.0
18713.819795587442,-845.451416015625,699.7779541015625,870.4170532226562,-50.727813720703125,-29.33365821838379,43.52780532836914,12.902190208435059,67.10160827636719,77.86538696289062,65535.0
18713.820195595992,-859.3524780273438,704.201904296875,874.1820678710938,-90.48272705078125,-24.242685317993164,46.606353759765625,16.067092895507812,69.05671691894531,77.68367004394531,65535.0
18713.820595604546,-822.4575805664062,685.69189453125,872.1380615234375,-105.27687072753906,-31.906898498535156,40.70073318481445,10.532587051391602,67.65526580810547,64.54681396484375,65535.0
18713.8209956131,-812.7775268554688,696.8809814453125,874.1676635742188,-119.38994598388672,-27.127477645874023,46.109859466552734,14.50988483428955,70.14097595214844,64.9249267578125,65535.0
18713.82139562165,-809.990234375,706.9790649414062,876.4857177734375,-99.36663055419922,-29.70859146118164,40.599510192871094,11.678376197814941,66.81289672851562,61.87726593017578,65535.0
18713.821795630203,-823.5064697265625,699.6353149414062,875.390380859375,-60.17729949951172,-32.847328186035156,34.0533447265625,8.817057609558105,63.291831970214844,64.22663879394531,65535.0
18713.822195638757,-808.8795776367188,707.3406982421875,886.3513793945312,-49.11795425415039,-38.24980163574219,28.87839698791504,2.238415002822876,58.69515609741211,65.99427032470703,65535.0
18713.822595647307,-816.6668701171875,707.6925048828125,889.350341796875,-60.774017333984375,-40.46595001220703,24.886672973632812,4.555331230163574,56.56538009643555,78.74525451660156,65535.0
18713.82299565586,-834.4844360351562,709.1629638671875,901.156494140625,-13.506032943725586,-46.67964553833008,15.237899780273438,-2.5729000568389893,49.2655029296875,79.50006866455078,65535.0
18713.823395664414,-864.2891845703125,710.5720825195312,890.3607788085938,24.521028518676758,-45.24578857421875,15.58767032623291,-4.224762439727783,51.54084777832031,73.74801635742188,65535.0
18713.823795672968,-890.0919189453125,694.9067993164062,885.4993896484375,45.066856384277344,-44.19163513183594,16.643587112426758,-0.2650183439254761,55.245548248291016,72.13946533203125,65535.0
18713.824195681518,-891.0502319335938,693.67041015625,891.5144653320312,32.72542190551758,-45.49873733520508,13.097692489624023,-2.5544116497039795,51.797950744628906,66.12380981445312,65535.0
18713.824595690072,-874.8175048828125,695.0011596679688,881.0982055664062,3.0639400482177734,-34.06959533691406,22.94991683959961,6.194359302520752,61.734962463378906,78.61886596679688,65535.0
18713.824995698626,-905.0776977539062,700.42626953125,890.3489990234375,-16.603395462036133,-49.27217483520508,9.256905555725098,-5.189119815826416,46.740318298339844,80.64400482177734,65535.0
18713.825395707176,-935.6050415039062,702.7432861328125,878.158935546875,-41.05677795410156,-45.966949462890625,10.869756698608398,-1.973695993423462,49.597408294677734,77.61785888671875,65535.0
18713.82579571573,-920.5443115234375,692.3494262695312,871.0955200195312,-62.361602783203125,-46.908817291259766,6.321885108947754,-3.6630234718322754,49.02955627441406,82.55098724365234,65535.0
18713.826195724283,-882.0908203125,689.8250732421875,880.001220703125,-78.40177917480469,-58.520137786865234,-3.2783305644989014,-14.320608139038086,40.58684158325195,63.25684356689453,65535.0
18713.826595732837,-825.826171875,678.7930908203125,880.3797607421875,-28.29522705078125,-47.436832427978516,6.8225812911987305,-4.487796783447266,49.8251953125,69.47489929199219,65535.0
18713.826995741387,-769.653564453125,681.2266235351562,887.0004272460938,50.54447555541992,-46.58693313598633,9.969005584716797,-1.5221401453018188,52.08224868774414,74.67532348632812,65535.0
18713.82739574994,-747.3194580078125,687.1840209960938,881.1866455078125,129.44532775878906,-48.107913970947266,8.49219799041748,-1.4557108879089355,49.61029052734375,65.45221710205078,65535.0
18713.827795758494,-756.4813842773438,681.9129028320312,872.5667724609375,156.27178955078125,-43.43111038208008,13.584275245666504,0.6458340883255005,56.60782241821289,76.64837646484375,65535.0
18713.828195767044,-745.852294921875,685.525390625,867.658447265625,82.02094268798828,-39.417232513427734,17.654373168945312,2.7189242839813232,58.23408889770508,74.97423553466797,65535.0
18713.828595775598,-746.7589111328125,681.1499633789062,865.1019897460938,11.343687057495117,-46.18354415893555,12.68574333190918,-1.3415354490280151,50.729061126708984,79.43675231933594,65535.0
18713.82899578415,-763.6533203125,682.4876708984375,865.9990234375,-18.468645095825195,-42.746925354003906,16.505056381225586,1.651605248451233,53.175201416015625,65.38188171386719,65535.0
18713.829395792705,-789.8243408203125,684.3103637695312,865.7833862304688,-22.815837860107422,-46.931976318359375,9.742216110229492,-7.585281848907471,48.378501892089844,67.58677673339844,65535.0
18713.829795801255,-832.8524169921875,688.3217163085938,854.6096801757812,0.9859914779663086,-48.39407730102539,13.694602012634277,-3.126026153564453,51.92903518676758,71.46976470947266,65535.0
18713.83019580981,-838.2384033203125,688.7264404296875,856.9562377929688,26.892818450927734,-43.674095153808594,15.128684043884277,-1.4858568906784058,52.40134811401367,64.52457427978516,65535.0
18713.830595818363,-806.088134765625,694.2963256835938,847.456298828125,55.21352767944336,-34.812129974365234,26.16498565673828,6.8589887619018555,60.39113998413086,81.28472137451172,65535.0
18713.830995826913,-772.7671508789062,687.8513793945312,844.3161010742188,39.16562271118164,-32.40085220336914,32.21479797363281,13.021506309509277,63.938507080078125,65.99893951416016,65535.0
18713.831395835467,-746.9307250976562,675.9754028320312,846.1039428710938,-25.548107147216797,-31.7266902923584,29.698577880859375,7.739300727844238,60.29073715209961,57.15994644165039,65535.0
18713.83179584402,-753.997314453125,674.5335693359375,851.9476318359375,-46.51604461669922,-43.36402893066406,23.673906326293945,-0.14108394086360931,52.4041633605957,67.81248474121094,65535.0
18713.832195852574,-776.6038208007812,668.0194091796875,856.7059326171875,2.8904330730438232,-31.230037689208984,39.60572052001953,13.748687744140625,67.2021713256836,77.78813171386719,65535.0
18713.832595861124,-784.6571655273438,672.9238891601562,845.6275024414062,52.29095458984375,-30.258474349975586,37.94166564941406,12.661825180053711,65.12796783447266,67.28731536865234,65535.0
18713.832995869678,-782.7050170898438,669.039306640625,824.9581298828125,87.37732696533203,-24.9039306640625,46.90671157836914,16.049863815307617,72.67050170898438,79.49451446533203,65535.0
18713.83339587823,-774.3904418945312,672.027587890625,838.5189208984375,98.44751739501953,-12.780142784118652,58.55503845214844,26.8216495513916,83.33828735351562,77.32959747314453,65535.0
18713.83379588678,-776.1885986328125,664.972412109375,848.3609008789062,106.36380004882812,-23.87010383605957,49.596858978271484,17.797405242919922,72.61122131347656,68.60897064208984,65535.0
18713.834195895335,-810.524169921875,675.4022216796875,853.0005493164062,135.0825958251953,-18.545503616333008,57.107582092285156,22.639314651489258,80.55575561523438,73.11787414550781,65535.0
