time,X_NOSE,Y_NOSE,Z_NOSE,visibility_NOSE,X_LEFT_EYE_INNER,Y_LEFT_EYE_INNER,Z_LEFT_EYE_INNER,visibility_LEFT_EYE_INNER,X_LEFT_EYE,Y_LEFT_EYE,Z_LEFT_EYE,visibility_LEFT_EYE,X_LEFT_EYE_OUTER,Y_LEFT_EYE_OUTER,Z_LEFT_EYE_OUTER,visibility_LEFT_EYE_OUTER,X_RIGHT_EYE_OUTER,Y_RIGHT_EYE_OUTER,Z_RIGHT_EYE_OUTER,visibility_RIGHT_EYE_OUTER,X_RIGHT_EYE,Y_RIGHT_EYE,Z_RIGHT_EYE,visibility_RIGHT_EYE,X_RIGHT_EYE_OUTER,Y_RIGHT_EYE_OUTER,Z_RIGHT_EYE_OUTER,visibility_RIGHT_EYE_OUTER,X_LEFT_EAR,Y_LEFT_EAR,Z_LEFT_EAR,visibility_LEFT_EAR,X_RIGHT_EAR,Y_RIGHT_EAR,Z_RIGHT_EAR,visibility_RIGHT_EAR,X_MOUTH_LEFT,Y_MOUTH_LEFT,Z_MOUTH_LEFT,visibility_MOUTH_LEFT,X_MOUTH_RIGHT,Y_MOUTH_RIGHT,Z_MOUTH_RIGHT,visibility_MOUTH_RIGHT,X_LEFT_SHOULDER,Y_LEFT_SHOULDER,Z_LEFT_SHOULDER,visibility_LEFT_SHOULDER,X_RIGHT_SHOULDER,Y_RIGHT_SHOULDER,Z_RIGHT_SHOULDER,visibility_RIGHT_SHOULDER,X_LEFT_ELBOW,Y_LEFT_ELBOW,Z_LEFT_ELBOW,visibility_LEFT_ELBOW,X_RIGHT_ELBOW,Y_RIGHT_ELBOW,Z_RIGHT_ELBOW,visibility_RIGHT_ELBOW,X_LEFT_WRIST,Y_LEFT_WRIST,Z_LEFT_WRIST,visibility_LEFT_WRIST,X_RIGHT_WRIST,Y_RIGHT_WRIST,Z_RIGHT_WRIST,visibility_RIGHT_WRIST,X_LEFT_PINKY,Y_LEFT_PINKY,Z_LEFT_PINKY,visibility_LEFT_PINKY,X_RIGHT_PINKY,Y_RIGHT_PINKY,Z_RIGHT_PINKY,visibility_RIGHT_PINKY,X_LEFT_INDEX,Y_LEFT_INDEX,Z_LEFT_INDEX,visibility_LEFT_INDEX,X_RIGHT_INDEX,Y_RIGHT_INDEX,Z_RIGHT_INDEX,visibility_RIGHT_INDEX,X_LEFT_THUMB,Y_LEFT_THUMB,Z_LEFT_THUMB,visibility_LEFT_THUMB,X_RIGHT_THUMB,Y_RIGHT_THUMB,Z_RIGHT_THUMB,visibility_RIGHT_THUMB,X_LEFT_HIP,Y_LEFT_HIP,Z_LEFT_HIP,visibility_LEFT_HIP,X_RIGHT_HIP,Y_RIGHT_HIP,Z_RIGHT_HIP,visibility_RIGHT_HIP,X_LEFT_KNEE,Y_LEFT_KNEE,Z_LEFT_KNEE,visibility_LEFT_KNEE,X_RIGHT_KNEE,Y_RIGHT_KNEE,Z_RIGHT_KNEE,visibility_RIGHT_KNEE,X_LEFT_ANKLE,Y_LEFT_ANKLE,Z_LEFT_ANKLE,visibility_LEFT_ANKLE,X_RIGHT_ANKLE,Y_RIGHT_ANKLE,Z_RIGHT_ANKLE,visibility_RIGHT_ANKLE,X_LEFT_HEEL,Y_LEFT_HEEL,Z_LEFT_HEEL,visibility_LEFT_HEEL,X_RIGHT_HEEL,Y_RIGHT_HEEL,Z_RIGHT_HEEL,visibility_RIGHT_HEEL,X_LEFT_FOOT_INDEX,Y_LEFT_FOOT_INDEX,Z_LEFT_FOOT_INDEX,visibility_LEFT_FOOT_INDEX,X_RIGHT_FOOT_INDEX,Y_RIGHT_FOOT_INDEX,Z_RIGHT_FOOT_INDEX,visibility_RIGHT_FOOT_INDEX
19513.245087495558,0.44621673226356506,0.2403559684753418,-1.0688024759292603,0.9999866485595703,0.45144882798194885,0.21652990579605103,-1.024759292602539,0.9999573230743408,0.45966681838035583,0.21487024426460266,-1.0248738527297974,0.9999481439590454,0.4674237370491028,0.2133694291114807,-1.024890661239624,0.9999397993087769,0.418876975774765,0.2186109721660614,-1.0595492124557495,0.999968409538269,0.4025138020515442,0.218228280544281,-1.0597670078277588,0.999968409538269,0.38348814845085144,0.21801188588142395,-1.0599421262741089,0.9999653100967407,0.45731404423713684,0.21821340918540955,-0.7033950686454773,0.9999146461486816,0.33542731404304504,0.22607073187828064,-0.8741077780723572,0.9999778270721436,0.45455798506736755,0.26042065024375916,-0.9421248435974121,0.9999918937683105,0.42132148146629333,0.26353341341018677,-0.9903212189674377,0.9999960660934448,0.5330407023429871,0.350707471370697,-0.41201478242874146,0.9999626874923706,0.17826735973358154,0.3665534257888794,-0.7557986974716187,0.9999701976776123,0.5712434649467468,0.514511227607727,-0.18156051635742188,0.9827333688735962,0.16951268911361694,0.5515835881233215,-0.7393802404403687,0.9953674077987671,0.6307633519172668,0.6484506726264954,-0.37329980731010437,0.9866076707839966,0.22137534618377686,0.7123715877532959,-0.9065101742744446,0.9699621200561523,0.6515244245529175,0.6889897584915161,-0.4521622359752655,0.9705389738082886,0.22609148919582367,0.7594467997550964,-1.0005971193313599,0.9430572986602783,0.6349890232086182,0.6897637844085693,-0.5499102473258972,0.9733694791793823,0.26801425218582153,0.7517899870872498,-1.0874956846237183,0.9472352266311646,0.6203659176826477,0.6781580448150635,-0.41634252667427063,0.9732707738876343,0.2745530903339386,0.7376073598861694,-0.9424903988838196,0.9487463235855103,0.4800945222377777,0.6368330717086792,0.1116812601685524,0.9988076686859131,0.3061140477657318,0.6509695649147034,-0.1113533079624176,0.9993337988853455,0.47758352756500244,0.8494791984558105,0.3496515154838562,0.9529024362564087,0.33888325095176697,0.873099148273468,0.046907369047403336,0.9793035984039307,0.4798997938632965,0.9644793272018433,1.0515837669372559,0.8494805097579956,0.34633350372314453,0.9999727606773376,0.5434247851371765,0.9208936095237732,0.4530528783798218,0.9759116768836975,1.1055970191955566,0.8064755797386169,0.33881863951683044,1.000328540802002,0.5782257914543152,0.6770111918449402,0.5445339679718018,1.0265047550201416,0.8918735384941101,0.8031502366065979,0.3885685205459595,1.1116814613342285,0.2250521332025528,0.824070394039154
19529.911754162225,0.4450535476207733,0.2452780306339264,-1.0109082460403442,0.9999849796295166,0.4518946707248688,0.22073772549629211,-0.9726490378379822,0.9999499320983887,0.46023979783058167,0.2192060649394989,-0.9727569222450256,0.9999395608901978,0.46811574697494507,0.21778210997581482,-0.9728099703788757,0.9999308586120605,0.4196595847606659,0.22295036911964417,-1.0053205490112305,0.9999631643295288,0.40292587876319885,0.22267618775367737,-1.00550377368927,0.9999634027481079,0.3836027681827545,0.22247761487960815,-1.005664587020874,0.99996018409729,0.45764321088790894,0.22229334712028503,-0.6764402389526367,0.9999035596847534,0.3340029716491699,0.22986391186714172,-0.8378182649612427,0.9999736547470093,0.4526830017566681,0.26543688774108887,-0.8924040794372559,0.9999905824661255,0.4186139702796936,0.26914140582084656,-0.9379363059997559,0.9999954700469971,0.5314943194389343,0.3504452109336853,-0.40745148062705994,0.9999613761901855,0.176725834608078,0.36877942085266113,-0.7285282015800476,0.9999699592590332,0.5690217018127441,0.5133126378059387,-0.18740805983543396,0.9813625812530518,0.17230337858200073,0.5531688332557678,-0.7180270552635193,0.9947517514228821,0.6302903890609741,0.6472597122192383,-0.3470475375652313,0.9851131439208984,0.22184811532497406,0.7115565538406372,-0.8651186227798462,0.9671934247016907,0.6525031328201294,0.6878738403320312,-0.4216897785663605,0.9682711958885193,0.22794339060783386,0.7588317394256592,-0.9530923962593079,0.9407675862312317,0.6356133222579956,0.6884355545043945,-0.5137577652931213,0.9712052941322327,0.2686079144477844,0.7521233558654785,-1.038136601448059,0.9449712634086609,0.6204008460044861,0.6782084107398987,-0.387188583612442,0.9713646769523621,0.27534952759742737,0.7386225461959839,-0.9003403186798096,0.9471505284309387,0.47932443022727966,0.6341379880905151,0.10356926918029785,0.9987982511520386,0.3085992634296417,0.6480520963668823,-0.10321363061666489,0.9993380904197693,0.4760737121105194,0.8441212773323059,0.3358997106552124,0.9496911764144897,0.3412797152996063,0.8633525967597961,0.04672352597117424,0.9787968397140503,0.47619175910949707,0.9610258936882019,0.9983347654342651,0.8257361650466919,0.34556227922439575,0.9927026629447937,0.49647441506385803,0.9113339185714722,0.4498971700668335,0.9735214710235596,1.0499836206436157,0.7786083221435547,0.33786270022392273,0.9959191083908081,0.5280398726463318,0.6670033931732178,0.5428364872932434,1.0232113599777222,0.8597331643104553,0.7675092816352844,0.3896429240703583,1.1007920503616333,0.1993730068206787,0.7973700761795044
19546.578420828893,0.4463179111480713,0.24680441617965698,-1.0194722414016724,0.9999891519546509,0.4531015157699585,0.2225823998451233,-0.9811059236526489,0.9999645948410034,0.4613524079322815,0.22087645530700684,-0.9812124967575073,0.9999573230743408,0.4690581262111664,0.21918267011642456,-0.9812789559364319,0.9999511241912842,0.42046692967414856,0.22518038749694824,-1.0132887363433838,0.9999740123748779,0.4035106599330902,0.2249777615070343,-1.0134581327438354,0.9999737739562988,0.3842836320400238,0.224869042634964,-1.0135923624038696,0.9999711513519287,0.4599304795265198,0.2231038212776184,-0.6797136664390564,0.9999352693557739,0.3348768353462219,0.231612890958786,-0.8382167816162109,0.999981164932251,0.45471373200416565,0.2673208713531494,-0.8985848426818848,0.9999934434890747,0.42074596881866455,0.27054688334465027,-0.9432704448699951,0.9999967813491821,0.5329082012176514,0.3516068160533905,-0.4109293818473816,0.999967098236084,0.17439623177051544,0.3713771104812622,-0.7136273384094238,0.9999723434448242,0.5710550546646118,0.5127031207084656,-0.18302613496780396,0.9837949275970459,0.1721603125333786,0.5529373288154602,-0.6891350150108337,0.9949119687080383,0.6323652267456055,0.6482694745063782,-0.34757205843925476,0.9857843518257141,0.21961671113967896,0.7114784121513367,-0.8407812118530273,0.966958224773407,0.6537604331970215,0.6887833476066589,-0.42316892743110657,0.9692682027816772,0.22625824809074402,0.7575503587722778,-0.9272318482398987,0.9397587776184082,0.6368757486343384,0.6893185973167419,-0.5179449319839478,0.9722088575363159,0.26670628786087036,0.750554621219635,-1.0147958993911743,0.9443721771240234,0.621324360370636,0.6790831089019775,-0.388997882604599,0.9725473523139954,0.27315258979797363,0.7372037768363953,-0.877114474773407,0.9473889470100403,0.47842928767204285,0.633621096611023,0.09619272500276566,0.9985583424568176,0.30454370379447937,0.6488702297210693,-0.09576191753149033,0.9992061257362366,0.4763351380825043,0.8476207852363586,0.29268544912338257,0.9579354524612427,0.3400896191596985,0.8675419688224792,0.047042813152074814,0.9787467122077942,0.47816506028175354,0.9602492451667786,0.9589701294898987,0.8222523927688599,0.34785163402557373,0.9976105690002441,0.49134305119514465,0.9108197689056396,0.45312368869781494,0.9721583724021912,1.0108047723770142,0.7696167826652527,0.3430185616016388,0.9993560910224915,0.5216840505599976,0.6636448502540588,0.5399139523506165,1.0249656438827515,0.8160356879234314,0.7554421424865723,0.397868812084198,1.1053608655929565,0.1859283447265625,0.7908917665481567
19563.24508749556,0.44793516397476196,0.24334120750427246,-1.0585761070251465,0.9999860525131226,0.4528879225254059,0.2189267873764038,-1.0165468454360962,0.9999547004699707,0.46094027161598206,0.21716171503067017,-1.0166687965393066,0.9999439716339111,0.4685192108154297,0.21551066637039185,-1.016708254814148,0.9999357461929321,0.42041805386543274,0.22150492668151855,-1.051020622253418,0.9999680519104004,0.4039420485496521,0.22133764624595642,-1.0512559413909912,0.9999678134918213,0.38490867614746094,0.22127553820610046,-1.051452398300171,0.9999659061431885,0.4573954641819,0.22009506821632385,-0.7040559649467468,0.9999121427536011,0.335760235786438,0.2285754680633545,-0.8722708821296692,0.9999786615371704,0.45637407898902893,0.2635287046432495,-0.9345402717590332,0.9999915361404419,0.42268601059913635,0.2670997083187103,-0.9820892214775085,0.9999960660934448,0.5310447216033936,0.3515276610851288,-0.41823723912239075,0.9999555349349976,0.17700594663619995,0.3705337643623352,-0.755344808101654,0.999969482421875,0.5695621371269226,0.5146327018737793,-0.187211811542511,0.9827386736869812,0.17051024734973907,0.5569632053375244,-0.7402552366256714,0.9952994585037231,0.6317249536514282,0.6479867100715637,-0.3608846068382263,0.9853166937828064,0.22234565019607544,0.7148074507713318,-0.9013565182685852,0.9707159399986267,0.6533886194229126,0.6891825795173645,-0.43592000007629395,0.9676745533943176,0.22751009464263916,0.7610808610916138,-0.9931909441947937,0.9441274404525757,0.6374589204788208,0.6896964311599731,-0.5311201810836792,0.970823347568512,0.26949745416641235,0.7525615692138672,-1.0788202285766602,0.9483473896980286,0.6233236193656921,0.6780583262443542,-0.40258920192718506,0.9710720777511597,0.2756509482860565,0.7383573055267334,-0.936395525932312,0.9497910737991333,0.4780401885509491,0.6375632286071777,0.10418267548084259,0.9984323382377625,0.3062344193458557,0.6525691151618958,-0.10387778282165527,0.9991378784179688,0.4745076894760132,0.8536822199821472,0.32303091883659363,0.9508109092712402,0.33994385600090027,0.875838577747345,0.05130297318100929,0.9741860628128052,0.47895902395248413,0.9664601683616638,1.008107304573059,0.8312172293663025,0.3501242399215698,1.0046758651733398,0.5445191860198975,0.9032210111618042,0.4542969763278961,0.9762604832649231,1.060588002204895,0.7847881317138672,0.3368099331855774,1.0444624423980713,0.5789319276809692,0.6504018902778625,0.5413819551467896,1.0280076265335083,0.8430802226066589,0.7778574228286743,0.3962564468383789,1.1173299551010132,0.22491998970508575,0.7913873791694641
19579.91175416223,0.44686418771743774,0.2458472102880478,-1.002058506011963,0.9999902248382568,0.4532037079334259,0.22129637002944946,-0.9651264548301697,0.9999676942825317,0.4614241123199463,0.21955686807632446,-0.9652074575424194,0.9999600648880005,0.469063401222229,0.2178894579410553,-0.9652580618858337,0.9999539852142334,0.42029112577438354,0.22407731413841248,-0.997342586517334,0.9999778270721436,0.4032183587551117,0.2239963412284851,-0.9975279569625854,0.9999779462814331,0.3837898373603821,0.2239842414855957,-0.9976658821105957,0.999976396560669,0.45967182517051697,0.2221595048904419,-0.6727089881896973,0.9999368190765381,0.33460569381713867,0.23123446106910706,-0.832046389579773,0.999984860420227,0.4555022716522217,0.26625198125839233,-0.8845626711845398,0.9999936819076538,0.4213247299194336,0.2698812186717987,-0.9295303225517273,0.9999972581863403,0.5336623787879944,0.35218825936317444,-0.4098037779331207,0.9999604225158691,0.1743878573179245,0.37204471230506897,-0.7179369330406189,0.999976634979248,0.5686380863189697,0.5140096545219421,-0.178495854139328,0.980585515499115,0.17258955538272858,0.5531667470932007,-0.694740355014801,0.9955124258995056,0.6325556635856628,0.647922694683075,-0.31810930371284485,0.9830537438392639,0.2208676040172577,0.7120535373687744,-0.8273618221282959,0.9702346324920654,0.6545345187187195,0.6885667443275452,-0.3869684636592865,0.9641612768173218,0.22851240634918213,0.7577542066574097,-0.9091613292694092,0.9443132877349854,0.6380971670150757,0.6890425086021423,-0.4782670736312866,0.9674397110939026,0.26739129424095154,0.7506933212280273,-0.9914283752441406,0.9484845399856567,0.6227308511734009,0.6788642406463623,-0.3575955033302307,0.9682431817054749,0.27318257093429565,0.737368643283844,-0.8609868288040161,0.9511656761169434,0.47942066192626953,0.633670449256897,0.09666670858860016,0.9984742999076843,0.30482929944992065,0.6491868495941162,-0.0963103398680687,0.9992475509643555,0.477011114358902,0.8457266688346863,0.3103240430355072,0.9573739171028137,0.3410685360431671,0.8702046275138855,0.04950728267431259,0.9795467257499695,0.4769515097141266,0.9592769145965576,0.9640187621116638,0.8189375400543213,0.3499239385128021,0.9968047142028809,0.47345563769340515,0.9106401801109314,0.45184221863746643,0.9716998934745789,1.015311598777771,0.7634882926940918,0.34648773074150085,0.9978244304656982,0.5024574398994446,0.6537964344024658,0.5398832559585571,1.0217177867889404,0.8301578760147095,0.7545550465583801,0.40188533067703247,1.1071715354919434,0.1738867312669754,0.7915294766426086
19596.578420828897,0.4471677839756012,0.24599561095237732,-1.0642272233963013,0.9999908208847046,0.45382875204086304,0.22172629833221436,-1.023681402206421,0.999970555305481,0.46226635575294495,0.22018229961395264,-1.0237585306167603,0.999963641166687,0.470134973526001,0.21867027878761292,-1.0237987041473389,0.9999580383300781,0.4210384488105774,0.22396862506866455,-1.0557512044906616,0.9999785423278809,0.40421709418296814,0.2236197590827942,-1.0559263229370117,0.9999784231185913,0.38466590642929077,0.2233274281024933,-1.0560553073883057,0.999976634979248,0.45982587337493896,0.22256499528884888,-0.7143146991729736,0.9999375343322754,0.33532607555389404,0.23013654351234436,-0.8738757967948914,0.9999840259552002,0.455390065908432,0.26646921038627625,-0.9414350390434265,0.9999940395355225,0.42129185795783997,0.2695175111293793,-0.9863138794898987,0.9999972581863403,0.5322967171669006,0.35140952467918396,-0.4394031763076782,0.9999651908874512,0.17573946714401245,0.371438592672348,-0.748633623123169,0.9999748468399048,0.5702035427093506,0.5139246582984924,-0.21665489673614502,0.9818388223648071,0.17070233821868896,0.5526604056358337,-0.7308218479156494,0.9950454235076904,0.631611704826355,0.6481207013130188,-0.3977668583393097,0.9850487112998962,0.22247295081615448,0.7122125625610352,-0.8864181637763977,0.9684905409812927,0.6539455652236938,0.6891353130340576,-0.47735896706581116,0.9681168794631958,0.23019243776798248,0.7589920163154602,-0.9772190451622009,0.9415844678878784,0.63778156042099,0.689595103263855,-0.5725273489952087,0.9710438251495361,0.26982051134109497,0.7510421276092529,-1.0611249208450317,0.9456738829612732,0.6226994395256042,0.6797932386398315,-0.43989232182502747,0.9712353348731995,0.27616703510284424,0.7368742227554321,-0.9213724732398987,0.9481812715530396,0.48022496700286865,0.6349287033081055,0.10375532507896423,0.9987502098083496,0.3096430003643036,0.6498830914497375,-0.10341805964708328,0.9993700385093689,0.4807451665401459,0.8457894921302795,0.3578071594238281,0.9609258770942688,0.34146690368652344,0.8668279051780701,0.053270429372787476,0.9837640523910522,0.47791963815689087,0.9605676531791687,1.0472874641418457,0.869210958480835,0.34872353076934814,0.9960015416145325,0.5243951082229614,0.9344740509986877,0.4504903554916382,0.9750305414199829,1.1008071899414062,0.8188450336456299,0.34573957324028015,0.9981443285942078,0.5570780038833618,0.7121362686157227,0.5442767143249512,1.0256086587905884,0.8976925015449524,0.8198339343070984,0.3930451571941376,1.103689432144165,0.21467755734920502,0.8408079147338867
19613.245087495565,0.4462445378303528,0.2456267774105072,-1.047720193862915,0.9999872446060181,0.45184722542762756,0.22153633832931519,-1.0104336738586426,0.9999563694000244,0.45977678894996643,0.22000867128372192,-1.0105102062225342,0.9999470710754395,0.46734920144081116,0.21853962540626526,-1.010573148727417,0.9999396800994873,0.42007413506507874,0.22387486696243286,-1.0426446199417114,0.9999693632125854,0.40363332629203796,0.22383493185043335,-1.0428171157836914,0.9999692440032959,0.3847038149833679,0.22383958101272583,-1.0429651737213135,0.9999667406082153,0.4585166871547699,0.22319024801254272,-0.7128778696060181,0.9999157190322876,0.3347349166870117,0.23127323389053345,-0.871759295463562,0.9999774694442749,0.45452067255973816,0.2664218246936798,-0.9282246828079224,0.999991774559021,0.42130520939826965,0.26948609948158264,-0.9730008840560913,0.9999960660934448,0.5323358178138733,0.35144999623298645,-0.4450531601905823,0.9999598264694214,0.1761489361524582,0.37239253520965576,-0.7486746311187744,0.9999723434448242,0.5697497725486755,0.5138682126998901,-0.2144334465265274,0.9811020493507385,0.17472413182258606,0.554427444934845,-0.7231504917144775,0.9942018389701843,0.6314592957496643,0.6478122472763062,-0.36410364508628845,0.982925295829773,0.22141863405704498,0.7122010588645935,-0.8581590056419373,0.9635666608810425,0.6544508934020996,0.6891323328018188,-0.43895024061203003,0.9640539884567261,0.22736823558807373,0.7596212029457092,-0.9430729746818542,0.9349676966667175,0.6378532648086548,0.6894466280937195,-0.5308592915534973,0.9673617482185364,0.26792240142822266,0.7520804405212402,-1.0304017066955566,0.9394667744636536,0.6222788095474243,0.679441511631012,-0.4042925536632538,0.9678192138671875,0.2743225693702698,0.7379891872406006,-0.8942423462867737,0.9427618384361267,0.4802660048007965,0.6321592330932617,0.09786109626293182,0.9984980821609497,0.3058450222015381,0.6481651663780212,-0.0974726751446724,0.9992817044258118,0.480476438999176,0.8414947986602783,0.3437938392162323,0.9578564763069153,0.3413080871105194,0.8656463623046875,0.058707211166620255,0.9806373119354248,0.4815033972263336,0.96063232421875,1.0068525075912476,0.8490399122238159,0.34844210743904114,0.9949476718902588,0.5173134207725525,0.9198269844055176,0.45593488216400146,0.9724990129470825,1.0581451654434204,0.7993964552879333,0.34497323632240295,0.995773434638977,0.5489982962608337,0.6929084062576294,0.5425373315811157,1.022741675376892,0.8599018454551697,0.7908663153648376,0.3954280614852905,1.0987458229064941,0.2161056399345398,0.8101096749305725
19629.911754162233,0.4475378096103668,0.24518045783042908,-0.998471736907959,0.9999880790710449,0.4532138407230377,0.2205207347869873,-0.9619926810264587,0.9999591112136841,0.46133002638816833,0.21881890296936035,-0.96206134557724,0.9999489784240723,0.46883031725883484,0.2172088921070099,-0.9620987772941589,0.9999414682388306,0.41989588737487793,0.2230263352394104,-0.9937077760696411,0.9999722242355347,0.40265658497810364,0.22280332446098328,-0.9939191937446594,0.999972939491272,0.3831818997859955,0.2226422131061554,-0.9940624237060547,0.9999715089797974,0.4578217566013336,0.2220076322555542,-0.6755934953689575,0.9999176263809204,0.3338223993778229,0.23011735081672668,-0.8324706554412842,0.9999806880950928,0.45577678084373474,0.26584747433662415,-0.8837180137634277,0.9999921321868896,0.421536386013031,0.26913127303123474,-0.927942156791687,0.9999964237213135,0.5331351161003113,0.3529742360115051,-0.4215741455554962,0.999953031539917,0.17606450617313385,0.3732409179210663,-0.7300781607627869,0.999972939491272,0.5689932107925415,0.5144926905632019,-0.1866529881954193,0.9787458181381226,0.17544445395469666,0.5566399097442627,-0.7060558795928955,0.9951099753379822,0.6298769116401672,0.6485021114349365,-0.299909770488739,0.9818045496940613,0.22155159711837769,0.714030385017395,-0.8242267966270447,0.9692922830581665,0.6532677412033081,0.6892674565315247,-0.36382731795310974,0.9619390964508057,0.22775526344776154,0.7607697248458862,-0.903933584690094,0.943134605884552,0.6368169784545898,0.6895225644111633,-0.45095548033714294,0.9652909636497498,0.2678544223308563,0.752922773361206,-0.9841181039810181,0.9472804665565491,0.6216949820518494,0.6795023083686829,-0.3369647264480591,0.9664170145988464,0.27334707975387573,0.739281177520752,-0.8571537137031555,0.9503467082977295,0.4815000593662262,0.635014533996582,0.09659645706415176,0.998555600643158,0.30793172121047974,0.6510140299797058,-0.09633858501911163,0.9992654919624329,0.4786525070667267,0.8457284569740295,0.3197321593761444,0.9543733596801758,0.3395877182483673,0.8703744411468506,0.0630587562918663,0.9781233668327332,0.4788857102394104,0.9605453014373779,0.989660382270813,0.832552969455719,0.3461046814918518,0.9939611554145813,0.5303875803947449,0.9141174554824829,0.4538983404636383,0.9713272452354431,1.0431030988693237,0.7848192453384399,0.34147730469703674,0.996139407157898,0.5644515752792358,0.6718051433563232,0.5391908884048462,1.0269577503204346,0.8608651161193848,0.7808860540390015,0.39546748995780945,1.1024596691131592,0.24509966373443604,0.8060324788093567
19646.5784208289,0.44431108236312866,0.2451677918434143,-1.026881217956543,0.9999845027923584,0.4501818120479584,0.21936684846878052,-0.9868381023406982,0.9999501705169678,0.45835551619529724,0.21755534410476685,-0.9869563579559326,0.9999392032623291,0.4662652909755707,0.21591749787330627,-0.9870086312294006,0.9999308586120605,0.4178406000137329,0.2226155400276184,-1.018385887145996,0.9999634027481079,0.4010198712348938,0.22300857305526733,-1.0186117887496948,0.9999630451202393,0.38253656029701233,0.22347208857536316,-1.0187917947769165,0.9999600648880005,0.45930540561676025,0.22109901905059814,-0.67948317527771,0.9999057054519653,0.33385953307151794,0.23097649216651917,-0.8349994421005249,0.999974250793457,0.4543750584125519,0.26505139470100403,-0.9041346311569214,0.999990701675415,0.420284241437912,0.2683340013027191,-0.9480553865432739,0.9999953508377075,0.5326181054115295,0.35295578837394714,-0.3989841043949127,0.9999566078186035,0.17413553595542908,0.36991265416145325,-0.7164320945739746,0.9999648332595825,0.5690457820892334,0.513411283493042,-0.17013199627399445,0.9827950596809387,0.1697763204574585,0.5497503280639648,-0.6982625126838684,0.9944615960121155,0.6291714906692505,0.6472669243812561,-0.33062323927879333,0.9854553937911987,0.22393055260181427,0.7096909284591675,-0.8507114052772522,0.9629676938056946,0.651793360710144,0.6881113052368164,-0.4014256000518799,0.9684388637542725,0.2322578877210617,0.7563821077346802,-0.937539279460907,0.9309781193733215,0.6364421844482422,0.688734233379364,-0.49646303057670593,0.9713913202285767,0.27074894309043884,0.7483678460121155,-1.019376516342163,0.9358178973197937,0.6224185824394226,0.6783053278923035,-0.3713468611240387,0.9715563654899597,0.2775784730911255,0.7346055507659912,-0.8842707276344299,0.938325047492981,0.48030176758766174,0.6362810134887695,0.10128214210271835,0.9985929131507874,0.30996957421302795,0.650277316570282,-0.10101750493049622,0.9991399049758911,0.4749804437160492,0.8514289259910583,0.2899722158908844,0.9516765475273132,0.33771461248397827,0.8722177147865295,0.04340774938464165,0.974536120891571,0.4757133424282074,0.9664981365203857,0.9635310173034668,0.8316331505775452,0.35091835260391235,1.002859354019165,0.52497798204422,0.9085611701011658,0.45109453797340393,0.977737307548523,1.015355110168457,0.7798563241958618,0.3389732241630554,1.041748285293579,0.5587741136550903,0.6536532640457153,0.5393393039703369,1.0303659439086914,0.8029865026473999,0.7767939567565918,0.39314740896224976,1.1148927211761475,0.21192538738250732,0.8026133179664612
19663.24508749557,0.4468913972377777,0.24585074186325073,-1.0045644044876099,0.9999818801879883,0.45280560851097107,0.2211700677871704,-0.9655442237854004,0.9999403953552246,0.46087589859962463,0.21944117546081543,-0.9656692147254944,0.9999271631240845,0.4684399962425232,0.21777373552322388,-0.9657232165336609,0.9999179840087891,0.42077183723449707,0.22404801845550537,-0.9998219013214111,0.9999579191207886,0.4041949212551117,0.22402197122573853,-1.0000489950180054,0.9999575614929199,0.38504505157470703,0.2240709364414215,-1.000249981880188,0.9999550580978394,0.45836058259010315,0.22265470027923584,-0.6666008234024048,0.999889612197876,0.33582448959350586,0.230942040681839,-0.8337208032608032,0.9999710321426392,0.45515766739845276,0.26614025235176086,-0.8846758604049683,0.9999892711639404,0.42153996229171753,0.26988038420677185,-0.9319555163383484,0.9999946355819702,0.5310927629470825,0.3523777723312378,-0.40060409903526306,0.9999520778656006,0.1771995723247528,0.3703354001045227,-0.7168383598327637,0.9999581575393677,0.5694172382354736,0.5139525532722473,-0.1659574955701828,0.9832630157470703,0.16952188313007355,0.5559377670288086,-0.6943795680999756,0.9949514865875244,0.6317297220230103,0.6478357315063477,-0.3102193772792816,0.986078679561615,0.22166560590267181,0.7137200236320496,-0.8321229815483093,0.9685579538345337,0.6530763506889343,0.6888390183448792,-0.3785972595214844,0.9692671895027161,0.2253996878862381,0.7594453692436218,-0.9162297248840332,0.9403123259544373,0.6370431184768677,0.6892210841178894,-0.4708898365497589,0.9723197817802429,0.2673817574977875,0.7524340152740479,-0.9984132051467896,0.9448801279067993,0.6229119896888733,0.6781044006347656,-0.3495728373527527,0.9726470112800598,0.2739145755767822,0.7387456297874451,-0.8653661608695984,0.94685959815979,0.4796757996082306,0.636898934841156,0.09112656861543655,0.9983223080635071,0.30565133690834045,0.6514517068862915,-0.09083519130945206,0.998927652835846,0.47237372398376465,0.8564131259918213,0.2677055895328522,0.9507336020469666,0.3376658856868744,0.8738126754760742,0.057119037955999374,0.9665061831474304,0.4800020158290863,0.9690853357315063,0.9404930472373962,0.8201127052307129,0.34938567876815796,1.0019440650939941,0.56501704454422,0.8859338164329529,0.4559471309185028,0.9775323867797852,0.9927278757095337,0.7708330154418945,0.3432110548019409,1.0021698474884033,0.6019942760467529,0.6244240999221802,0.5372886061668396,1.032205581665039,0.7774515151977539,0.7559595704078674,0.3852281868457794,1.1146949529647827,0.2574494779109955,0.760979950428009
19679.911754162236,0.4482751786708832,0.24567580223083496,-1.01864755153656,0.999985933303833,0.4535900354385376,0.22082114219665527,-0.9786407351493835,0.9999537467956543,0.46131113171577454,0.21910056471824646,-0.9787497520446777,0.9999432563781738,0.46852758526802063,0.2174447476863861,-0.9787983894348145,0.9999352693557739,0.42241838574409485,0.22374793887138367,-1.0127325057983398,0.9999675750732422,0.4061926007270813,0.22382774949073792,-1.0129494667053223,0.9999676942825317,0.3870464861392975,0.22396039962768555,-1.0131295919418335,0.9999656677246094,0.45809268951416016,0.2223615050315857,-0.6777305006980896,0.9999109506607056,0.33747777342796326,0.23095178604125977,-0.8446901440620422,0.9999778270721436,0.4558727443218231,0.2660553753376007,-0.8987126350402832,0.9999914169311523,0.42281922698020935,0.26988476514816284,-0.9458655118942261,0.9999959468841553,0.5306473970413208,0.35270431637763977,-0.4091881513595581,0.9999552965164185,0.17693744599819183,0.37191325426101685,-0.7316669821739197,0.9999657869338989,0.5683446526527405,0.5139857530593872,-0.1774127036333084,0.9827573299407959,0.1706162393093109,0.5567273497581482,-0.715304434299469,0.9953870177268982,0.6316573023796082,0.6475529074668884,-0.32812097668647766,0.9861121773719788,0.22163325548171997,0.7142634987831116,-0.8571696877479553,0.9709511399269104,0.652611494064331,0.6888799071311951,-0.39915087819099426,0.9696113467216492,0.22561685740947723,0.7601683735847473,-0.943867027759552,0.9447905421257019,0.6367084980010986,0.6892314553260803,-0.49124833941459656,0.9725297689437866,0.26735788583755493,0.753159761428833,-1.0264376401901245,0.9488195776939392,0.6225438714027405,0.6781113147735596,-0.36783453822135925,0.972622811794281,0.2737894654273987,0.7395756840705872,-0.8908002972602844,0.9505834579467773,0.47971704602241516,0.636714518070221,0.09766696393489838,0.9984858632087708,0.30682599544525146,0.6517748236656189,-0.09737887233495712,0.9991346001625061,0.47401514649391174,0.8499045372009277,0.3111376464366913,0.9520122408866882,0.34107083082199097,0.8729232549667358,0.05314259231090546,0.972733199596405,0.4794110655784607,0.9646748900413513,0.9832355380058289,0.830853283405304,0.3480065166950226,1.0003952980041504,0.5364592671394348,0.8990865349769592,0.454493910074234,0.97491455078125,1.0355188846588135,0.7823024392127991,0.34015288949012756,0.9985494017601013,0.5708959698677063,0.6438660621643066,0.5363359451293945,1.0305044651031494,0.8281069397926331,0.7743887305259705,0.38932090997695923,1.1115137338638306,0.22841930389404297,0.7816306352615356
19696.578420828904,0.4444142282009125,0.24552595615386963,-0.9723806977272034,0.9999861717224121,0.45183396339416504,0.2215002477169037,-0.9329218864440918,0.9999551773071289,0.46028876304626465,0.22016140818595886,-0.9330477714538574,0.9999455213546753,0.468438059091568,0.21891328692436218,-0.9331104755401611,0.9999387264251709,0.41883400082588196,0.22308996319770813,-0.9660307168960571,0.9999668598175049,0.40210822224617004,0.2227228283882141,-0.9662348031997681,0.9999666213989258,0.38322219252586365,0.22251281142234802,-0.9664017558097839,0.9999639987945557,0.4609663188457489,0.22371742129325867,-0.6381500363349915,0.9999147653579712,0.335144966840744,0.22966602444648743,-0.8008737564086914,0.9999767541885376,0.45249566435813904,0.2659626007080078,-0.8549163937568665,0.9999912977218628,0.4190334379673004,0.2681855857372284,-0.9008693695068359,0.9999957084655762,0.5301554799079895,0.3521689474582672,-0.37472808361053467,0.9999580383300781,0.1772642582654953,0.36974766850471497,-0.6997340321540833,0.9999648332595825,0.5683407187461853,0.512394368648529,-0.15788814425468445,0.981933057308197,0.17442546784877777,0.5533959865570068,-0.6859385371208191,0.9947133660316467,0.6288818120956421,0.6486168503761292,-0.3089997172355652,0.9860337376594543,0.22109584510326385,0.7129477858543396,-0.8218957185745239,0.9678003787994385,0.6526843905448914,0.6889516711235046,-0.37963569164276123,0.9695324301719666,0.22733615338802338,0.7584199905395508,-0.9067031741142273,0.9400568008422852,0.636480450630188,0.6894475817680359,-0.4719124436378479,0.9724659323692322,0.26820504665374756,0.7516762018203735,-0.9882382750511169,0.9444113373756409,0.6211895942687988,0.6789612174034119,-0.3490476906299591,0.9726770520210266,0.27454879879951477,0.7381274700164795,-0.8553697466850281,0.9467450380325317,0.480195552110672,0.6344273090362549,0.10166972875595093,0.9985727071762085,0.30820924043655396,0.6498486995697021,-0.10135955363512039,0.999152660369873,0.47460079193115234,0.849907398223877,0.2891855239868164,0.9463555216789246,0.33778053522109985,0.8743312954902649,0.03072322905063629,0.9724751710891724,0.47684594988822937,0.9672420024871826,0.9360721111297607,0.7991230487823486,0.34872567653656006,1.0005195140838623,0.47548404335975647,0.8930382132530212,0.4511858820915222,0.9776619076728821,0.9857170581817627,0.7441034913063049,0.3427061438560486,1.0002473592758179,0.5060356259346008,0.6151125431060791,0.5352386236190796,1.0331059694290161,0.7868757843971252,0.7318981885910034,0.38714998960494995,1.112633466720581,0.1697656661272049,0.768651008605957
19713.245087495572,0.44712233543395996,0.24594740569591522,-0.9892778992652893,0.9999860525131226,0.4537411332130432,0.22163403034210205,-0.9488930106163025,0.9999566078186035,0.46198076009750366,0.22005042433738708,-0.9490196108818054,0.9999469518661499,0.4696683883666992,0.21851631999015808,-0.9490586519241333,0.9999399185180664,0.421804815530777,0.22422680258750916,-0.9836541414260864,0.999967098236084,0.40519773960113525,0.22405022382736206,-0.9838569164276123,0.9999668598175049,0.38553687930107117,0.22392353415489197,-0.984003484249115,0.9999638795852661,0.4586881399154663,0.2230769693851471,-0.6465161442756653,0.99991774559021,0.33515530824661255,0.23098638653755188,-0.817193865776062,0.999976634979248,0.4547758102416992,0.2663361132144928,-0.8689970970153809,0.999991774559021,0.42160752415657043,0.2696784436702728,-0.9171420931816101,0.9999958276748657,0.5306528806686401,0.3527747392654419,-0.3854743242263794,0.9999624490737915,0.17398200929164886,0.37227073311805725,-0.7030566930770874,0.9999617338180542,0.5701806545257568,0.513507604598999,-0.16499336063861847,0.9839412569999695,0.17464520037174225,0.5535086989402771,-0.6819063425064087,0.9944390058517456,0.6295218467712402,0.6469661593437195,-0.3312550485134125,0.986560583114624,0.22112952172756195,0.7106136679649353,-0.8287867307662964,0.9654595851898193,0.6512854099273682,0.6884850859642029,-0.40496888756752014,0.9704232215881348,0.22990868985652924,0.7574499845504761,-0.9151959419250488,0.937328577041626,0.6362502574920654,0.6891864538192749,-0.49869221448898315,0.9733201265335083,0.2684851288795471,0.7503804564476013,-1.000398874282837,0.942196249961853,0.6225100755691528,0.678640604019165,-0.37211501598358154,0.9737719297409058,0.2750038802623749,0.736570417881012,-0.8639042377471924,0.9451408386230469,0.480442613363266,0.6371862888336182,0.09977592527866364,0.9987170696258545,0.3086530268192291,0.6502483487129211,-0.09945085644721985,0.9991025924682617,0.47490084171295166,0.8523692488670349,0.2926159203052521,0.9508065581321716,0.33678239583969116,0.8729543685913086,0.05184284597635269,0.9725908637046814,0.4768475890159607,0.9673179388046265,0.9435644745826721,0.8337889313697815,0.34823235869407654,0.99827641248703,0.5418069362640381,0.8997599482536316,0.4528629779815674,0.9774567484855652,0.993220865726471,0.7890403270721436,0.3421999216079712,0.9993337988853455,0.5769047737121582,0.6502467393875122,0.5402015447616577,1.03152334690094,0.7831197381019592,0.7763320803642273,0.3872074484825134,1.1079210042953491,0.23969918489456177,0.783955991268158
19729.91175416224,0.4441653788089752,0.24660570919513702,-1.0018492937088013,0.999987006187439,0.45148396492004395,0.22238609194755554,-0.9615170359611511,0.9999592304229736,0.45996323227882385,0.22113969922065735,-0.9616485238075256,0.9999507665634155,0.46814608573913574,0.21997728943824768,-0.961706280708313,0.9999444484710693,0.4193170666694641,0.22393780946731567,-0.9938187599182129,0.9999680519104004,0.4030504822731018,0.2236795723438263,-0.9940025806427002,0.9999672174453735,0.3842519223690033,0.2234993875026703,-0.9941502809524536,0.9999637603759766,0.46027490496635437,0.22441229224205017,-0.6563862562179565,0.9999243021011353,0.33573848009109497,0.23053407669067383,-0.8165533542633057,0.9999758005142212,0.4523141384124756,0.26701316237449646,-0.8802955746650696,0.9999924898147583,0.4193074405193329,0.2692984342575073,-0.9254446625709534,0.9999960660934448,0.5326217412948608,0.35228949785232544,-0.3921598196029663,0.9999676942825317,0.17744334042072296,0.3697573244571686,-0.6906957030296326,0.9999619722366333,0.5704582333564758,0.5145461559295654,-0.17471812665462494,0.9863177537918091,0.173310324549675,0.552786648273468,-0.66869056224823,0.9938080906867981,0.6294687390327454,0.6482043862342834,-0.35197120904922485,0.9892527461051941,0.22177724540233612,0.7098199725151062,-0.8284860849380493,0.9632779955863953,0.6522236466407776,0.6887739300727844,-0.4294653534889221,0.9759632349014282,0.22957241535186768,0.7573949694633484,-0.9171879291534424,0.9343048930168152,0.6356393098831177,0.6893334984779358,-0.525452196598053,0.9783373475074768,0.2686649560928345,0.7508625984191895,-1.0023037195205688,0.9391543865203857,0.6209828853607178,0.6790803670883179,-0.3936316668987274,0.9781784415245056,0.27591294050216675,0.7370423674583435,-0.8638972043991089,0.94205641746521,0.48121556639671326,0.6345519423484802,0.09739362448453903,0.9987671375274658,0.3092705011367798,0.647954523563385,-0.09704902023077011,0.9991482496261597,0.47484883666038513,0.851307213306427,0.2840108871459961,0.9533054232597351,0.3366074562072754,0.8705108761787415,0.043474625796079636,0.9748882055282593,0.4756583571434021,0.9655771851539612,0.9472384452819824,0.8338528275489807,0.3502270579338074,0.998069703578949,0.5225440263748169,0.9060096144676208,0.45100346207618713,0.9766783714294434,0.9981410503387451,0.7859822511672974,0.33391714096069336,1.033653974533081,0.5562321543693542,0.6583561897277832,0.5399829149246216,1.026983380317688,0.7887570858001709,0.7748353481292725,0.3885047435760498,1.1062829494476318,0.2154361754655838,0.7911317944526672
19746.578420828908,0.44402146339416504,0.24617455899715424,-1.038397192955017,0.9999839067459106,0.4510379135608673,0.22159865498542786,-0.9986652731895447,0.9999481439590454,0.45916280150413513,0.22003158926963806,-0.9987810254096985,0.9999372959136963,0.4669259786605835,0.21853333711624146,-0.9988391399383545,0.9999291896820068,0.4190441966056824,0.2243974506855011,-1.0318405628204346,0.9999608993530273,0.4022800922393799,0.22449392080307007,-1.0320576429367065,0.9999606609344482,0.3831944465637207,0.22458380460739136,-1.0322198867797852,0.9999575614929199,0.4577976167201996,0.22374197840690613,-0.6929906606674194,0.999903678894043,0.3351380228996277,0.23174527287483215,-0.8559451103210449,0.9999715089797974,0.45213499665260315,0.26674288511276245,-0.9163544178009033,0.9999902248382568,0.4182260036468506,0.27008822560310364,-0.9624221920967102,0.9999948740005493,0.5306730270385742,0.3536575734615326,-0.4207090139389038,0.9999552965164185,0.17413461208343506,0.3715103566646576,-0.7302469611167908,0.9999597072601318,0.5686739087104797,0.5146186947822571,-0.19008223712444305,0.9838171005249023,0.1730937510728836,0.5528045892715454,-0.7036976218223572,0.9942944645881653,0.6285091042518616,0.6492859721183777,-0.34692588448524475,0.9856472015380859,0.21811459958553314,0.7085182070732117,-0.8565647006034851,0.9654720425605774,0.6507147550582886,0.6891450881958008,-0.41863495111465454,0.9682736992835999,0.22752662003040314,0.7574736475944519,-0.9434581398963928,0.9371723532676697,0.6351314187049866,0.6904696226119995,-0.513530969619751,0.9712651371955872,0.2652572989463806,0.7494575381278992,-1.031440019607544,0.9417309761047363,0.6212580800056458,0.6787805557250977,-0.3879495859146118,0.9715695381164551,0.27141034603118896,0.7350742220878601,-0.8930354714393616,0.9441543221473694,0.47895532846450806,0.6373366117477417,0.09543343633413315,0.9985093474388123,0.3057992160320282,0.651452362537384,-0.09513002634048462,0.9990032315254211,0.4758995473384857,0.8501914739608765,0.2976071536540985,0.9549456238746643,0.33686286211013794,0.8699139356613159,0.06142040342092514,0.975440502166748,0.47520357370376587,0.9681561589241028,0.9403036832809448,0.8523321747779846,0.3510102927684784,0.9977632761001587,0.5599386096000671,0.9080158472061157,0.4502880275249481,0.976664662361145,0.9883323311805725,0.799118161201477,0.34508663415908813,0.9981945753097534,0.5951570868492126,0.6607205271720886,0.5353254079818726,1.0287997722625732,0.7666165232658386,0.8015382885932922,0.39399784803390503,1.1059315204620361,0.2500101625919342,0.801170825958252
19763.245087495576,0.4443497955799103,0.24482953548431396,-1.0036227703094482,0.9999860525131226,0.4503147304058075,0.22076889872550964,-0.9610755443572998,0.9999555349349976,0.4582979381084442,0.2193583846092224,-0.9612130522727966,0.9999454021453857,0.4660027027130127,0.2180267870426178,-0.9612536430358887,0.9999377727508545,0.4185444116592407,0.22294747829437256,-0.9950399994850159,0.9999659061431885,0.40203461050987244,0.22290214896202087,-0.9952408671379089,0.9999649524688721,0.38316813111305237,0.2229434847831726,-0.9954153299331665,0.9999620914459229,0.4560405910015106,0.2232002317905426,-0.6526458859443665,0.9999169111251831,0.33551567792892456,0.23043105006217957,-0.8189688324928284,0.9999750852584839,0.4520137310028076,0.2654832899570465,-0.8815649151802063,0.9999920129776001,0.419079452753067,0.2680872976779938,-0.9285680651664734,0.9999958276748657,0.5270265340805054,0.35354185104370117,-0.3913256824016571,0.9999622106552124,0.1740485280752182,0.37199172377586365,-0.695402204990387,0.9999594688415527,0.5669150948524475,0.5138579607009888,-0.1714704930782318,0.9851340055465698,0.17375296354293823,0.5536364316940308,-0.6742833256721497,0.9940775632858276,0.6279326677322388,0.6482632160186768,-0.35096538066864014,0.9879014492034912,0.21929198503494263,0.7094553709030151,-0.8384945392608643,0.9696881175041199,0.6506384611129761,0.6890993118286133,-0.4274138808250427,0.9731073975563049,0.2264515906572342,0.7577223181724548,-0.927895724773407,0.9446074366569519,0.6346043348312378,0.689758837223053,-0.5232163071632385,0.9756854772567749,0.26636338233947754,0.749363124370575,-1.0154871940612793,0.948759913444519,0.620439350605011,0.6774366497993469,-0.3929300606250763,0.9758976101875305,0.273852676153183,0.7349801659584045,-0.8748138546943665,0.950648307800293,0.4796260595321655,0.6374316811561584,0.09030770510435104,0.9987781643867493,0.3061475455760956,0.6498062014579773,-0.09000509232282639,0.9991273283958435,0.47566595673561096,0.8529179096221924,0.2732146084308624,0.961285412311554,0.3350362479686737,0.8704514503479004,0.0653068944811821,0.9748634099960327,0.4777602255344391,0.9661297798156738,0.9590951204299927,0.8679437637329102,0.3517562747001648,0.9963368773460388,0.5970147848129272,0.9166424870491028,0.4536094069480896,0.9746412634849548,1.01121985912323,0.8181400299072266,0.34621837735176086,0.9961491227149963,0.635580837726593,0.6897799968719482,0.5370360612869263,1.0256783962249756,0.7894100546836853,0.8170891404151917,0.38550662994384766,1.1026965379714966,0.29091891646385193,0.8196297287940979
19779.911754162244,0.44669538736343384,0.24423448741436005,-1.0113977193832397,0.9999840259552002,0.45233941078186035,0.21957707405090332,-0.9707855582237244,0.9999467134475708,0.4603241980075836,0.21792346239089966,-0.9708922505378723,0.9999349117279053,0.4678703546524048,0.21640023589134216,-0.970920741558075,0.9999246597290039,0.42039746046066284,0.2223716676235199,-1.0050618648529053,0.9999619722366333,0.4036080837249756,0.2224229872226715,-1.0052770376205444,0.9999620914459229,0.3842754364013672,0.22253268957138062,-1.0054545402526855,0.9999592304229736,0.45769748091697693,0.22139260172843933,-0.6679180860519409,0.9998960494995117,0.33545970916748047,0.22995391488075256,-0.836100697517395,0.999972939491272,0.45488834381103516,0.26446840167045593,-0.8909003734588623,0.9999902248382568,0.42165595293045044,0.2680124044418335,-0.9384636878967285,0.9999953508377075,0.5287318229675293,0.3524331748485565,-0.4041982591152191,0.9999542236328125,0.17519058287143707,0.37069079279899597,-0.7182461023330688,0.9999643564224243,0.5678608417510986,0.5138272643089294,-0.1763196885585785,0.9831650257110596,0.17252565920352936,0.5532510280609131,-0.6983125805854797,0.9944619536399841,0.6269921064376831,0.6491076946258545,-0.33425670862197876,0.9848797917366028,0.22030684351921082,0.7100350856781006,-0.8457196950912476,0.9660314917564392,0.6503804922103882,0.6896255016326904,-0.4061957001686096,0.9669615626335144,0.2287771850824356,0.7569848299026489,-0.9316224455833435,0.9382786750793457,0.6339942812919617,0.6904107928276062,-0.498639851808548,0.9699937701225281,0.2671576142311096,0.748119056224823,-1.0175354480743408,0.9427450895309448,0.6193024516105652,0.6783398985862732,-0.3742750287055969,0.9705014824867249,0.2731357514858246,0.7339657545089722,-0.8808611035346985,0.944774866104126,0.4797564446926117,0.6347865462303162,0.09756483137607574,0.9986683130264282,0.30693528056144714,0.6480461359024048,-0.09728972613811493,0.9992163181304932,0.47506657242774963,0.8484819531440735,0.3058275878429413,0.961635410785675,0.33714520931243896,0.865065336227417,0.05602816492319107,0.9783850908279419,0.47714048624038696,0.963610053062439,0.9948673248291016,0.8648087978363037,0.3486962914466858,0.9942715167999268,0.5550200939178467,0.9220304489135742,0.4523473083972931,0.9729055762290955,1.0483933687210083,0.8159199357032776,0.3424886167049408,0.9945276379585266,0.5904617309570312,0.6871956586837769,0.538347601890564,1.0263404846191406,0.8393505215644836,0.8168947696685791,0.38865581154823303,1.1041059494018555,0.24712805449962616,0.8247542977333069
19796.57842082891,0.4448144733905792,0.24567371606826782,-1.0461457967758179,0.9999834299087524,0.4514951705932617,0.2206016480922699,-1.0050045251846313,0.999947190284729,0.4594840407371521,0.21883752942085266,-1.0051178932189941,0.9999353885650635,0.4671019911766052,0.21719777584075928,-1.0051647424697876,0.9999262094497681,0.4193059206008911,0.2237689197063446,-1.0389010906219482,0.9999604225158691,0.4024588167667389,0.22385233640670776,-1.0391076803207397,0.9999603033065796,0.3832067847251892,0.2238965928554535,-1.0392729043960571,0.9999569654464722,0.4566302001476288,0.22231820225715637,-0.6953239440917969,0.9998984336853027,0.3340134918689728,0.2309187352657318,-0.8614421486854553,0.9999722242355347,0.4529030919075012,0.26595747470855713,-0.9231241941452026,0.9999895095825195,0.4194622337818146,0.26977571845054626,-0.9700137972831726,0.9999947547912598,0.5276832580566406,0.35267648100852966,-0.412294864654541,0.9999556541442871,0.17509087920188904,0.37195175886154175,-0.7453289031982422,0.999961256980896,0.5684487223625183,0.5148377418518066,-0.17087483406066895,0.9813858866691589,0.17215195298194885,0.5535093545913696,-0.7265245914459229,0.9944823980331421,0.6298022270202637,0.6485636234283447,-0.3229430317878723,0.9844316840171814,0.21985024213790894,0.707593560218811,-0.8771357536315918,0.9643219709396362,0.6522840857505798,0.688771665096283,-0.39290496706962585,0.9662569761276245,0.22542373836040497,0.7555562257766724,-0.965569019317627,0.9340423345565796,0.6361569166183472,0.6893077492713928,-0.4874902665615082,0.9693622589111328,0.26696088910102844,0.7484705448150635,-1.0519437789916992,0.9387756586074829,0.6218214631080627,0.6779650449752808,-0.3636729419231415,0.969813346862793,0.2748796343803406,0.7345715761184692,-0.9127181172370911,0.9414153695106506,0.4798659384250641,0.637054443359375,0.10355991870164871,0.9987724423408508,0.30774739384651184,0.6517972946166992,-0.10323505848646164,0.999212384223938,0.475069135427475,0.8488605618476868,0.32383185625076294,0.9492830038070679,0.3383965492248535,0.8722662925720215,0.056226640939712524,0.9731872081756592,0.4766979217529297,0.9646803140640259,0.9975590109825134,0.8414382934570312,0.34636637568473816,0.9929817318916321,0.5699529647827148,0.9028794765472412,0.4525511860847473,0.97357177734375,1.0486942529678345,0.7991403341293335,0.3382151126861572,0.994071364402771,0.6070488691329956,0.6629308462142944,0.5381816029548645,1.0286915302276611,0.8289735913276672,0.785811722278595,0.38695985078811646,1.1056783199310303,0.26091834902763367,0.7933297157287598
19813.24508749558,0.44580960273742676,0.24202202260494232,-1.123447060585022,0.9999849796295166,0.4509531259536743,0.2178592085838318,-1.077233910560608,0.999954104423523,0.4590453505516052,0.21603408455848694,-1.0773463249206543,0.9999445676803589,0.46668127179145813,0.21431362628936768,-1.0773794651031494,0.9999357461929321,0.41821011900901794,0.22064033150672913,-1.1128945350646973,0.9999656677246094,0.4014587104320526,0.22053754329681396,-1.1131287813186646,0.9999662637710571,0.38219061493873596,0.22056052088737488,-1.1132967472076416,0.9999631643295288,0.4554761052131653,0.21949785947799683,-0.7436090111732483,0.9999027252197266,0.33360323309898376,0.2286255657672882,-0.9180582761764526,0.9999769926071167,0.4540967047214508,0.26212483644485474,-0.9923327565193176,0.9999904632568359,0.4208680987358093,0.26569268107414246,-1.041597843170166,0.9999953508377075,0.5288389921188354,0.3540634512901306,-0.4332028329372406,0.9999539852142334,0.17672967910766602,0.37192994356155396,-0.7944880723953247,0.9999679327011108,0.5687875747680664,0.5159952640533447,-0.20335669815540314,0.9784854650497437,0.1738584041595459,0.5538115501403809,-0.7727469205856323,0.9953560829162598,0.6283556818962097,0.6488701701164246,-0.4141622483730316,0.9823419451713562,0.2210613489151001,0.7098502516746521,-0.9457453489303589,0.9679008722305298,0.6495589017868042,0.6886821985244751,-0.49616965651512146,0.9622002243995667,0.22944849729537964,0.7574949860572815,-1.0438493490219116,0.9386341571807861,0.6348894834518433,0.6903492212295532,-0.5945020318031311,0.9656832218170166,0.26767799258232117,0.7507706880569458,-1.1326645612716675,0.942988932132721,0.6215654611587524,0.6787272691726685,-0.4585460424423218,0.9656217098236084,0.27483832836151123,0.7370054125785828,-0.9828965067863464,0.9445186257362366,0.47841349244117737,0.638331413269043,0.11851269006729126,0.9986956715583801,0.30892401933670044,0.653374433517456,-0.11825438588857651,0.9992614388465881,0.47713449597358704,0.8493160605430603,0.41288554668426514,0.9421175718307495,0.33684077858924866,0.8767108917236328,0.06002071127295494,0.9765347242355347,0.47471579909324646,0.9654756784439087,1.0856155157089233,0.8528162240982056,0.3477535843849182,0.9974272847175598,0.568329930305481,0.9072218537330627,0.44672101736068726,0.9762743711471558,1.1353522539138794,0.8050110340118408,0.33947038650512695,0.998913586139679,0.6032570600509644,0.6500917077064514,0.5463632345199585,1.0262378454208374,0.8981674313545227,0.8140438795089722,0.4026937484741211,1.1108351945877075,0.23638276755809784,0.811027467250824
19829.911754162247,0.444724440574646,0.24675163626670837,-1.0463379621505737,0.9999837875366211,0.45222246646881104,0.22220784425735474,-1.0052505731582642,0.9999494552612305,0.46053364872932434,0.2206035554409027,-1.0053842067718506,0.9999384880065918,0.4683440923690796,0.2190445363521576,-1.0054351091384888,0.999929666519165,0.4197635054588318,0.2247389256954193,-1.0399279594421387,0.999961256980896,0.40329015254974365,0.22453626990318298,-1.0401408672332764,0.9999604225158691,0.3840884566307068,0.22438034415245056,-1.0403112173080444,0.9999561309814453,0.4584183394908905,0.22308093309402466,-0.687667191028595,0.9999061822891235,0.3347994089126587,0.23121899366378784,-0.857244610786438,0.9999731779098511,0.4526989459991455,0.2672823369503021,-0.9190242290496826,0.999990701675415,0.41931888461112976,0.27022498846054077,-0.9669410586357117,0.999995231628418,0.5304843187332153,0.3523634076118469,-0.4003889262676239,0.9999649524688721,0.17309871315956116,0.3718213438987732,-0.7235689163208008,0.9999628067016602,0.5693352818489075,0.5147446990013123,-0.166697695851326,0.9841296672821045,0.17279143631458282,0.552548348903656,-0.6953271627426147,0.9944304823875427,0.6303606033325195,0.6482877135276794,-0.34883105754852295,0.9871932864189148,0.2212524712085724,0.7106879949569702,-0.8569466471672058,0.965128481388092,0.6506268978118896,0.6897901296615601,-0.4251899719238281,0.971684992313385,0.22962525486946106,0.7574700117111206,-0.9465474486351013,0.9357016086578369,0.6348000168800354,0.6904168725013733,-0.5243175625801086,0.9745538830757141,0.2681819796562195,0.7505168914794922,-1.035715103149414,0.940818190574646,0.6209446787834167,0.6791998744010925,-0.3920787572860718,0.9746609926223755,0.27470773458480835,0.7368342876434326,-0.8936837911605835,0.9432783126831055,0.4811394214630127,0.6360393166542053,0.10292495042085648,0.9987442493438721,0.3089596629142761,0.6498432159423828,-0.10257233679294586,0.9991338849067688,0.4759984314441681,0.8530630469322205,0.283328115940094,0.9554558396339417,0.33911043405532837,0.8753352761268616,0.05291062220931053,0.9734237790107727,0.4760509431362152,0.9677016735076904,0.9825650453567505,0.8361422419548035,0.35191816091537476,0.9983218908309937,0.5743885636329651,0.9070147275924683,0.45102953910827637,0.9778277277946472,1.0365066528320312,0.7884089350700378,0.34626832604408264,0.9988925457000732,0.6118927597999573,0.6599553227424622,0.5398827195167542,1.033010482788086,0.816696047782898,0.778147280216217,0.3893321752548218,1.1127188205718994,0.26120007038116455,0.7981672286987305
19846.578420828915,0.44460156559944153,0.24154354631900787,-1.0803006887435913,0.9999836683273315,0.4491213858127594,0.21761801838874817,-1.03535795211792,0.9999488592147827,0.4570000171661377,0.21582269668579102,-1.0354639291763306,0.9999374151229858,0.46457839012145996,0.21414777636528015,-1.0354957580566406,0.9999287128448486,0.41712963581085205,0.22027644515037537,-1.0703786611557007,0.9999629259109497,0.4007264971733093,0.2202458679676056,-1.0706146955490112,0.9999634027481079,0.382007896900177,0.22034630179405212,-1.070786714553833,0.9999611377716064,0.4541560113430023,0.21946698427200317,-0.7148529887199402,0.9998917579650879,0.33416682481765747,0.22847914695739746,-0.8861616253852844,0.9999752044677734,0.45328786969184875,0.2621697783470154,-0.9545959830284119,0.99998939037323,0.42014405131340027,0.26554715633392334,-1.0029706954956055,0.9999948740005493,0.5286160707473755,0.35386019945144653,-0.4180125296115875,0.9999446868896484,0.18010707199573517,0.3701440691947937,-0.7775089740753174,0.9999674558639526,0.5710650682449341,0.5149484872817993,-0.19050563871860504,0.9774661660194397,0.17308875918388367,0.5517552495002747,-0.7645592093467712,0.9953820109367371,0.6276379823684692,0.6489263772964478,-0.37471872568130493,0.9808143377304077,0.21941925585269928,0.7082820534706116,-0.9242672324180603,0.969148576259613,0.6494796276092529,0.6885943412780762,-0.4506520628929138,0.9591295123100281,0.22685587406158447,0.7562958002090454,-1.0181725025177002,0.9408674836158752,0.6352145671844482,0.6902586221694946,-0.5463483929634094,0.9627090692520142,0.26612919569015503,0.7488589882850647,-1.103948950767517,0.9448052048683167,0.6220970153808594,0.6785591840744019,-0.41735076904296875,0.9631934762001038,0.2732730209827423,0.7347933650016785,-0.9599862098693848,0.9462915658950806,0.4786486327648163,0.6377381086349487,0.11739806085824966,0.9985766410827637,0.30889928340911865,0.6525775194168091,-0.11716384440660477,0.9992262125015259,0.47658005356788635,0.8495407104492188,0.3975076675415039,0.9450294971466064,0.3392629325389862,0.8750726580619812,0.0579172745347023,0.9776795506477356,0.4764135777950287,0.9664799571037292,1.0502674579620361,0.8525128364562988,0.35126233100891113,0.9990574717521667,0.5461295247077942,0.9107667207717896,0.44930845499038696,0.9767468571662903,1.0984374284744263,0.8010005950927734,0.3437404930591583,0.9982424378395081,0.5794792771339417,0.6542778611183167,0.5463320016860962,1.0260534286499023,0.8711738586425781,0.809781551361084,0.4054996371269226,1.1110174655914307,0.22173559665679932,0.8119754791259766
19863.245087495583,0.44573459029197693,0.24700795114040375,-1.0262523889541626,0.9999821186065674,0.4520910084247589,0.22304338216781616,-0.9863634705543518,0.9999402761459351,0.46025320887565613,0.22180992364883423,-0.9864732027053833,0.9999274015426636,0.46802449226379395,0.22054079174995422,-0.9865025877952576,0.9999164342880249,0.4208034873008728,0.22470039129257202,-1.0214552879333496,0.9999570846557617,0.40451580286026,0.22445794939994812,-1.0216814279556274,0.9999570846557617,0.38553547859191895,0.22427988052368164,-1.0218656063079834,0.999953031539917,0.4581892192363739,0.22475704550743103,-0.6791442632675171,0.999885082244873,0.33571380376815796,0.23126056790351868,-0.8511765003204346,0.9999692440032959,0.4527207314968109,0.26693370938301086,-0.9031662940979004,0.99998939037323,0.42019227147102356,0.27020129561424255,-0.9518883228302002,0.9999947547912598,0.5303931832313538,0.3508135974407196,-0.40720298886299133,0.9999583959579468,0.17413276433944702,0.3700455129146576,-0.7243260145187378,0.9999643564224243,0.5680860280990601,0.5140150785446167,-0.17444854974746704,0.9837301969528198,0.17028473317623138,0.5501161217689514,-0.6997789144515991,0.9944815635681152,0.6297841668128967,0.6484905481338501,-0.33852407336235046,0.9854602217674255,0.21840891242027283,0.7088776230812073,-0.8459252715110779,0.9649316072463989,0.6505774259567261,0.6893666982650757,-0.4107702374458313,0.9680233597755432,0.22539788484573364,0.756626546382904,-0.9317781329154968,0.9362552165985107,0.6328059434890747,0.6896076798439026,-0.505652904510498,0.9711779952049255,0.26426175236701965,0.7496505975723267,-1.0185625553131104,0.9411510229110718,0.6179916262626648,0.6783179044723511,-0.3793589174747467,0.9715986847877502,0.2715737521648407,0.7357593774795532,-0.8811299204826355,0.9429731369018555,0.48198962211608887,0.633098840713501,0.09890013188123703,0.9987187385559082,0.3080657124519348,0.6477230787277222,-0.09862184524536133,0.9991814494132996,0.4757605195045471,0.8465569615364075,0.2866438031196594,0.9549314975738525,0.3380357027053833,0.8659278154373169,0.05272119119763374,0.9738261699676514,0.475924551486969,0.9606180787086487,0.9837718605995178,0.8417439460754395,0.34719452261924744,0.9912815690040588,0.5765299797058105,0.9115442633628845,0.45181119441986084,0.9713870286941528,1.0384398698806763,0.7974260449409485,0.34102749824523926,0.9927537441253662,0.6149008274078369,0.6720055937767029,0.5383954644203186,1.0259873867034912,0.8269873261451721,0.7902340888977051,0.38090890645980835,1.1035124063491821,0.2714576721191406,0.8060117363929749
19879.91175416225,0.44035735726356506,0.2476506531238556,-1.0398122072219849,0.9999843835830688,0.44813311100006104,0.22414830327033997,-1.0006787776947021,0.9999500513076782,0.45648419857025146,0.2229311764240265,-1.0007990598678589,0.9999390840530396,0.4646337330341339,0.2216886579990387,-1.000854253768921,0.9999303817749023,0.41610831022262573,0.2252451479434967,-1.0330945253372192,0.9999628067016602,0.39986106753349304,0.22458168864250183,-1.0333236455917358,0.9999620914459229,0.38181403279304504,0.22407934069633484,-1.0335078239440918,0.9999586343765259,0.4581655263900757,0.22547373175621033,-0.6894588470458984,0.9999096393585205,0.3339306116104126,0.23068448901176453,-0.8485598564147949,0.9999744892120361,0.4487673044204712,0.2683843970298767,-0.9146263003349304,0.9999911785125732,0.41572868824005127,0.27003544569015503,-0.9595977663993835,0.9999953508377075,0.5315726399421692,0.3517770767211914,-0.40356066823005676,0.9999607801437378,0.17461219429969788,0.3707490861415863,-0.7164345979690552,0.9999649524688721,0.5687736868858337,0.5144724249839783,-0.16566839814186096,0.9845830202102661,0.17078188061714172,0.550404965877533,-0.6849905848503113,0.9946533441543579,0.6305884122848511,0.6485782861709595,-0.33017879724502563,0.9865024089813232,0.21772237122058868,0.709430456161499,-0.8379966020584106,0.9666687250137329,0.6520391702651978,0.689075767993927,-0.40090417861938477,0.9700886607170105,0.2265063375234604,0.7564793229103088,-0.9238808155059814,0.9376325011253357,0.6364883184432983,0.689980685710907,-0.49925416707992554,0.9730747938156128,0.26558077335357666,0.749782145023346,-1.010870099067688,0.9425331354141235,0.6226240396499634,0.6790671944618225,-0.372244656085968,0.9734043478965759,0.27250126004219055,0.7361529469490051,-0.8734263181686401,0.9447668194770813,0.4816208481788635,0.6347313523292542,0.09784828126430511,0.9985145926475525,0.3090769648551941,0.6493881344795227,-0.09754733741283417,0.9990047812461853,0.4728655517101288,0.8538156747817993,0.2513384521007538,0.9511627554893494,0.3359960913658142,0.8750277757644653,0.03408694267272949,0.9705528616905212,0.47616225481033325,0.9677444100379944,0.9188640117645264,0.8266993165016174,0.34949713945388794,1.0022624731063843,0.5371134281158447,0.899806022644043,0.4524553716182709,0.9769256711006165,0.969374418258667,0.7795910835266113,0.34311607480049133,1.0016964673995972,0.5725517868995667,0.6436852216720581,0.5381340384483337,1.0311543941497803,0.7442173957824707,0.7644188404083252,0.38509249687194824,1.1144464015960693,0.21819855272769928,0.7842937111854553
19896.57842082892,0.44213810563087463,0.2464829832315445,-1.0427587032318115,0.9999866485595703,0.44896939396858215,0.223054438829422,-1.0032083988189697,0.9999574422836304,0.4572565257549286,0.22174251079559326,-1.0033291578292847,0.9999473094940186,0.4652715027332306,0.22049111127853394,-1.0033758878707886,0.9999403953552246,0.416763037443161,0.22435510158538818,-1.0342764854431152,0.9999681711196899,0.40065300464630127,0.22383978962898254,-1.0344897508621216,0.9999669790267944,0.38257741928100586,0.2234816551208496,-1.0346657037734985,0.9999642372131348,0.45806989073753357,0.2246335744857788,-0.6953569650650024,0.9999226331710815,0.3352694511413574,0.23010385036468506,-0.8487130403518677,0.9999772310256958,0.45024439692497253,0.26702743768692017,-0.9196378588676453,0.9999924898147583,0.4173182547092438,0.26891690492630005,-0.9628821015357971,0.9999960660934448,0.5336942672729492,0.3521572947502136,-0.42285874485969543,0.9999641180038452,0.17650076746940613,0.3703617751598358,-0.7146214246749878,0.9999644756317139,0.5688748359680176,0.5149714350700378,-0.19020973145961761,0.9858757853507996,0.17090314626693726,0.5510708689689636,-0.6825292706489563,0.9944834113121033,0.6298549771308899,0.6480673551559448,-0.3500843644142151,0.988248348236084,0.21847960352897644,0.7095327377319336,-0.8364112973213196,0.9670607447624207,0.6515957117080688,0.6899097561836243,-0.4232102334499359,0.9737026691436768,0.22689372301101685,0.756611168384552,-0.9219024181365967,0.9384680390357971,0.6351975798606873,0.6908024549484253,-0.5190879702568054,0.9762041568756104,0.26675164699554443,0.7493672966957092,-1.0088931322097778,0.943256676197052,0.6213219165802002,0.6792027950286865,-0.3910622298717499,0.9765534996986389,0.27384138107299805,0.7354896068572998,-0.8721731901168823,0.9463798403739929,0.4823615849018097,0.634406566619873,0.09008543938398361,0.9987465143203735,0.30867573618888855,0.648780345916748,-0.08976388722658157,0.999176561832428,0.47402438521385193,0.8528417944908142,0.2580234110355377,0.955745279788971,0.3382095694541931,0.872831404209137,0.06043669953942299,0.9716421961784363,0.4750530421733856,0.9678992629051208,0.9533362984657288,0.8251492381095886,0.35055628418922424,0.9990705847740173,0.567965030670166,0.9005230069160461,0.45150068402290344,0.9770538210868835,1.0074831247329712,0.7788435816764832,0.3441588580608368,0.9993254542350769,0.6047009825706482,0.6517964005470276,0.5353246331214905,1.0295647382736206,0.79533451795578,0.7638204097747803,0.38743045926094055,1.1103575229644775,0.2611977159976959,0.7861665487289429
19913.245087495587,0.44554856419563293,0.24571660161018372,-1.0705633163452148,0.9999856948852539,0.4512897729873657,0.22130534052848816,-1.0275448560714722,0.9999527931213379,0.45907872915267944,0.21950629353523254,-1.0276587009429932,0.9999417066574097,0.4663938581943512,0.21778210997581482,-1.0276813507080078,0.9999330043792725,0.41956090927124023,0.2245067059993744,-1.060575246810913,0.9999656677246094,0.4026958644390106,0.2246488630771637,-1.0607928037643433,0.9999644756317139,0.38352277874946594,0.22483867406845093,-1.0609878301620483,0.9999617338180542,0.455308198928833,0.22230181097984314,-0.7091107368469238,0.9999074935913086,0.3352537751197815,0.231861412525177,-0.8713338971138,0.9999741315841675,0.4536406993865967,0.265558123588562,-0.944481372833252,0.9999915361404419,0.42023786902427673,0.269595205783844,-0.9903950095176697,0.9999958276748657,0.5281146168708801,0.3533897399902344,-0.4249127507209778,0.9999618530273438,0.17486268281936646,0.3730292022228241,-0.7379927635192871,0.999967098236084,0.5678988695144653,0.5159692764282227,-0.19682301580905914,0.9860529899597168,0.16793277859687805,0.5519683361053467,-0.7161688804626465,0.9947453737258911,0.6268802285194397,0.6487117409706116,-0.3802366554737091,0.9881443977355957,0.2156394124031067,0.7109262943267822,-0.8826565742492676,0.9680002927780151,0.6497411727905273,0.6888670921325684,-0.4570114314556122,0.9729824662208557,0.22702834010124207,0.7584517002105713,-0.97384113073349,0.9393590688705444,0.6317535638809204,0.689999520778656,-0.5527932643890381,0.9754014015197754,0.2661159336566925,0.7495416402816772,-1.0617425441741943,0.943777322769165,0.6164904832839966,0.677753746509552,-0.42154020071029663,0.9749556183815002,0.2715663015842438,0.7350993156433105,-0.9188777804374695,0.945022463798523,0.47828006744384766,0.6354324817657471,0.10041886568069458,0.9987939596176147,0.30705952644348145,0.6486327648162842,-0.10014263540506363,0.9993523955345154,0.4759261906147003,0.8462533354759216,0.32018205523490906,0.9662103056907654,0.33756858110427856,0.8696620464324951,0.04255794361233711,0.9815521836280823,0.4785654544830322,0.9624667763710022,1.035921573638916,0.8795270323753357,0.3528854548931122,0.9954630732536316,0.5350469946861267,0.9340800046920776,0.45291781425476074,0.9726035594940186,1.0908856391906738,0.8298718929290771,0.3423406183719635,1.0367648601531982,0.5685001015663147,0.705926775932312,0.5435252785682678,1.0222132205963135,0.8701454997062683,0.8360650539398193,0.389419287443161,1.1087799072265625,0.20857448875904083,0.8501750826835632
19929.911754162255,0.4446805715560913,0.24546901881694794,-1.0322259664535522,0.9999868869781494,0.4511638879776001,0.22127828001976013,-0.9914048910140991,0.999956488609314,0.45931127667427063,0.2199263870716095,-0.9915261268615723,0.999947190284729,0.46711084246635437,0.21868577599525452,-0.9915811419487,0.9999395608901978,0.4190063178539276,0.22290632128715515,-1.0255892276763916,0.9999675750732422,0.40260469913482666,0.22262689471244812,-1.0258150100708008,0.9999672174453735,0.3839927315711975,0.2224898636341095,-1.0259939432144165,0.999963641166687,0.45932212471961975,0.22315075993537903,-0.6823495030403137,0.9999204874038696,0.335855096578598,0.22931042313575745,-0.849990963935852,0.999976396560669,0.45263585448265076,0.26585516333580017,-0.9087939262390137,0.9999924898147583,0.4188574552536011,0.2680818438529968,-0.9562245607376099,0.9999961853027344,0.5319402813911438,0.3513035476207733,-0.40813860297203064,0.9999665021896362,0.17493323981761932,0.3703545331954956,-0.7269569039344788,0.9999676942825317,0.5688761472702026,0.5133861303329468,-0.1863960176706314,0.9855035543441772,0.17283307015895844,0.5533357262611389,-0.7065573930740356,0.9945289492607117,0.6294231414794922,0.6483649015426636,-0.3649543523788452,0.9882078766822815,0.22012603282928467,0.7104930281639099,-0.8613121509552002,0.96723473072052,0.652247428894043,0.6892231106758118,-0.4420820474624634,0.9736201763153076,0.2276301085948944,0.7569183707237244,-0.950587809085846,0.939963161945343,0.634829044342041,0.689705491065979,-0.5387409925460815,0.9762258529663086,0.2678493857383728,0.7508187294006348,-1.0370665788650513,0.944446325302124,0.6195752024650574,0.6785783171653748,-0.40700438618659973,0.9761398434638977,0.2748734951019287,0.7375577092170715,-0.8968957662582397,0.9462507963180542,0.48246726393699646,0.633755087852478,0.10119783878326416,0.9987548589706421,0.3079247772693634,0.6491252183914185,-0.10089079290628433,0.999265730381012,0.4764886200428009,0.847134530544281,0.2858031392097473,0.9555124044418335,0.34236687421798706,0.8697081804275513,0.0384460985660553,0.9760209321975708,0.48043110966682434,0.9646461606025696,1.0000611543655396,0.821994960308075,0.3490484356880188,1.0010459423065186,0.5252871513366699,0.9136766791343689,0.4554463326931,0.975522518157959,1.0565012693405151,0.7731485366821289,0.3426436185836792,0.9993594884872437,0.5594930052757263,0.6597095131874084,0.5402003526687622,1.0265921354293823,0.8542850017547607,0.7678996324539185,0.3871106505393982,1.1120505332946777,0.21347753703594208,0.8074632883071899
19946.578420828922,0.44407132267951965,0.24553462862968445,-1.0293875932693481,0.999982476234436,0.4504717290401459,0.22153502702713013,-0.9905810356140137,0.9999430179595947,0.4586603343486786,0.2200312316417694,-0.9907085299491882,0.9999297857284546,0.4665512144565582,0.2186470925807953,-0.9907581210136414,0.999920129776001,0.4184556305408478,0.22357183694839478,-1.0239176750183105,0.9999583959579468,0.40214648842811584,0.22333884239196777,-1.0241388082504272,0.9999570846557617,0.38343578577041626,0.22318339347839355,-1.0243358612060547,0.9999537467956543,0.4577115774154663,0.2230464518070221,-0.6834056973457336,0.9998961687088013,0.3353792130947113,0.22984114289283752,-0.8460721373558044,0.9999712705612183,0.4523073136806488,0.2657358646392822,-0.9057071805000305,0.9999898672103882,0.41924917697906494,0.26836836338043213,-0.9516783356666565,0.9999947547912598,0.530858039855957,0.35242924094200134,-0.40256503224372864,0.999957799911499,0.1722339242696762,0.3723619282245636,-0.7188332676887512,0.9999618530273438,0.5682461261749268,0.5154567360877991,-0.16556984186172485,0.983649730682373,0.1725563108921051,0.5553708076477051,-0.6882545948028564,0.9946689009666443,0.6298368573188782,0.6483622789382935,-0.3248296082019806,0.9859564304351807,0.21819011867046356,0.7104935646057129,-0.8360124230384827,0.9673333168029785,0.6502102017402649,0.6897830963134766,-0.395145982503891,0.9690598845481873,0.22569884359836578,0.7576026320457458,-0.921238124370575,0.9386380314826965,0.6344184875488281,0.6909225583076477,-0.49108704924583435,0.9721392393112183,0.2649594247341156,0.7505459785461426,-1.008029818534851,0.9436959624290466,0.6210675239562988,0.6792737245559692,-0.3659065365791321,0.9727070331573486,0.2722039818763733,0.7369189858436584,-0.8712567687034607,0.9460220336914062,0.48002585768699646,0.6362414360046387,0.09401547163724899,0.9984972476959229,0.30645278096199036,0.65099036693573,-0.09368597716093063,0.9990185499191284,0.4734678268432617,0.8549267053604126,0.24825580418109894,0.9522556662559509,0.3366868197917938,0.8764402270317078,0.041252560913562775,0.9671339988708496,0.47618332505226135,0.967928409576416,0.9315569996833801,0.8200857639312744,0.34940338134765625,1.0004677772521973,0.5559026598930359,0.8907197713851929,0.4534599781036377,0.9759869575500488,0.9839186668395996,0.7766429781913757,0.34239330887794495,1.000779390335083,0.5927611589431763,0.6356088519096375,0.5381074547767639,1.0312620401382446,0.760529100894928,0.7529799938201904,0.3840118646621704,1.1161432266235352,0.24009495973587036,0.7701112627983093
19963.24508749559,0.4436260163784027,0.24534131586551666,-1.03264319896698,0.9999843835830688,0.45095303654670715,0.2207578718662262,-0.9922081828117371,0.9999485015869141,0.45987561345100403,0.21941635012626648,-0.992324948310852,0.9999366998672485,0.46835091710090637,0.2182196080684662,-0.9923551678657532,0.9999270439147949,0.4183044135570526,0.2225072979927063,-1.0265413522720337,0.9999622106552124,0.4017925262451172,0.22228163480758667,-1.0267685651779175,0.9999613761901855,0.3830130398273468,0.2221429944038391,-1.0269651412963867,0.9999581575393677,0.45967140793800354,0.22327104210853577,-0.6821829080581665,0.9999018907546997,0.3337928056716919,0.2295159101486206,-0.8503089547157288,0.9999724626541138,0.4517056345939636,0.2657437026500702,-0.908515453338623,0.9999908208847046,0.41725194454193115,0.2686644196510315,-0.9561648964881897,0.9999954700469971,0.5314432382583618,0.35294580459594727,-0.40662819147109985,0.9999582767486572,0.17389103770256042,0.37149831652641296,-0.7231928110122681,0.9999638795852661,0.5683151483535767,0.5162796974182129,-0.1731894165277481,0.9842454791069031,0.1705307513475418,0.5544292330741882,-0.697694718837738,0.9943637847900391,0.6278331279754639,0.6493294835090637,-0.33908456563949585,0.9867920875549316,0.2194908857345581,0.709629476070404,-0.8503502011299133,0.9675121307373047,0.6494432687759399,0.6897640824317932,-0.41102135181427,0.9705693125724792,0.2246280163526535,0.757436990737915,-0.9362772107124329,0.9404377937316895,0.6330947279930115,0.6907830834388733,-0.5071045160293579,0.9733639359474182,0.2646971642971039,0.7500978112220764,-1.0239709615707397,0.9450709819793701,0.619368314743042,0.6791696548461914,-0.3804006576538086,0.9736878275871277,0.2731235921382904,0.7359175086021423,-0.8859150409698486,0.9466468691825867,0.47951674461364746,0.6353060603141785,0.09612414240837097,0.9987173080444336,0.3051573932170868,0.6501818299293518,-0.09586607664823532,0.999215841293335,0.4736863076686859,0.8523046970367432,0.27890750765800476,0.9607691168785095,0.3375985324382782,0.873164176940918,0.04787343367934227,0.9752673506736755,0.4770480692386627,0.966397225856781,0.993181049823761,0.8497369885444641,0.35395127534866333,1.0008187294006348,0.5611260533332825,0.9141135811805725,0.4530562460422516,0.9747763276100159,1.0491619110107422,0.8000826835632324,0.3476681411266327,1.0395113229751587,0.5979748964309692,0.6692634224891663,0.5359878540039062,1.0289289951324463,0.8339223861694336,0.7985142469406128,0.3947499096393585,1.1126878261566162,0.2460782378911972,0.8140736222267151
19979.911754162258,0.44468554854393005,0.24453283846378326,-1.007426142692566,0.9999867677688599,0.4510020315647125,0.21779382228851318,-0.9670640826225281,0.9999574422836304,0.4595394730567932,0.21596935391426086,-0.9671890735626221,0.9999480247497559,0.4677898585796356,0.21433711051940918,-0.9672483205795288,0.9999409914016724,0.41797909140586853,0.2214416265487671,-1.0006054639816284,0.9999675750732422,0.4008020758628845,0.22199642658233643,-1.0007996559143066,0.9999663829803467,0.3817305862903595,0.2225775420665741,-1.0009609460830688,0.9999630451202393,0.45896077156066895,0.22044190764427185,-0.6632834076881409,0.9999240636825562,0.33218857645988464,0.23083984851837158,-0.8281429409980774,0.999975323677063,0.45468324422836304,0.2640971839427948,-0.8863657712936401,0.9999924898147583,0.41938769817352295,0.2680172622203827,-0.9329110980033875,0.9999959468841553,0.5308398008346558,0.352759450674057,-0.4042341411113739,0.9999657869338989,0.17458941042423248,0.3709852993488312,-0.7057153582572937,0.9999616146087646,0.5687041282653809,0.51405930519104,-0.18885470926761627,0.9858615398406982,0.1713036745786667,0.55365389585495,-0.6861751675605774,0.9935306906700134,0.6284874081611633,0.648547887802124,-0.3599083721637726,0.98776775598526,0.2185693234205246,0.7110939025878906,-0.837517499923706,0.963621973991394,0.6509898900985718,0.6895231008529663,-0.43511712551116943,0.9726660847663879,0.22680476307868958,0.757230281829834,-0.9242424964904785,0.9348189234733582,0.634628415107727,0.6901457905769348,-0.5305346846580505,0.9753291606903076,0.26669570803642273,0.7499104738235474,-1.0107269287109375,0.9397568702697754,0.619583249092102,0.6793000102043152,-0.4013453423976898,0.9755975008010864,0.27377456426620483,0.736577033996582,-0.8733572959899902,0.9426495432853699,0.4789982736110687,0.6347523331642151,0.09319137036800385,0.9988037347793579,0.3060854375362396,0.6488778591156006,-0.0928959846496582,0.9991862177848816,0.47376325726509094,0.8489242792129517,0.2591457664966583,0.9543973803520203,0.3388967216014862,0.866304874420166,0.05226009339094162,0.9724002480506897,0.4767347574234009,0.9651784300804138,0.9464507102966309,0.8271393179893494,0.3508968949317932,0.9930068254470825,0.5548208355903625,0.9074564576148987,0.4538274109363556,0.9740107655525208,0.9997225403785706,0.7819466590881348,0.34537914395332336,0.9950369596481323,0.5908963680267334,0.6680326461791992,0.537085771560669,1.0292329788208008,0.7940031886100769,0.7691407799720764,0.38283875584602356,1.1046321392059326,0.2536561191082001,0.7999435663223267
19996.578420828926,0.4431833326816559,0.24580660462379456,-0.9784051775932312,0.9999920129776001,0.4502162039279938,0.22205597162246704,-0.9399063587188721,0.9999730587005615,0.45855751633644104,0.22070351243019104,-0.9399823546409607,0.999967098236084,0.46665674448013306,0.21942323446273804,-0.9400334358215332,0.9999628067016602,0.4175819754600525,0.22333267331123352,-0.9712885618209839,0.9999809265136719,0.4010232388973236,0.22272196412086487,-0.9714637398719788,0.9999810457229614,0.3821581304073334,0.22232487797737122,-0.9715898633003235,0.9999798536300659,0.45865118503570557,0.22382649779319763,-0.6531949043273926,0.999942421913147,0.3334079086780548,0.22953477501869202,-0.8094589710235596,0.9999856948852539,0.4512650966644287,0.26652029156684875,-0.8647210001945496,0.999994158744812,0.4180353879928589,0.2688116133213043,-0.908663272857666,0.9999973773956299,0.5312594175338745,0.35150572657585144,-0.403136670589447,0.9999626874923706,0.1753227859735489,0.3729354441165924,-0.7136607766151428,0.9999754428863525,0.5702892541885376,0.5139623284339905,-0.1979617178440094,0.9814272522926331,0.17034786939620972,0.5543376207351685,-0.7106142640113831,0.9956042766571045,0.6287400722503662,0.6480459570884705,-0.3485935628414154,0.9865663647651672,0.22138924896717072,0.7101759910583496,-0.8488847613334656,0.9737374782562256,0.650604784488678,0.6885795593261719,-0.42350637912750244,0.9712814092636108,0.224750816822052,0.7575265765190125,-0.9348470568656921,0.950825572013855,0.6354120969772339,0.6894409656524658,-0.511780858039856,0.9739127159118652,0.26655423641204834,0.7500126957893372,-1.0143792629241943,0.9541955590248108,0.6212030649185181,0.6791864037513733,-0.3873961269855499,0.9738956093788147,0.2742539048194885,0.7362328171730042,-0.8818685412406921,0.9560971260070801,0.47902077436447144,0.6342786550521851,0.10294004529714584,0.9986259937286377,0.30895352363586426,0.6495383381843567,-0.10263067483901978,0.9993619322776794,0.47979363799095154,0.8427428007125854,0.3528580963611603,0.957241952419281,0.3430081605911255,0.8617348670959473,0.03032243624329567,0.9835965633392334,0.47792208194732666,0.9615815281867981,0.9711798429489136,0.8643773794174194,0.3477376699447632,0.9959698915481567,0.4341166019439697,0.931188702583313,0.4503868520259857,0.9734882712364197,1.0181057453155518,0.8103864192962646,0.3404849171638489,0.9995315074920654,0.46044063568115234,0.7028288841247559,0.5429481863975525,1.0224738121032715,0.8314189314842224,0.8106139898300171,0.39857110381126404,1.1017954349517822,0.13498838245868683,0.8317148685455322
20013.245087495594,0.4472741186618805,0.24544398486614227,-1.003029704093933,0.99998939037323,0.4527873396873474,0.2204807996749878,-0.9632083773612976,0.9999650716781616,0.4605492651462555,0.21896690130233765,-0.9633062481880188,0.9999573230743408,0.46797677874565125,0.21755450963974,-0.9633413553237915,0.9999518394470215,0.4212380349636078,0.22271671891212463,-0.9954820871353149,0.9999747276306152,0.404605895280838,0.22276490926742554,-0.9956622123718262,0.9999743700027466,0.3855406939983368,0.22288653254508972,-0.9957925081253052,0.9999722242355347,0.4584209620952606,0.22201088070869446,-0.6649183630943298,0.9999301433563232,0.3359920382499695,0.23001042008399963,-0.8247531652450562,0.9999806880950928,0.4552040696144104,0.2650907039642334,-0.884597897529602,0.999992847442627,0.42222359776496887,0.26823925971984863,-0.9296450614929199,0.999996542930603,0.5314885973930359,0.3531574606895447,-0.407665491104126,0.9999630451202393,0.17603746056556702,0.370802104473114,-0.709727942943573,0.9999678134918213,0.5710222125053406,0.5141454935073853,-0.19093315303325653,0.9843180179595947,0.1722012311220169,0.5545949935913086,-0.691245973110199,0.9949105381965637,0.6301784515380859,0.6483135223388672,-0.34478190541267395,0.9876185655593872,0.21997162699699402,0.7105797529220581,-0.8317647576332092,0.9669408202171326,0.6511926054954529,0.6896511316299438,-0.4189302921295166,0.9726052284240723,0.2261171042919159,0.7584843039512634,-0.917401134967804,0.9385490417480469,0.6350148320198059,0.6898601055145264,-0.5098729133605957,0.9750826954841614,0.26632001996040344,0.751839280128479,-1.0005948543548584,0.9428845643997192,0.6210921406745911,0.679507315158844,-0.38422149419784546,0.9750780463218689,0.2740670144557953,0.7383278608322144,-0.8663343191146851,0.9459736943244934,0.4807685911655426,0.6345562934875488,0.09630663692951202,0.99874347448349,0.310011088848114,0.6481203436851501,-0.09596603363752365,0.9993120431900024,0.47823649644851685,0.8449262380599976,0.3341237008571625,0.9607126712799072,0.33876538276672363,0.8671005964279175,0.05809542536735535,0.9804189801216125,0.4767298400402069,0.9629790186882019,0.9839413166046143,0.8577502369880676,0.3497609794139862,0.99663245677948,0.5108140110969543,0.9227681159973145,0.4510476589202881,0.9743689894676208,1.0339570045471191,0.8044372200965881,0.33603042364120483,1.0309237241744995,0.5419380068778992,0.6864375472068787,0.5395362377166748,1.024466872215271,0.8355398178100586,0.8051513433456421,0.39056605100631714,1.1023125648498535,0.20843973755836487,0.8206549286842346
20029.91175416226,0.4435476064682007,0.24683323502540588,-1.0344892740249634,0.9999881982803345,0.451076865196228,0.22339069843292236,-0.9940288662910461,0.9999629259109497,0.45943692326545715,0.2221267819404602,-0.9941436648368835,0.9999548196792603,0.46739330887794495,0.22092321515083313,-0.9941955208778381,0.9999492168426514,0.4185197949409485,0.22450557351112366,-1.0259830951690674,0.9999719858169556,0.40219879150390625,0.2238183319568634,-1.0261636972427368,0.9999712705612183,0.383444219827652,0.22334831953048706,-1.0262991189956665,0.9999685287475586,0.4595007002353668,0.22460857033729553,-0.6885692477226257,0.9999297857284546,0.3347857594490051,0.2303065061569214,-0.8468292355537415,0.9999786615371704,0.4510672688484192,0.26766300201416016,-0.9132518768310547,0.999992847442627,0.41837331652641296,0.2694752514362335,-0.9577733278274536,0.9999963045120239,0.5322417616844177,0.35191670060157776,-0.4243883192539215,0.9999657869338989,0.1794450283050537,0.3715735375881195,-0.7169733643531799,0.9999637603759766,0.5718878507614136,0.5139060020446777,-0.2032194435596466,0.9857606291770935,0.17334994673728943,0.5543686151504517,-0.6921617388725281,0.9942938685417175,0.6298868656158447,0.6494004130363464,-0.3747670352458954,0.9880436062812805,0.21932697296142578,0.7105939984321594,-0.8484724164009094,0.9641229510307312,0.651008129119873,0.6907728314399719,-0.45284321904182434,0.9733491539955139,0.224058598279953,0.7580841779708862,-0.9368915557861328,0.9347198605537415,0.634654700756073,0.6907998323440552,-0.5476617813110352,0.9758868217468262,0.2651565372943878,0.7509479522705078,-1.0245356559753418,0.9395797848701477,0.620791494846344,0.6802734732627869,-0.4160875082015991,0.9759785532951355,0.27334117889404297,0.7375302314758301,-0.8851487040519714,0.9433912634849548,0.4831230342388153,0.6340813636779785,0.09550468623638153,0.9987332224845886,0.31085261702537537,0.6481239199638367,-0.09511232376098633,0.9992020726203918,0.47885939478874207,0.8480844497680664,0.3099449872970581,0.9563683271408081,0.34026774764060974,0.8681977391242981,0.06197817623615265,0.9767010807991028,0.4774106740951538,0.9648860096931458,0.9656608700752258,0.8418591022491455,0.35076767206192017,0.9959859251976013,0.5423872470855713,0.9105103015899658,0.4525173008441925,0.9753434658050537,1.015539288520813,0.791183352470398,0.3450070917606354,0.9985454678535461,0.5759473443031311,0.6699399948120117,0.5378414988517761,1.02644944190979,0.8055423498153687,0.7809691429138184,0.3915283977985382,1.1020288467407227,0.23652377724647522,0.7951827645301819
20046.57842082893,0.44320589303970337,0.24592570960521698,-1.0173051357269287,0.99998939037323,0.4501279890537262,0.22187048196792603,-0.9770305752754211,0.9999665021896362,0.4584907293319702,0.22062084078788757,-0.9771453738212585,0.9999587535858154,0.46656855940818787,0.21950247883796692,-0.9771832823753357,0.9999538660049438,0.41776156425476074,0.22308963537216187,-1.0085185766220093,0.9999749660491943,0.4011935889720917,0.22267886996269226,-1.0086992979049683,0.9999741315841675,0.3823946416378021,0.22250989079475403,-1.0088413953781128,0.9999719858169556,0.45897403359413147,0.22369763255119324,-0.6744928359985352,0.9999357461929321,0.3330572545528412,0.23045849800109863,-0.8303164839744568,0.999981164932251,0.45150285959243774,0.2661925256252289,-0.8973839282989502,0.9999935626983643,0.41775262355804443,0.26850563287734985,-0.9411669373512268,0.9999967813491821,0.533103346824646,0.3522306978702545,-0.4141674041748047,0.999967098236084,0.17877541482448578,0.3708246648311615,-0.707085132598877,0.9999676942825317,0.5727841854095459,0.5150811076164246,-0.20075774192810059,0.9861347079277039,0.17061764001846313,0.5535334944725037,-0.6851848363876343,0.9944601058959961,0.6291431188583374,0.6497470140457153,-0.3799038529396057,0.9883910417556763,0.21918316185474396,0.7112108469009399,-0.8418931365013123,0.9659664034843445,0.6510835886001587,0.6908637881278992,-0.4601339101791382,0.9741529226303101,0.22410421073436737,0.7591496109962463,-0.9303091168403625,0.9377899765968323,0.6347866058349609,0.6909770965576172,-0.5542392134666443,0.9766182899475098,0.2650579512119293,0.7517595291137695,-1.017833948135376,0.9423772692680359,0.6205497980117798,0.6806008219718933,-0.42128777503967285,0.9767813682556152,0.27333223819732666,0.738139271736145,-0.8784224987030029,0.9459789991378784,0.4830496311187744,0.6349598169326782,0.09668790549039841,0.998799204826355,0.3098145127296448,0.6487329602241516,-0.09630267322063446,0.9992520213127136,0.47817426919937134,0.8500553965568542,0.30771157145500183,0.9553614854812622,0.34092506766319275,0.8693696856498718,0.06438496708869934,0.9765560030937195,0.476832777261734,0.9656127095222473,0.9552528858184814,0.8429635167121887,0.35112664103507996,0.9979853630065918,0.5484228134155273,0.9102145433425903,0.4516179859638214,0.9769129157066345,1.0043865442276,0.7968094348907471,0.3453940749168396,1.0001894235610962,0.5825111269950867,0.6772341728210449,0.5395737886428833,1.0260813236236572,0.7949181795120239,0.7837324142456055,0.39093148708343506,1.103640079498291,0.2462811917066574,0.7959447503089905
20063.245087495598,0.4458756744861603,0.24637727439403534,-0.9402238726615906,0.9999902248382568,0.45246270298957825,0.2229827344417572,-0.9025657176971436,0.9999676942825317,0.46076929569244385,0.22165849804878235,-0.9026710987091064,0.99996018409729,0.4686022400856018,0.22034123539924622,-0.9027273058891296,0.9999556541442871,0.4205525517463684,0.2242221236228943,-0.9369860291481018,0.9999768733978271,0.40440160036087036,0.2236090898513794,-0.9371705055236816,0.9999761581420898,0.38555046916007996,0.22315430641174316,-0.9373040199279785,0.9999743700027466,0.45866063237190247,0.22437432408332825,-0.6146998405456543,0.9999409914016724,0.33606618642807007,0.23012587428092957,-0.7833767533302307,0.9999827146530151,0.4526732563972473,0.266918808221817,-0.8246355652809143,0.9999939203262329,0.42017805576324463,0.26925358176231384,-0.872316837310791,0.9999970197677612,0.5293196439743042,0.3525673747062683,-0.36961984634399414,0.9999650716781616,0.17520104348659515,0.3713941276073456,-0.6807064414024353,0.9999692440032959,0.5680393576622009,0.513178825378418,-0.15905138850212097,0.9839679002761841,0.17185842990875244,0.5521071553230286,-0.6636156439781189,0.9951432943344116,0.627069354057312,0.6460882425308228,-0.30432432889938354,0.987267792224884,0.21780967712402344,0.7115705013275146,-0.7890087962150574,0.9706335067749023,0.6497128009796143,0.6869823932647705,-0.37345853447914124,0.9719404578208923,0.22527936100959778,0.7572789788246155,-0.8705547451972961,0.9453991651535034,0.6331636905670166,0.6877337694168091,-0.46425387263298035,0.9746018648147583,0.2653197944164276,0.7507511377334595,-0.9499640464782715,0.9494953155517578,0.6178208589553833,0.6776923537254333,-0.3435053527355194,0.9748806357383728,0.2712317407131195,0.7372972369194031,-0.8216383457183838,0.9519403576850891,0.47751134634017944,0.6346527934074402,0.09428080171346664,0.9985363483428955,0.30431240797042847,0.6501705646514893,-0.09396578371524811,0.9991349577903748,0.47341105341911316,0.8493477702140808,0.2554088234901428,0.9582391977310181,0.34042999148368835,0.8729878067970276,0.04066384956240654,0.9754518866539001,0.4791971445083618,0.9655680060386658,0.8978397846221924,0.8181334733963013,0.3487570583820343,1.0019655227661133,0.47966188192367554,0.9094381928443909,0.4554775059223175,0.9763153195381165,0.9482858777046204,0.7630069255828857,0.34245097637176514,1.0013744831085205,0.510080099105835,0.6490485072135925,0.536913275718689,1.0276613235473633,0.7635442614555359,0.758263885974884,0.3933829367160797,1.1130056381225586,0.18476714193820953,0.7956815361976624
20079.911754162265,0.44431501626968384,0.24595065414905548,-0.9639830589294434,0.9999908208847046,0.4508398473262787,0.22141724824905396,-0.9280648231506348,0.9999672174453735,0.4592193365097046,0.2200622856616974,-0.9281240701675415,0.9999589920043945,0.46721625328063965,0.21877828240394592,-0.9281607270240784,0.9999533891677856,0.41862231492996216,0.22325274348258972,-0.9585623741149902,0.9999784231185913,0.40216657519340515,0.22321313619613647,-0.958777666091919,0.99997878074646,0.3835688829421997,0.22334051132202148,-0.9589120745658875,0.9999778270721436,0.45953646302223206,0.22375664114952087,-0.6493589282035828,0.9999309778213501,0.3348768949508667,0.23100677132606506,-0.8012018203735352,0.9999843835830688,0.4526974558830261,0.26647046208381653,-0.8523721098899841,0.9999933242797852,0.41880691051483154,0.2689187526702881,-0.8951805233955383,0.9999971389770508,0.5315015316009521,0.35278502106666565,-0.4043233096599579,0.9999569654464722,0.1763743907213211,0.37220072746276855,-0.7058604955673218,0.9999758005142212,0.5691503882408142,0.513206958770752,-0.18753214180469513,0.9827948212623596,0.17238464951515198,0.5554211139678955,-0.6945837140083313,0.9959386587142944,0.627353310585022,0.6467700600624084,-0.30016109347343445,0.9862834215164185,0.21805976331233978,0.7124768495559692,-0.8116523623466492,0.9737597107887268,0.6490762233734131,0.6877545714378357,-0.364861398935318,0.9698621034622192,0.22606566548347473,0.7587244510650635,-0.8908151388168335,0.9495154023170471,0.6327671408653259,0.6885945796966553,-0.4497058689594269,0.9724429845809937,0.26631301641464233,0.7521002292633057,-0.9671861529350281,0.952975332736969,0.6179317831993103,0.6781807541847229,-0.3359645903110504,0.9728543758392334,0.2729239761829376,0.7385967969894409,-0.8427218198776245,0.95511394739151,0.4798426926136017,0.6337628364562988,0.09391381591558456,0.9986969828605652,0.3069268763065338,0.6492578983306885,-0.09372207522392273,0.9994004964828491,0.4770190715789795,0.8444675207138062,0.30787405371665955,0.9630995988845825,0.34090355038642883,0.8681285381317139,0.04232225567102432,0.982597291469574,0.4790009558200836,0.9612170457839966,0.9516142010688782,0.8576784133911133,0.3472084403038025,0.9985263347625732,0.4603278934955597,0.9326162338256836,0.45336809754371643,0.9731534719467163,1.0026143789291382,0.7989187836647034,0.34117332100868225,0.9998130798339844,0.48886415362358093,0.691116988658905,0.5401967167854309,1.0253323316574097,0.8275951743125916,0.8066778182983398,0.38758140802383423,1.1065034866333008,0.16946426033973694,0.8372678160667419
20096.578420828933,0.4467300474643707,0.24625930190086365,-0.9464204907417297,0.9999890327453613,0.45314687490463257,0.22259539365768433,-0.9087713360786438,0.9999628067016602,0.46160295605659485,0.22117528319358826,-0.9088588356971741,0.999954104423523,0.46954309940338135,0.21975767612457275,-0.9088779091835022,0.9999475479125977,0.42063426971435547,0.22429421544075012,-0.943343997001648,0.9999740123748779,0.4040946960449219,0.22388765215873718,-0.9435502290725708,0.9999741315841675,0.3849884867668152,0.2236042618751526,-0.9436948895454407,0.9999721050262451,0.45912104845046997,0.2238503396511078,-0.6241329312324524,0.9999269247055054,0.3353758752346039,0.23040440678596497,-0.7939094305038452,0.9999812841415405,0.45399826765060425,0.26700326800346375,-0.8323999047279358,0.999993085861206,0.420589417219162,0.26957327127456665,-0.8804089426994324,0.9999967813491821,0.529746413230896,0.3539876937866211,-0.38364672660827637,0.9999608993530273,0.17517328262329102,0.37183743715286255,-0.6942164897918701,0.9999703168869019,0.5682415962219238,0.515935480594635,-0.16316235065460205,0.9825183153152466,0.17091353237628937,0.5545169115066528,-0.6696102619171143,0.9951007962226868,0.6282770037651062,0.6507782936096191,-0.29698628187179565,0.9857816100120544,0.2187741994857788,0.7133787274360657,-0.786490797996521,0.9706223011016846,0.6489906311035156,0.6919304132461548,-0.36530739068984985,0.9690498113632202,0.2251088172197342,0.7589130401611328,-0.8663052916526794,0.9458945393562317,0.6316869854927063,0.6914945840835571,-0.45318928360939026,0.9718727469444275,0.2650037109851837,0.7514142990112305,-0.9453381896018982,0.9498327970504761,0.6168559789657593,0.6806947588920593,-0.3347552418708801,0.9727107882499695,0.2710290253162384,0.738217830657959,-0.818558394908905,0.9521427154541016,0.4804407060146332,0.6346368193626404,0.09569992870092392,0.9987741112709045,0.30482017993927,0.6488762497901917,-0.0954369530081749,0.9993157386779785,0.4758833944797516,0.8496262431144714,0.2889159619808197,0.9585608839988708,0.33914315700531006,0.8690053224563599,0.05682595074176788,0.9776726365089417,0.47849583625793457,0.9623678922653198,0.9745383858680725,0.8329797387123108,0.3470988869667053,0.996063768863678,0.5292263031005859,0.91717928647995,0.4541257917881012,0.9730490446090698,1.030122995376587,0.7851299047470093,0.341468870639801,0.9970579743385315,0.5637134313583374,0.673625648021698,0.5363129377365112,1.0291333198547363,0.8505266904830933,0.7807323336601257,0.39032676815986633,1.1036542654037476,0.24316005408763885,0.8113360404968262
20113.2450874956,0.4465698301792145,0.24722249805927277,-0.9577832221984863,0.9999849796295166,0.45294976234436035,0.22366496920585632,-0.9197264313697815,0.999950647354126,0.46120965480804443,0.22229862213134766,-0.9198517799377441,0.9999399185180664,0.4689679443836212,0.22093859314918518,-0.9199063181877136,0.9999325275421143,0.4210651218891144,0.22522413730621338,-0.9545801281929016,0.999964714050293,0.4048461616039276,0.22465083003044128,-0.9547913074493408,0.9999643564224243,0.3858754336833954,0.22422921657562256,-0.9549601674079895,0.999961256980896,0.4582383930683136,0.22465425729751587,-0.6255609393119812,0.9999117851257324,0.3364733159542084,0.23082643747329712,-0.7952089309692383,0.9999760389328003,0.4536476731300354,0.2679899334907532,-0.839198648929596,0.9999910593032837,0.4211154878139496,0.27056410908699036,-0.8871906399726868,0.9999955892562866,0.5298478603363037,0.35389211773872375,-0.36372771859169006,0.9999589920043945,0.17689481377601624,0.37217947840690613,-0.6901398301124573,0.9999644756317139,0.5671775341033936,0.5155692100524902,-0.1444636732339859,0.9821798801422119,0.17108333110809326,0.5544887781143188,-0.6660522818565369,0.9948482513427734,0.6277457475662231,0.6478531360626221,-0.29311177134513855,0.9850258231163025,0.21923808753490448,0.7138540148735046,-0.7931424379348755,0.9659650921821594,0.6493303775787354,0.6884388327598572,-0.3618611991405487,0.9674893021583557,0.22654522955417633,0.7596870064735413,-0.8752738833427429,0.9365847110748291,0.6319080591201782,0.6888427138328552,-0.45360222458839417,0.9707330465316772,0.2678759694099426,0.7528930306434631,-0.955428957939148,0.9414947628974915,0.6164708137512207,0.6783006191253662,-0.3327033817768097,0.9713119864463806,0.27339982986450195,0.7391120195388794,-0.8257442712783813,0.9443491101264954,0.47944170236587524,0.6353516578674316,0.09853620082139969,0.9982830286026001,0.3055613040924072,0.651214063167572,-0.09818172454833984,0.9989480376243591,0.47327423095703125,0.8553603291511536,0.24436715245246887,0.9490743279457092,0.33988142013549805,0.8775531053543091,0.033237308263778687,0.9684646129608154,0.4775049388408661,0.9690033197402954,0.8899806141853333,0.7914194464683533,0.34689968824386597,1.0026607513427734,0.4900290369987488,0.8884932994842529,0.4522936940193176,0.9782136082649231,0.9400028586387634,0.7453482747077942,0.3384683132171631,1.0025118589401245,0.5216432213783264,0.6180766820907593,0.5367648601531982,1.0321249961853027,0.7412387132644653,0.722325325012207,0.3882526457309723,1.119564414024353,0.1852325052022934,0.7595375776290894
20129.91175416227,0.44526487588882446,0.24535107612609863,-0.9627795815467834,0.9999899864196777,0.45130419731140137,0.22070476412773132,-0.9263815879821777,0.9999669790267944,0.4596426486968994,0.2192384898662567,-0.9264692068099976,0.9999595880508423,0.4675656855106354,0.217940092086792,-0.9265312552452087,0.9999544620513916,0.4187515079975128,0.2229365110397339,-0.9581052660942078,0.9999768733978271,0.40198835730552673,0.22304865717887878,-0.9582657217979431,0.9999762773513794,0.3831835687160492,0.2233903408050537,-0.9583916664123535,0.9999746084213257,0.4600136876106262,0.22306200861930847,-0.6421880722045898,0.99993896484375,0.3345371186733246,0.23128828406333923,-0.7985723614692688,0.9999836683273315,0.45428362488746643,0.26546603441238403,-0.8485614657402039,0.9999935626983643,0.41982364654541016,0.2683127522468567,-0.8926676511764526,0.9999969005584717,0.5324553847312927,0.353488028049469,-0.3921303153038025,0.9999603033065796,0.17794577777385712,0.37067362666130066,-0.6905086636543274,0.9999722242355347,0.5685597062110901,0.5141459703445435,-0.17322848737239838,0.9815815687179565,0.17186351120471954,0.5517014861106873,-0.6675403118133545,0.9949687123298645,0.6279059052467346,0.6476520895957947,-0.30483269691467285,0.9843305945396423,0.2180982083082199,0.7109684944152832,-0.7891599535942078,0.9667394757270813,0.649259626865387,0.6879993081092834,-0.37378913164138794,0.966642439365387,0.22461876273155212,0.7579814195632935,-0.8690851926803589,0.9386630058288574,0.6324509382247925,0.6890058517456055,-0.4629056751728058,0.9696247577667236,0.2660720944404602,0.7506060004234314,-0.9498243927955627,0.9428591132164001,0.6171920299530029,0.6794649958610535,-0.34330326318740845,0.970231831073761,0.2722872495651245,0.7365984916687012,-0.8224511742591858,0.9464454054832458,0.47899556159973145,0.6317929029464722,0.0936511680483818,0.9984347224235535,0.3066145181655884,0.6481732726097107,-0.09327392280101776,0.999194324016571,0.47590959072113037,0.845700740814209,0.29959267377853394,0.9614312648773193,0.3418184220790863,0.865195095539093,0.051941655576229095,0.9801687002182007,0.48132506012916565,0.9659069776535034,0.9137527346611023,0.8381832242012024,0.35151737928390503,0.9980108141899109,0.47170236706733704,0.9162001609802246,0.4571285843849182,0.9754557013511658,0.9606178402900696,0.7766837477684021,0.3464682996273041,0.999325692653656,0.4998869001865387,0.6704121232032776,0.5388237237930298,1.027355432510376,0.7693725824356079,0.7700947523117065,0.3997455835342407,1.1078331470489502,0.17371290922164917,0.7994793057441711
20146.578420828937,0.4474691152572632,0.24547582864761353,-0.9866655468940735,0.9999872446060181,0.45184648036956787,0.22176557779312134,-0.9491390585899353,0.9999562501907349,0.4594764709472656,0.2201225757598877,-0.9492328763008118,0.9999455213546753,0.4668073058128357,0.21855583786964417,-0.9492752552032471,0.9999383687973022,0.4211118519306183,0.22414818406105042,-0.9836986064910889,0.999970555305481,0.40505123138427734,0.2240251898765564,-0.9839202761650085,0.999970555305481,0.38626229763031006,0.223985493183136,-0.9841014742851257,0.9999692440032959,0.4555765986442566,0.22304600477218628,-0.6598119139671326,0.9999171495437622,0.33697792887687683,0.23065486550331116,-0.8282808065414429,0.9999803304672241,0.4547857940196991,0.26568618416786194,-0.8704614043235779,0.9999921321868896,0.42235541343688965,0.26876300573349,-0.9181361794471741,0.9999964237213135,0.5303531885147095,0.3527844548225403,-0.3960643708705902,0.9999544620513916,0.17795877158641815,0.3724514842033386,-0.7302738428115845,0.9999715089797974,0.5672013759613037,0.5153518915176392,-0.163206547498703,0.9817154407501221,0.17054441571235657,0.5565724968910217,-0.7153047323226929,0.9959753155708313,0.6278583407402039,0.6501258015632629,-0.2933240234851837,0.9847469329833984,0.2201000452041626,0.7141730785369873,-0.837792158126831,0.9741334319114685,0.6491050720214844,0.6906538009643555,-0.35902756452560425,0.9668059945106506,0.22586528956890106,0.7598872184753418,-0.9210582375526428,0.9492780566215515,0.6314573287963867,0.6915891170501709,-0.4485359191894531,0.96979159116745,0.2679188847541809,0.7522994875907898,-0.9987335205078125,0.9527831673622131,0.6165683269500732,0.6804018020629883,-0.33144646883010864,0.9704689979553223,0.27441638708114624,0.7385001182556152,-0.8690406680107117,0.9541506171226501,0.4787336587905884,0.6359691023826599,0.09995874017477036,0.9985254406929016,0.3050716519355774,0.6521375775337219,-0.09972498565912247,0.9992091059684753,0.47222352027893066,0.851365864276886,0.2939137816429138,0.9544743895530701,0.3405880928039551,0.8753643035888672,0.04793308675289154,0.9743881821632385,0.4783080220222473,0.9656094908714294,0.9655379056930542,0.8244212865829468,0.34864601492881775,1.001661777496338,0.5144813060760498,0.9070550799369812,0.4527477025985718,0.9752684235572815,1.0186699628829956,0.7749544978141785,0.336455374956131,1.0427546501159668,0.5476425290107727,0.6517171859741211,0.5382038354873657,1.0293457508087158,0.8232613801956177,0.768454909324646,0.3950207829475403,1.1160621643066406,0.21141810715198517,0.7949343323707581
20163.245087495605,0.4467410445213318,0.2437242865562439,-1.0535731315612793,0.9999810457229614,0.45178231596946716,0.21737214922904968,-1.0094702243804932,0.999941349029541,0.46028950810432434,0.21581655740737915,-1.0096209049224854,0.9999289512634277,0.4684385061264038,0.2144245207309723,-1.0096832513809204,0.9999191761016846,0.418986976146698,0.22038370370864868,-1.0447354316711426,0.9999548196792603,0.40184441208839417,0.2208804190158844,-1.0449615716934204,0.9999537467956543,0.38269853591918945,0.22151148319244385,-1.0451674461364746,0.9999493360519409,0.458269864320755,0.22047773003578186,-0.6876408457756042,0.9998902082443237,0.333150714635849,0.23021498322486877,-0.8592470288276672,0.9999681711196899,0.4563239812850952,0.26349109411239624,-0.9260437488555908,0.9999897480010986,0.4212862253189087,0.2667796015739441,-0.9745792746543884,0.9999946355819702,0.5302870273590088,0.35292676091194153,-0.3984743356704712,0.9999567270278931,0.1783265769481659,0.3700238764286041,-0.736587405204773,0.9999591112136841,0.5661894083023071,0.5172828435897827,-0.18188823759555817,0.9817086458206177,0.17109017074108124,0.5544030070304871,-0.7160240411758423,0.9936038851737976,0.6266090869903564,0.6500956416130066,-0.3864678740501404,0.9841998815536499,0.22114083170890808,0.7137653231620789,-0.883131742477417,0.9621522426605225,0.64930260181427,0.6905561089515686,-0.4671781361103058,0.9658383131027222,0.22865933179855347,0.7596155405044556,-0.9770849347114563,0.931317925453186,0.6314088106155396,0.6913143992424011,-0.5660580992698669,0.9693567752838135,0.2689373195171356,0.7530437707901001,-1.0639939308166504,0.9364529848098755,0.6160882711410522,0.6802412867546082,-0.43055564165115356,0.9694480895996094,0.27512991428375244,0.7392021417617798,-0.9191937446594238,0.9382798075675964,0.4805831015110016,0.6348335146903992,0.10805689543485641,0.9985049962997437,0.3076326847076416,0.6501289010047913,-0.10771813243627548,0.9990676045417786,0.47346776723861694,0.8557493686676025,0.2993702292442322,0.9459564089775085,0.3386603891849518,0.8744094371795654,0.03114262968301773,0.9716458320617676,0.4803110957145691,0.9717376828193665,1.0029422044754028,0.8195753693580627,0.3482459783554077,1.0038001537322998,0.5418652892112732,0.9000973701477051,0.45613977313041687,0.9801955819129944,1.0563929080963135,0.7745992541313171,0.3405725955963135,1.0039736032485962,0.5773769617080688,0.6403916478157043,0.5419532060623169,1.0308349132537842,0.8296728730201721,0.7650737762451172,0.3881283700466156,1.1134059429168701,0.2168077975511551,0.790287435054779
20179.911754162273,0.4453040063381195,0.24582788348197937,-1.0366212129592896,0.9999860525131226,0.4512431025505066,0.2207140326499939,-0.9971542358398438,0.999954104423523,0.4595393240451813,0.21911463141441345,-0.9972541928291321,0.9999434947967529,0.4675263464450836,0.217595636844635,-0.9972999691963196,0.9999345541000366,0.41825875639915466,0.2232726514339447,-1.0303117036819458,0.9999672174453735,0.4011267125606537,0.2234533727169037,-1.0305389165878296,0.9999675750732422,0.38197576999664307,0.2237088680267334,-1.0307209491729736,0.9999650716781616,0.45943135023117065,0.22269174456596375,-0.6921799778938293,0.9999104738235474,0.3324071168899536,0.2313118577003479,-0.8554010987281799,0.9999783039093018,0.45455241203308105,0.26587823033332825,-0.9144910573959351,0.999991774559021,0.4194563329219818,0.26929694414138794,-0.9605727791786194,0.9999961853027344,0.5304774045944214,0.3523015081882477,-0.41323456168174744,0.9999593496322632,0.1755611002445221,0.3713496923446655,-0.7372372150421143,0.9999728202819824,0.5672931671142578,0.515219509601593,-0.18893937766551971,0.9811612963676453,0.16859616339206696,0.5540812015533447,-0.7143008708953857,0.9952729344367981,0.6262839436531067,0.6486070156097412,-0.3573584258556366,0.9844974279403687,0.22203512489795685,0.7141138911247253,-0.8608098030090332,0.9702982902526855,0.6499650478363037,0.689073920249939,-0.4317217469215393,0.9668387174606323,0.2275516837835312,0.7601569294929504,-0.948021650314331,0.9439790844917297,0.6324465870857239,0.6896347403526306,-0.5259664058685303,0.9700725078582764,0.2678054869174957,0.7535339593887329,-1.0305562019348145,0.9481098055839539,0.616600513458252,0.6791965365409851,-0.39856716990470886,0.9704025387763977,0.27434611320495605,0.739660382270813,-0.8945574760437012,0.9501281976699829,0.48238226771354675,0.6321950554847717,0.10366717725992203,0.998522937297821,0.3074120879173279,0.6484022736549377,-0.1033487617969513,0.9992181062698364,0.47425153851509094,0.847896933555603,0.2897507846355438,0.949670135974884,0.3397900462150574,0.870155930519104,0.028918618336319923,0.9755988717079163,0.47831109166145325,0.963905394077301,0.9792219400405884,0.8112425208091736,0.34526968002319336,0.9964072704315186,0.4969431161880493,0.9080572128295898,0.45240461826324463,0.9743930101394653,1.0330686569213867,0.7658722400665283,0.33607155084609985,0.9969769716262817,0.529410183429718,0.6518950462341309,0.5427258014678955,1.0248429775238037,0.8342773914337158,0.7543925642967224,0.3854677975177765,1.1098475456237793,0.1882084310054779,0.7945383787155151
20196.57842082894,0.44573286175727844,0.24708192050457,-1.001440167427063,0.9999904632568359,0.45238935947418213,0.22368571162223816,-0.9633183479309082,0.9999675750732422,0.46079596877098083,0.22252985835075378,-0.9634079337120056,0.9999605417251587,0.46868792176246643,0.22137033939361572,-0.9634394645690918,0.9999537467956543,0.42045390605926514,0.22465264797210693,-0.9964686036109924,0.9999767541885376,0.4042191505432129,0.22397339344024658,-0.996661365032196,0.9999771118164062,0.3851570785045624,0.22347068786621094,-0.996799647808075,0.9999748468399048,0.4588538706302643,0.22493740916252136,-0.6659231185913086,0.9999362230300903,0.3356853425502777,0.23015373945236206,-0.8295280337333679,0.9999836683273315,0.45228004455566406,0.26751023530960083,-0.8820793032646179,0.9999938011169434,0.4196661412715912,0.26956889033317566,-0.928253173828125,0.9999971389770508,0.529495120048523,0.3517390191555023,-0.39798665046691895,0.999968409538269,0.17458854615688324,0.3711391091346741,-0.7167581915855408,0.9999752044677734,0.5678754448890686,0.5143198370933533,-0.17217803001403809,0.9844430088996887,0.17100311815738678,0.5531380772590637,-0.6990647315979004,0.9959520101547241,0.6244142651557922,0.6483739018440247,-0.32730090618133545,0.9877095222473145,0.22130624949932098,0.7119890451431274,-0.8402037620544434,0.973109781742096,0.6481788158416748,0.6893159747123718,-0.40021950006484985,0.9729218482971191,0.22828729450702667,0.7575381994247437,-0.9257834553718567,0.9489428997039795,0.6320400834083557,0.6901081800460815,-0.49165624380111694,0.9754679799079895,0.2678098976612091,0.7511378526687622,-1.0087214708328247,0.9527419209480286,0.6166239976882935,0.6790065169334412,-0.3668312132358551,0.9756144285202026,0.27496153116226196,0.73772132396698,-0.8739371299743652,0.9544689655303955,0.48039159178733826,0.6332809925079346,0.09993481636047363,0.9988459348678589,0.30613788962364197,0.6482377648353577,-0.09961632639169693,0.9993641972541809,0.47605249285697937,0.8454721570014954,0.3042026162147522,0.9589360952377319,0.34209489822387695,0.8653948903083801,0.03377973660826683,0.979478120803833,0.4785761535167694,0.9615849256515503,0.9784623384475708,0.8442001342773438,0.34725576639175415,0.9954098463058472,0.4839393198490143,0.9213348031044006,0.4528071880340576,0.9737772345542908,1.0314291715621948,0.7967739105224609,0.3402242958545685,0.9965558052062988,0.5151999592781067,0.6830481290817261,0.5401279926300049,1.0262675285339355,0.8397579789161682,0.7886714935302734,0.38533657789230347,1.1074790954589844,0.1804034560918808,0.8162092566490173
20213.24508749561,0.447153240442276,0.24583233892917633,-1.007095456123352,0.9999853372573853,0.45303094387054443,0.22190287709236145,-0.9674211740493774,0.9999517202377319,0.4607470631599426,0.2202596664428711,-0.9675332903862,0.9999401569366455,0.4679788649082184,0.2186521589756012,-0.967573344707489,0.9999305009841919,0.4220501184463501,0.22453266382217407,-1.002881407737732,0.9999663829803467,0.4057222306728363,0.22435900568962097,-1.0031033754348755,0.9999668598175049,0.386623740196228,0.22423270344734192,-1.003278136253357,0.9999650716781616,0.45682695508003235,0.22316968441009521,-0.6661303639411926,0.9999065399169922,0.3371703326702118,0.23098605871200562,-0.8386351466178894,0.9999786615371704,0.4547499120235443,0.26578545570373535,-0.8866971731185913,0.9999909400939941,0.42195677757263184,0.2693677246570587,-0.935452938079834,0.9999958276748657,0.5284856557846069,0.35272616147994995,-0.38643720746040344,0.9999539852142334,0.17727622389793396,0.37331053614616394,-0.7356078624725342,0.9999717473983765,0.5666371583938599,0.5153800249099731,-0.14920859038829803,0.9792130589485168,0.17256228625774384,0.5573278665542603,-0.7206616401672363,0.9959742426872253,0.624921441078186,0.6490730047225952,-0.29663151502609253,0.981425404548645,0.21889689564704895,0.7115903496742249,-0.8602505922317505,0.9737086296081543,0.646639347076416,0.6895675659179688,-0.3641553521156311,0.9605985879898071,0.2227521389722824,0.7577922940254211,-0.9462090730667114,0.9491822719573975,0.6317265033721924,0.6906964182853699,-0.4561552107334137,0.9642232060432434,0.26478636264801025,0.750873327255249,-1.0299108028411865,0.9529613256454468,0.6182131767272949,0.6791237592697144,-0.336471825838089,0.9653334617614746,0.2728889584541321,0.7371829748153687,-0.8939343690872192,0.9543644785881042,0.47652575373649597,0.6390937566757202,0.10653739422559738,0.998640239238739,0.3070707321166992,0.6542330980300903,-0.10625220835208893,0.9991926550865173,0.47457849979400635,0.8537254929542542,0.30170199275016785,0.9464890956878662,0.3417907655239105,0.8720492124557495,0.03931552171707153,0.9714608192443848,0.47944244742393494,0.9677260518074036,0.9609643220901489,0.8198326230049133,0.3490090072154999,1.0004984140396118,0.5203949809074402,0.8967816829681396,0.4543103277683258,0.976262092590332,1.01129949092865,0.7779009342193604,0.3412635326385498,1.0013682842254639,0.5545381307601929,0.6465352773666382,0.5399330854415894,1.0304406881332397,0.804650068283081,0.7628540396690369,0.39250025153160095,1.1140034198760986,0.21375064551830292,0.7830773591995239
20229.911754162276,0.44462621212005615,0.24462802708148956,-0.9983726143836975,0.9999881982803345,0.4502927362918854,0.22003743052482605,-0.9588859677314758,0.9999607801437378,0.4581766128540039,0.21829497814178467,-0.9590134620666504,0.9999527931213379,0.46564242243766785,0.21670228242874146,-0.9590438008308411,0.9999455213546753,0.41812777519226074,0.22290179133415222,-0.9928914904594421,0.9999716281890869,0.40134871006011963,0.22295692563056946,-0.9931110739707947,0.9999715089797974,0.382575660943985,0.2230338752269745,-0.9932841062545776,0.9999691247940063,0.4557388126850128,0.221766859292984,-0.6619272828102112,0.9999294281005859,0.3345757722854614,0.23053038120269775,-0.8278285264968872,0.9999808073043823,0.4532756805419922,0.26480981707572937,-0.879814863204956,0.9999932050704956,0.42003893852233887,0.268190860748291,-0.926702618598938,0.999996542930603,0.5293735265731812,0.35345152020454407,-0.4053463339805603,0.9999639987945557,0.1741502434015274,0.37477222084999084,-0.7068140506744385,0.9999667406082153,0.5680956840515137,0.5148157477378845,-0.1841273456811905,0.9861199855804443,0.17154142260551453,0.5588905811309814,-0.675081729888916,0.9951849579811096,0.6238380670547485,0.6485674977302551,-0.34801405668258667,0.9871636629104614,0.2185152918100357,0.7149789333343506,-0.8191208243370056,0.9707778692245483,0.645631730556488,0.6888759136199951,-0.422823965549469,0.9713684916496277,0.22575245797634125,0.7623586654663086,-0.9035272002220154,0.9457886219024658,0.628449559211731,0.6898529529571533,-0.5133174657821655,0.9741401076316833,0.26553475856781006,0.7526333928108215,-0.991252601146698,0.9500088691711426,0.6140088438987732,0.6781838536262512,-0.3874462842941284,0.9745964407920837,0.27147960662841797,0.7381422519683838,-0.8548585176467896,0.9524112939834595,0.4751145839691162,0.6359429955482483,0.08916886150836945,0.9985809326171875,0.3028451204299927,0.6489822864532471,-0.08883095532655716,0.9990928173065186,0.4724741578102112,0.8550050854682922,0.270674467086792,0.9596763849258423,0.3385343849658966,0.8689303398132324,0.058246273547410965,0.9747716784477234,0.48178747296333313,0.9704856872558594,0.9096375703811646,0.8581415414810181,0.35017111897468567,1.0012973546981812,0.5382670164108276,0.9096125364303589,0.4583250880241394,0.978352427482605,0.9575820565223694,0.8118526339530945,0.3428081274032593,1.0011146068572998,0.5716976523399353,0.6747972369194031,0.541237473487854,1.028198003768921,0.744915246963501,0.8019677996635437,0.39068636298179626,1.1086753606796265,0.23348797857761383,0.8000091314315796
20246.578420828944,0.4457589089870453,0.24676072597503662,-1.024777889251709,0.9999895095825195,0.4515685439109802,0.22221985459327698,-0.9868362545967102,0.9999642372131348,0.4594210982322693,0.22038954496383667,-0.986924946308136,0.9999552965164185,0.4669208526611328,0.218586266040802,-0.9869558215141296,0.9999483823776245,0.42001020908355713,0.2253817915916443,-1.0186821222305298,0.9999758005142212,0.403270423412323,0.22545000910758972,-1.0188918113708496,0.9999760389328003,0.3841501474380493,0.22553867101669312,-1.0190645456314087,0.9999749660491943,0.45679783821105957,0.2233905792236328,-0.692454993724823,0.9999284744262695,0.33459481596946716,0.23226380348205566,-0.8489609956741333,0.999984622001648,0.4540906846523285,0.2666743993759155,-0.907010018825531,0.9999933242797852,0.420708566904068,0.27060049772262573,-0.9511480927467346,0.9999971389770508,0.5288906097412109,0.3524519205093384,-0.4162410795688629,0.9999581575393677,0.17674505710601807,0.3722749948501587,-0.7462921738624573,0.9999783039093018,0.5664390921592712,0.5148478150367737,-0.18876765668392181,0.9803804755210876,0.1689884066581726,0.5570401549339294,-0.7356874346733093,0.9964002370834351,0.626012921333313,0.6494172215461731,-0.3342246115207672,0.9832596778869629,0.22021687030792236,0.7134442329406738,-0.8757091164588928,0.9760645031929016,0.6469817161560059,0.6909386515617371,-0.4042939245700836,0.9642430543899536,0.22555029392242432,0.7595052123069763,-0.9621261954307556,0.952521562576294,0.6301892995834351,0.6921863555908203,-0.493086576461792,0.9674152135848999,0.26700422167778015,0.7525587677955627,-1.0427452325820923,0.9559868574142456,0.6157364845275879,0.6807645559310913,-0.3725806772708893,0.968183159828186,0.27387499809265137,0.7387963533401489,-0.9083874225616455,0.9575896859169006,0.4776337146759033,0.6374226212501526,0.10436226427555084,0.9986801743507385,0.3076132833957672,0.6529894471168518,-0.10410471260547638,0.9993280172348022,0.474029541015625,0.85015869140625,0.3229607045650482,0.9541142582893372,0.34112274646759033,0.8773910999298096,0.04599110409617424,0.9783698916435242,0.477029949426651,0.9656239748001099,0.9815366864204407,0.8391535878181458,0.34743550419807434,1.0030031204223633,0.49495530128479004,0.9139065146446228,0.4510074555873871,0.9762236475944519,1.0324311256408691,0.7882441878318787,0.3397907018661499,1.0036423206329346,0.5261578559875488,0.6668537259101868,0.5405025482177734,1.0249245166778564,0.8343116044998169,0.7812196016311646,0.3951062858104706,1.1158921718597412,0.18942035734653473,0.8051912188529968
