time,X_NOSE,Y_NOSE,Z_NOSE,visibility_NOSE,X_LEFT_EYE_INNER,Y_LEFT_EYE_INNER,Z_LEFT_EYE_INNER,visibility_LEFT_EYE_INNER,X_LEFT_EYE,Y_LEFT_EYE,Z_LEFT_EYE,visibility_LEFT_EYE,X_LEFT_EYE_OUTER,Y_LEFT_EYE_OUTER,Z_LEFT_EYE_OUTER,visibility_LEFT_EYE_OUTER,X_RIGHT_EYE_OUTER,Y_RIGHT_EYE_OUTER,Z_RIGHT_EYE_OUTER,visibility_RIGHT_EYE_OUTER,X_RIGHT_EYE,Y_RIGHT_EYE,Z_RIGHT_EYE,visibility_RIGHT_EYE,X_RIGHT_EYE_OUTER,Y_RIGHT_EYE_OUTER,Z_RIGHT_EYE_OUTER,visibility_RIGHT_EYE_OUTER,X_LEFT_EAR,Y_LEFT_EAR,Z_LEFT_EAR,visibility_LEFT_EAR,X_RIGHT_EAR,Y_RIGHT_EAR,Z_RIGHT_EAR,visibility_RIGHT_EAR,X_MOUTH_LEFT,Y_MOUTH_LEFT,Z_MOUTH_LEFT,visibility_MOUTH_LEFT,X_MOUTH_RIGHT,Y_MOUTH_RIGHT,Z_MOUTH_RIGHT,visibility_MOUTH_RIGHT,X_LEFT_SHOULDER,Y_LEFT_SHOULDER,Z_LEFT_SHOULDER,visibility_LEFT_SHOULDER,X_RIGHT_SHOULDER,Y_RIGHT_SHOULDER,Z_RIGHT_SHOULDER,visibility_RIGHT_SHOULDER,X_LEFT_ELBOW,Y_LEFT_ELBOW,Z_LEFT_ELBOW,visibility_LEFT_ELBOW,X_RIGHT_ELBOW,Y_RIGHT_ELBOW,Z_RIGHT_ELBOW,visibility_RIGHT_ELBOW,X_LEFT_WRIST,Y_LEFT_WRIST,Z_LEFT_WRIST,visibility_LEFT_WRIST,X_RIGHT_WRIST,Y_RIGHT_WRIST,Z_RIGHT_WRIST,visibility_RIGHT_WRIST,X_LEFT_PINKY,Y_LEFT_PINKY,Z_LEFT_PINKY,visibility_LEFT_PINKY,X_RIGHT_PINKY,Y_RIGHT_PINKY,Z_RIGHT_PINKY,visibility_RIGHT_PINKY,X_LEFT_INDEX,Y_LEFT_INDEX,Z_LEFT_INDEX,visibility_LEFT_INDEX,X_RIGHT_INDEX,Y_RIGHT_INDEX,Z_RIGHT_INDEX,visibility_RIGHT_INDEX,X_LEFT_THUMB,Y_LEFT_THUMB,Z_LEFT_THUMB,visibility_LEFT_THUMB,X_RIGHT_THUMB,Y_RIGHT_THUMB,Z_RIGHT_THUMB,visibility_RIGHT_THUMB,X_LEFT_HIP,Y_LEFT_HIP,Z_LEFT_HIP,visibility_LEFT_HIP,X_RIGHT_HIP,Y_RIGHT_HIP,Z_RIGHT_HIP,visibility_RIGHT_HIP,X_LEFT_KNEE,Y_LEFT_KNEE,Z_LEFT_KNEE,visibility_LEFT_KNEE,X_RIGHT_KNEE,Y_RIGHT_KNEE,Z_RIGHT_KNEE,visibility_RIGHT_KNEE,X_LEFT_ANKLE,Y_LEFT_ANKLE,Z_LEFT_ANKLE,visibility_LEFT_ANKLE,X_RIGHT_ANKLE,Y_RIGHT_ANKLE,Z_RIGHT_ANKLE,visibility_RIGHT_ANKLE,X_LEFT_HEEL,Y_LEFT_HEEL,Z_LEFT_HEEL,visibility_LEFT_HEEL,X_RIGHT_HEEL,Y_RIGHT_HEEL,Z_RIGHT_HEEL,visibility_RIGHT_HEEL,X_LEFT_FOOT_INDEX,Y_LEFT_FOOT_INDEX,Z_LEFT_FOOT_INDEX,visibility_LEFT_FOOT_INDEX,X_RIGHT_FOOT_INDEX,Y_RIGHT_FOOT_INDEX,Z_RIGHT_FOOT_INDEX,visibility_RIGHT_FOOT_INDEX
13910.15714215137,0.4728158414363861,0.2764199376106262,-0.7006711959838867,0.9997159838676453,0.4876151978969574,0.2549757659435272,-0.6613990068435669,0.9994469285011292,0.4966791868209839,0.25448718667030334,-0.6616764068603516,0.9994363188743591,0.5071096420288086,0.2542010247707367,-0.6618989706039429,0.9993929862976074,0.45342767238616943,0.25586801767349243,-0.6686091423034668,0.9990424513816833,0.4393230378627777,0.25607365369796753,-0.6687237024307251,0.9989510774612427,0.4276220202445984,0.2564658522605896,-0.6688769459724426,0.9988003969192505,0.5162912011146545,0.2603721022605896,-0.3666779100894928,0.9994720816612244,0.4060204029083252,0.2635535001754761,-0.40657883882522583,0.9981653094291687,0.4878389239311218,0.29881033301353455,-0.5848997235298157,0.9997318387031555,0.4473040997982025,0.3007340431213379,-0.5963245034217834,0.9994885921478271,0.5885860323905945,0.3759317994117737,-0.17148976027965546,0.9998478889465332,0.3330427408218384,0.38262489438056946,-0.21818280220031738,0.9987435936927795,0.6104474067687988,0.5286524295806885,-0.034651219844818115,0.9530133008956909,0.3359549045562744,0.5588986277580261,-0.46630334854125977,0.9375402927398682,0.6593810319900513,0.655470073223114,-0.2426164597272873,0.9610748291015625,0.3464968204498291,0.4439510703086853,-1.0440044403076172,0.9859068393707275,0.6778178215026855,0.6965867280960083,-0.2987501621246338,0.9282941222190857,0.3512306809425354,0.4158395826816559,-1.1474835872650146,0.9770997166633606,0.6664454936981201,0.699729323387146,-0.37446150183677673,0.93516606092453,0.34059369564056396,0.39322999119758606,-1.1679936647415161,0.9765729308128357,0.6556123495101929,0.6906957626342773,-0.2735916078090668,0.9379978775978088,0.3427685499191284,0.40141937136650085,-1.0618857145309448,0.9673182368278503,0.5644686222076416,0.6480718851089478,0.0285521000623703,0.997265100479126,0.415756493806839,0.6561399102210999,-0.028556931763887405,0.9943152070045471,0.5609724521636963,0.869949996471405,-0.13070209324359894,0.5090741515159607,0.4272092282772064,0.8700910210609436,-0.07556083798408508,0.4909924566745758,0.530300498008728,1.036158800125122,0.4332456886768341,0.20190027356147766,0.4396459758281708,1.0477821826934814,0.40993839502334595,0.2338983714580536,0.5313902497291565,1.070995569229126,0.47164076566696167,0.2037738859653473,0.4476366639137268,1.0669550895690918,0.44554612040519714,0.12457388639450073,0.5798954367637634,1.113914966583252,0.17828106880187988,0.170042484998703,0.4489779472351074,1.119729995727539,0.10606777667999268,0.1837819665670395
13926.823808818037,0.47633612155914307,0.2776334285736084,-0.6840752959251404,0.999575674533844,0.4895179271697998,0.2557069957256317,-0.6464712619781494,0.999177873134613,0.49880972504615784,0.2555292546749115,-0.6467328667640686,0.9991574287414551,0.5083754658699036,0.25558990240097046,-0.6469494104385376,0.9991036057472229,0.4579002857208252,0.2559671401977539,-0.655430793762207,0.9986221790313721,0.4438905417919159,0.2561105489730835,-0.6555501222610474,0.9985172152519226,0.43158116936683655,0.25655606389045715,-0.6557267308235168,0.9983275532722473,0.5155331492424011,0.2613920271396637,-0.3565939664840698,0.9991967082023621,0.40735629200935364,0.2634795904159546,-0.40426528453826904,0.9974578022956848,0.4895128011703491,0.2998128831386566,-0.5694655179977417,0.9996114373207092,0.45006152987480164,0.30185964703559875,-0.5830847024917603,0.9992881417274475,0.5893731117248535,0.3751538097858429,-0.1588386744260788,0.9998132586479187,0.3333667516708374,0.3828507959842682,-0.22722631692886353,0.9986374974250793,0.6097369194030762,0.5263452529907227,-0.01734621450304985,0.9430547952651978,0.3376222252845764,0.5598560571670532,-0.48075011372566223,0.9316951036453247,0.6591817736625671,0.655559241771698,-0.2182890772819519,0.9535005688667297,0.34467726945877075,0.44210416078567505,-1.0474088191986084,0.9851030111312866,0.6771356463432312,0.6981434226036072,-0.2713972330093384,0.9183513522148132,0.3504531681537628,0.4120432436466217,-1.1483005285263062,0.9767617583274841,0.666102409362793,0.7023156881332397,-0.3443048596382141,0.9261661171913147,0.33913445472717285,0.39100199937820435,-1.1699312925338745,0.9763434529304504,0.6553636789321899,0.6917428970336914,-0.24810931086540222,0.9300643801689148,0.341072678565979,0.39921069145202637,-1.0654488801956177,0.9672623872756958,0.5634516477584839,0.6479422450065613,0.0362476222217083,0.9968500733375549,0.414856880903244,0.6555848121643066,-0.036241255700588226,0.9935112595558167,0.5600179433822632,0.8668566942214966,-0.1284913718700409,0.5169452428817749,0.42775988578796387,0.8673989176750183,-0.08251657336950302,0.4802759885787964,0.5308699607849121,1.0283591747283936,0.4197646975517273,0.20685085654258728,0.44045722484588623,1.0431830883026123,0.398215115070343,0.21914610266685486,0.531904935836792,1.0666344165802002,0.4570249319076538,0.2094927877187729,0.44712069630622864,1.0615363121032715,0.4337816834449768,0.11321587860584259,0.5797951817512512,1.1109747886657715,0.16849754750728607,0.16800588369369507,0.4536064863204956,1.115905523300171,0.09968452155590057,0.16782227158546448
13943.490475484703,0.47569403052330017,0.27715951204299927,-0.6720808148384094,0.9994710087776184,0.4906504452228546,0.2563459277153015,-0.6325270533561707,0.9989155530929565,0.5007012486457825,0.25616276264190674,-0.6327696442604065,0.9988214373588562,0.5107658505439758,0.25609636306762695,-0.6329397559165955,0.9987670183181763,0.4563162922859192,0.25595155358314514,-0.6411405205726624,0.9982374906539917,0.4421064555644989,0.25582876801490784,-0.6412575840950012,0.9980999827384949,0.4297653138637543,0.25609007477760315,-0.6414581537246704,0.9978973865509033,0.519187867641449,0.26203781366348267,-0.33616629242897034,0.9988054037094116,0.4080168306827545,0.26237189769744873,-0.38326480984687805,0.9965183734893799,0.48947346210479736,0.2999495565891266,-0.5560435056686401,0.9995020627975464,0.4496673047542572,0.3013114929199219,-0.5694758892059326,0.9991130232810974,0.5874163508415222,0.3772399425506592,-0.13336414098739624,0.9997373223304749,0.3337555527687073,0.3821554183959961,-0.22015009820461273,0.9986740350723267,0.6093897223472595,0.5276029109954834,0.004922918509691954,0.924905002117157,0.34043341875076294,0.5565622448921204,-0.49172016978263855,0.9189400672912598,0.659361720085144,0.6564235091209412,-0.19979140162467957,0.9372395277023315,0.3396620750427246,0.4379611015319824,-1.0776739120483398,0.9802113771438599,0.6765850186347961,0.6977062821388245,-0.25348392128944397,0.8943138718605042,0.3442717492580414,0.4086296856403351,-1.1818432807922363,0.9710105657577515,0.6644554734230042,0.7017986178398132,-0.3230474889278412,0.9031591415405273,0.334614634513855,0.38876786828041077,-1.2076473236083984,0.9705142378807068,0.6534551382064819,0.69078129529953,-0.2287602722644806,0.9086412787437439,0.3368492126464844,0.39589887857437134,-1.0983778238296509,0.9604011178016663,0.563428521156311,0.6529570817947388,0.04828091338276863,0.9968547821044922,0.4177911877632141,0.661794900894165,-0.04832158982753754,0.9942375421524048,0.5596305131912231,0.8734232187271118,-0.09993203729391098,0.4149628281593323,0.43083131313323975,0.8720354437828064,-0.10675182193517685,0.4311986267566681,0.5286104679107666,1.0363208055496216,0.4557279944419861,0.1745443046092987,0.44004762172698975,1.05347740650177,0.3677534759044647,0.2062615603208542,0.5218313932418823,1.0725719928741455,0.49371328949928284,0.20538651943206787,0.4429411292076111,1.072889804840088,0.40211087465286255,0.1166268065571785,0.5793613195419312,1.1160345077514648,0.20615902543067932,0.1579747498035431,0.461927205324173,1.1256098747253418,0.05926654487848282,0.16648292541503906
13960.157142151369,0.4751852750778198,0.2766963839530945,-0.6705009937286377,0.9995427131652832,0.4892781674861908,0.25439560413360596,-0.6308254599571228,0.9990828037261963,0.4980595111846924,0.2543390095233917,-0.6310994029045105,0.9990391731262207,0.5084452629089355,0.25448375940322876,-0.6313081383705139,0.9989851117134094,0.45571601390838623,0.2550611197948456,-0.639333963394165,0.9984607696533203,0.4417349398136139,0.25545594096183777,-0.6394578218460083,0.9983105659484863,0.4293150305747986,0.2564356029033661,-0.6396485567092896,0.9980965256690979,0.5179201364517212,0.26074108481407166,-0.33711954951286316,0.9990611672401428,0.4074449837207794,0.2635386884212494,-0.383039653301239,0.9969622492790222,0.49054548144340515,0.29894426465034485,-0.555370032787323,0.9995802044868469,0.44955065846443176,0.30169737339019775,-0.5685266852378845,0.9991994500160217,0.588265597820282,0.3771740794181824,-0.14224408566951752,0.99980229139328,0.33325663208961487,0.38297244906425476,-0.21267041563987732,0.9986577033996582,0.6085798740386963,0.5273804068565369,-0.004019828047603369,0.9327498078346252,0.34172120690345764,0.5584856867790222,-0.47283968329429626,0.9233790636062622,0.6570460796356201,0.6539992690086365,-0.20852893590927124,0.9462536573410034,0.3446543216705322,0.44184792041778564,-1.0490831136703491,0.9844282865524292,0.6767309904098511,0.6951293349266052,-0.2616885304450989,0.9094887971878052,0.35032394528388977,0.4114508032798767,-1.1519784927368164,0.9759916067123413,0.6645165085792542,0.6987224817276001,-0.33416640758514404,0.9181680083274841,0.3389495611190796,0.3913538455963135,-1.17493736743927,0.9756224751472473,0.6528741121292114,0.6883531212806702,-0.23848764598369598,0.9223173260688782,0.34102776646614075,0.39927712082862854,-1.0682730674743652,0.9666705131530762,0.5648981928825378,0.6500745415687561,0.03608299419283867,0.996912956237793,0.4180903136730194,0.6592981219291687,-0.036079633980989456,0.9935179948806763,0.56097811460495,0.8676466345787048,-0.14114654064178467,0.4739034175872803,0.4288565218448639,0.8685224056243896,-0.08462556451559067,0.4175991415977478,0.5468260049819946,1.0474348068237305,0.40944841504096985,0.17438308894634247,0.44067877531051636,1.0467841625213623,0.4106962978839874,0.1825476884841919,0.5327770709991455,1.0680774450302124,0.4469403922557831,0.18172159790992737,0.44734320044517517,1.0655720233917236,0.44734764099121094,0.09967061132192612,0.5793166160583496,1.1120445728302002,0.15389706194400787,0.14818964898586273,0.45242467522621155,1.1187430620193481,0.10844310373067856,0.1458238661289215
13976.823808818035,0.4797728955745697,0.27616122364997864,-0.6627348065376282,0.9993916749954224,0.4930655062198639,0.25467634201049805,-0.6218069791793823,0.9987924098968506,0.5030031800270081,0.25458821654319763,-0.6220741271972656,0.9987215399742126,0.5129528045654297,0.25465166568756104,-0.6222682595252991,0.9986318945884705,0.4608655571937561,0.2546840012073517,-0.6317638754844666,0.9980261921882629,0.44659456610679626,0.25490280985832214,-0.6318904757499695,0.9978811144828796,0.4336757957935333,0.25554725527763367,-0.6321014761924744,0.997661828994751,0.5208066701889038,0.26097992062568665,-0.32285076379776,0.9987266659736633,0.409702330827713,0.26256465911865234,-0.3753966987133026,0.9964005947113037,0.4932766854763031,0.29914218187332153,-0.5458110570907593,0.9994369149208069,0.4536758363246918,0.30093148350715637,-0.5608696937561035,0.9990419745445251,0.5873759984970093,0.3784257471561432,-0.12380276620388031,0.9997220635414124,0.33418554067611694,0.3823065459728241,-0.20857785642147064,0.9985178112983704,0.6088578701019287,0.5287591218948364,0.017182888463139534,0.9234247207641602,0.338440477848053,0.5593694448471069,-0.47036996483802795,0.9298722147941589,0.6586584448814392,0.6564234495162964,-0.18962356448173523,0.936622142791748,0.34418338537216187,0.44118744134902954,-1.043724775314331,0.9843528866767883,0.6755808591842651,0.6986700296401978,-0.24365445971488953,0.8944150805473328,0.3483341932296753,0.41002610325813293,-1.147200107574463,0.975965142250061,0.667832612991333,0.7028517127037048,-0.3153684139251709,0.9039318561553955,0.33760255575180054,0.38933056592941284,-1.1704838275909424,0.9756920337677002,0.6575057506561279,0.6914706826210022,-0.21974393725395203,0.9099293947219849,0.33995288610458374,0.3969595730304718,-1.0628714561462402,0.9665529727935791,0.5607630610466003,0.6544396877288818,0.04212392494082451,0.9968299269676208,0.41259968280792236,0.6624748706817627,-0.0421268530189991,0.9936717748641968,0.5616099834442139,0.8735907077789307,-0.12532185018062592,0.48439884185791016,0.4276004731655121,0.873420774936676,-0.0895516574382782,0.4435385763645172,0.5320470929145813,1.0362074375152588,0.4443119168281555,0.19477364420890808,0.4423072040081024,1.0521217584609985,0.4154973030090332,0.20882485806941986,0.5278552174568176,1.0739905834197998,0.4836209714412689,0.2067260891199112,0.448127418756485,1.0707895755767822,0.45316341519355774,0.11323724687099457,0.5764044523239136,1.1195034980773926,0.18875336647033691,0.16873499751091003,0.45830589532852173,1.1242434978485107,0.10940833389759064,0.17069317400455475
13993.490475484701,0.47359776496887207,0.27445584535598755,-0.5963534712791443,0.9994426369667053,0.48940330743789673,0.2522503137588501,-0.555516242980957,0.9989116191864014,0.4977068603038788,0.25201478600502014,-0.5558192729949951,0.9988885521888733,0.5081373453140259,0.2520369291305542,-0.5560532212257385,0.9988161325454712,0.45567786693573,0.2536855638027191,-0.5607738494873047,0.998206377029419,0.44199562072753906,0.2542777359485626,-0.5608618259429932,0.9980818033218384,0.4299468696117401,0.25541967153549194,-0.5610611438751221,0.9978612065315247,0.5182794332504272,0.2596529424190521,-0.27447041869163513,0.9989519119262695,0.40886086225509644,0.2633860409259796,-0.30479779839515686,0.9966772794723511,0.4897646903991699,0.2973736822605133,-0.48759812116622925,0.9995158910751343,0.4492790997028351,0.29955798387527466,-0.4962536692619324,0.9991126656532288,0.5871145725250244,0.37994569540023804,-0.1082710400223732,0.9997071623802185,0.33511748909950256,0.38114994764328003,-0.15162651240825653,0.9982938170433044,0.611538290977478,0.5304232835769653,0.013734472915530205,0.9355944395065308,0.33983880281448364,0.5590773820877075,-0.42533743381500244,0.9249325394630432,0.6602691411972046,0.6584528684616089,-0.17283885180950165,0.9431160688400269,0.34310412406921387,0.44222694635391235,-1.0044900178909302,0.986151397228241,0.6758550405502319,0.6992705464363098,-0.223288431763649,0.9054284691810608,0.3501172661781311,0.41508278250694275,-1.1066031455993652,0.9785435795783997,0.666606605052948,0.7026993036270142,-0.2911452353000641,0.9138951301574707,0.3396044969558716,0.3939681947231293,-1.1238638162612915,0.9781187772750854,0.6568787097930908,0.6926196813583374,-0.20039476454257965,0.9206660389900208,0.3411839008331299,0.4013599455356598,-1.0216565132141113,0.9698461890220642,0.5603765249252319,0.656838059425354,0.02534157782793045,0.9966806769371033,0.41217732429504395,0.663108766078949,-0.025321247056126595,0.9928521513938904,0.5554141402244568,0.8772248029708862,-0.1539061814546585,0.4609234631061554,0.4284719228744507,0.877403974533081,-0.07488172501325607,0.42165708541870117,0.5396182537078857,1.0531818866729736,0.40273377299308777,0.16346904635429382,0.44257277250289917,1.0488762855529785,0.411872535943985,0.1816052794456482,0.5270237922668457,1.0740032196044922,0.44121238589286804,0.18092918395996094,0.4504524767398834,1.0678718090057373,0.44897156953811646,0.10746066272258759,0.5687701106071472,1.1174458265304565,0.16499555110931396,0.13116365671157837,0.4513363838195801,1.1197344064712524,0.12830151617527008,0.14281737804412842
14010.157142151367,0.4729071259498596,0.2764892280101776,-0.6917445659637451,0.9994568228721619,0.48848631978034973,0.25406140089035034,-0.6540557146072388,0.9989066123962402,0.4968595802783966,0.25392207503318787,-0.6543061137199402,0.998866081237793,0.5071953535079956,0.25408321619033813,-0.6545043587684631,0.9987967014312744,0.45445460081100464,0.25514909625053406,-0.6609004139900208,0.9982325434684753,0.4406539797782898,0.2556283175945282,-0.6610249280929565,0.9980912804603577,0.42856889963150024,0.2566550672054291,-0.6612504124641418,0.9978973865509033,0.5173252820968628,0.2606728672981262,-0.3673751950263977,0.9988665580749512,0.4078192114830017,0.2634427547454834,-0.4048619866371155,0.9965981841087341,0.4891473650932312,0.29837676882743835,-0.5790704488754272,0.9994961023330688,0.4479486346244812,0.30147507786750793,-0.5897893905639648,0.9991137385368347,0.5886656641960144,0.3780146539211273,-0.17146141827106476,0.9997163414955139,0.3337849974632263,0.3823559582233429,-0.23815356194972992,0.9985764026641846,0.6118803024291992,0.5283123254776001,-0.03258587047457695,0.935789942741394,0.340085506439209,0.5588384866714478,-0.5026670098304749,0.9324334859848022,0.6602431535720825,0.6575106978416443,-0.23153641819953918,0.9422999620437622,0.3473457098007202,0.44580474495887756,-1.078190565109253,0.9846137762069702,0.6760843992233276,0.6990534663200378,-0.2830827832221985,0.9014497399330139,0.35327601432800293,0.4172073006629944,-1.1797058582305908,0.9761015772819519,0.6681236624717712,0.7032137513160706,-0.3543756902217865,0.9098836779594421,0.3422924280166626,0.39445164799690247,-1.2001683712005615,0.9755995869636536,0.6578696370124817,0.6918005347251892,-0.2605241537094116,0.9161041378974915,0.3443487584590912,0.4022280275821686,-1.0960333347320557,0.9661872982978821,0.5603039264678955,0.6532806158065796,0.03670725226402283,0.9963268637657166,0.41207748651504517,0.6586072444915771,-0.036728378385305405,0.9930213093757629,0.5595014095306396,0.8684830665588379,-0.12977510690689087,0.4751322865486145,0.4303416907787323,0.8686429858207703,-0.08296661078929901,0.44349610805511475,0.5418162941932678,1.0440359115600586,0.42754846811294556,0.18872776627540588,0.44202926754951477,1.0430021286010742,0.4137451648712158,0.19598639011383057,0.5284213423728943,1.0641565322875977,0.4654148519039154,0.1957707405090332,0.4485735595226288,1.0609511137008667,0.45087653398513794,0.10583896189928055,0.5719701051712036,1.109537959098816,0.17538495361804962,0.15878157317638397,0.4555935263633728,1.1159539222717285,0.11367309093475342,0.1587492674589157
14026.823808818033,0.47591593861579895,0.2771260440349579,-0.7458038926124573,0.9996167421340942,0.4900069832801819,0.2552511990070343,-0.7078375816345215,0.999218225479126,0.49817514419555664,0.25504207611083984,-0.708062469959259,0.999160885810852,0.5084275603294373,0.25511565804481506,-0.7082339525222778,0.9991199374198914,0.45761045813560486,0.25611022114753723,-0.7171556353569031,0.9987448453903198,0.44361844658851624,0.25654637813568115,-0.7173019647598267,0.9986227750778198,0.4313446581363678,0.2575002908706665,-0.7175126671791077,0.9985009431838989,0.517278790473938,0.26177194714546204,-0.4107867479324341,0.999138593673706,0.4087441861629486,0.2644047439098358,-0.4602693021297455,0.9974446296691895,0.49032294750213623,0.2995494306087494,-0.6285473108291626,0.9996347427368164,0.4507407248020172,0.30213117599487305,-0.6427675485610962,0.9993496537208557,0.5884395837783813,0.37648627161979675,-0.19835726916790009,0.9998071789741516,0.3327755033969879,0.38231056928634644,-0.2812228798866272,0.9989873766899109,0.6109634637832642,0.5267796516418457,-0.057188790291547775,0.9387429356575012,0.34155207872390747,0.5605396628379822,-0.5408961772918701,0.936881959438324,0.6590020060539246,0.6554217338562012,-0.27889493107795715,0.9480657577514648,0.3489644229412079,0.4454649090766907,-1.1247128248214722,0.9855061769485474,0.6757006049156189,0.6972029209136963,-0.3341580927371979,0.9096509218215942,0.3558616638183594,0.4171077609062195,-1.2283376455307007,0.9772432446479797,0.6660928130149841,0.7010929584503174,-0.40755245089530945,0.9175562262535095,0.3433416187763214,0.39526960253715515,-1.2517879009246826,0.9767307639122009,0.6559743285179138,0.689997673034668,-0.3094049096107483,0.9217943549156189,0.3450256884098053,0.40274015069007874,-1.1435940265655518,0.9674981832504272,0.5620465278625488,0.6494754552841187,0.04219921678304672,0.9965403079986572,0.4139461815357208,0.6551417708396912,-0.042295604944229126,0.9937022924423218,0.5611701011657715,0.8661354780197144,-0.1184290274977684,0.45089513063430786,0.42925411462783813,0.8657973408699036,-0.0975799635052681,0.446224570274353,0.532329797744751,1.031005620956421,0.4266412854194641,0.18918074667453766,0.440685898065567,1.0459423065185547,0.38245102763175964,0.20857371389865875,0.5286528468132019,1.0643413066864014,0.4628802537918091,0.1917293518781662,0.4455280005931854,1.0646772384643555,0.41697484254837036,0.11138835549354553,0.5779692530632019,1.1091766357421875,0.16532281041145325,0.17131467163562775,0.45942795276641846,1.1187504529953003,0.07127762585878372,0.1729535162448883
14043.4904754847,0.4799645245075226,0.275599867105484,-0.6942470669746399,0.9994286894798279,0.49290794134140015,0.2535775899887085,-0.6532568335533142,0.9988769888877869,0.5025758147239685,0.25342682003974915,-0.6535053849220276,0.998795747756958,0.5128287672996521,0.25345683097839355,-0.6536838412284851,0.9987333416938782,0.46028220653533936,0.2544114887714386,-0.663892924785614,0.9981545805931091,0.44593703746795654,0.25498077273368835,-0.6640352606773376,0.9980125427246094,0.4328654110431671,0.2559763789176941,-0.6642594933509827,0.9977776408195496,0.5210037231445312,0.26024165749549866,-0.3540346920490265,0.9987667798995972,0.4093337655067444,0.2633633613586426,-0.409726619720459,0.9964838027954102,0.4934498369693756,0.29891499876976013,-0.5775651931762695,0.9995169639587402,0.4536862373352051,0.30153676867485046,-0.5934755802154541,0.9991313815116882,0.5876274704933167,0.37794411182403564,-0.1453348994255066,0.9997618794441223,0.33578336238861084,0.38357013463974,-0.25037187337875366,0.9985907673835754,0.6086652278900146,0.527153730392456,0.005892958026379347,0.928141713142395,0.34070366621017456,0.558483362197876,-0.51971834897995,0.933230459690094,0.6592717170715332,0.6552823185920715,-0.19503536820411682,0.9486017823219299,0.34406134486198425,0.44081175327301025,-1.0944545269012451,0.9853074550628662,0.6761556267738342,0.6963312029838562,-0.24685002863407135,0.9127023220062256,0.3482736349105835,0.40886083245277405,-1.1972911357879639,0.9773138165473938,0.6647913455963135,0.6999413967132568,-0.31722259521484375,0.9206538796424866,0.33749035000801086,0.38905489444732666,-1.2223243713378906,0.976895809173584,0.6543695330619812,0.689388632774353,-0.2241111695766449,0.9240285158157349,0.33951929211616516,0.3972117602825165,-1.1141560077667236,0.9684193134307861,0.5627536773681641,0.6511833071708679,0.05457659810781479,0.9969913959503174,0.4176616370677948,0.6611006855964661,-0.054620809853076935,0.9937637448310852,0.5611971616744995,0.8683511018753052,-0.11963227391242981,0.4582543969154358,0.4313419461250305,0.8690544366836548,-0.09715329110622406,0.4206327497959137,0.5426985025405884,1.0480225086212158,0.4384308159351349,0.18144357204437256,0.4389105439186096,1.04740309715271,0.41276460886001587,0.18335609138011932,0.5255993604660034,1.0689359903335571,0.47654345631599426,0.19715778529644012,0.44141408801078796,1.0660820007324219,0.45073407888412476,0.10013505071401596,0.5830057859420776,1.1128402948379517,0.1832650899887085,0.1589972972869873,0.4634445905685425,1.119359016418457,0.1062178686261177,0.14896953105926514
14060.157142151365,0.4764136075973511,0.2776534855365753,-0.7104990482330322,0.9995458722114563,0.49090418219566345,0.25677216053009033,-0.6714757084846497,0.9990665316581726,0.5002713799476624,0.25669142603874207,-0.6717115640640259,0.999009370803833,0.5109899044036865,0.2567189931869507,-0.6718876957893372,0.9989503026008606,0.45684894919395447,0.25650402903556824,-0.680890679359436,0.9984630346298218,0.44263023138046265,0.2565075755119324,-0.6810354590415955,0.99835604429245,0.42986997961997986,0.2569549083709717,-0.6812458038330078,0.9981368780136108,0.5201263427734375,0.26272904872894287,-0.37189164757728577,0.998997151851654,0.4080940783023834,0.2632519006729126,-0.4220530092716217,0.9969858527183533,0.49073752760887146,0.30068737268447876,-0.5925564765930176,0.9996126294136047,0.4499247372150421,0.3025115430355072,-0.6069568395614624,0.9992777705192566,0.588426411151886,0.3784940838813782,-0.1570100039243698,0.99980229139328,0.33463114500045776,0.3835451304912567,-0.2501838505268097,0.9987607002258301,0.6091842651367188,0.5282641649246216,-0.0065030865371227264,0.9340865612030029,0.34249556064605713,0.5577818155288696,-0.5138345956802368,0.9232855439186096,0.6596440672874451,0.6563431024551392,-0.21616633236408234,0.9484653472900391,0.34202274680137634,0.44038230180740356,-1.0982997417449951,0.9830805659294128,0.6777652502059937,0.6975420713424683,-0.2688421308994293,0.9121778011322021,0.3467143177986145,0.41044387221336365,-1.2025597095489502,0.9744604825973511,0.6666553616523743,0.7010135054588318,-0.3415379822254181,0.9204221963882446,0.33751344680786133,0.38993039727211,-1.2285423278808594,0.9740789532661438,0.6555491089820862,0.690322756767273,-0.24618485569953918,0.9230534434318542,0.34029239416122437,0.39773550629615784,-1.1187796592712402,0.9648461937904358,0.5643128156661987,0.6510437726974487,0.0484069362282753,0.9970269799232483,0.41701892018318176,0.6597945690155029,-0.04848247021436691,0.9939461350440979,0.5618759393692017,0.8691569566726685,-0.11747638881206512,0.509867787361145,0.42910486459732056,0.8670023083686829,-0.09352212399244308,0.4608103334903717,0.5450528264045715,1.052645206451416,0.4451052248477936,0.21356916427612305,0.43877872824668884,1.0512620210647583,0.4155728220939636,0.2133726179599762,0.5296143293380737,1.0728384256362915,0.48319634795188904,0.2047707885503769,0.44242891669273376,1.0697076320648193,0.45305997133255005,0.11114908009767532,0.5786275863647461,1.1198153495788574,0.1801752746105194,0.1796608716249466,0.4595854580402374,1.1245837211608887,0.10277938097715378,0.17142881453037262
14076.823808818031,0.4773573875427246,0.27647191286087036,-0.7482126951217651,0.9996612071990967,0.4905248284339905,0.2545730471611023,-0.7092469930648804,0.9993222951889038,0.4992254376411438,0.25439929962158203,-0.7094740271568298,0.9992757439613342,0.5093708634376526,0.25448691844940186,-0.7096517086029053,0.9992392063140869,0.4581538438796997,0.2552444338798523,-0.7193357944488525,0.9989019632339478,0.44379734992980957,0.2556653618812561,-0.7194954752922058,0.9988014698028564,0.43133607506752014,0.2565639317035675,-0.7196829319000244,0.9986571073532104,0.5169306397438049,0.2610650956630707,-0.4102814495563507,0.9992507100105286,0.40790778398513794,0.26354050636291504,-0.4645255506038666,0.9977537989616394,0.49093249440193176,0.29887187480926514,-0.6306418180465698,0.9996815919876099,0.45084327459335327,0.30154889822006226,-0.6461950540542603,0.9994251728057861,0.5875852108001709,0.37699249386787415,-0.19850535690784454,0.9998262524604797,0.331868052482605,0.38403308391571045,-0.2806820571422577,0.998889148235321,0.6101111173629761,0.5282239317893982,-0.04939357936382294,0.944235622882843,0.3382817506790161,0.5591564178466797,-0.5375413298606873,0.9338712692260742,0.6618690490722656,0.6577398180961609,-0.2630631625652313,0.9576539397239685,0.34103548526763916,0.4445856213569641,-1.1246088743209839,0.9852832555770874,0.6793234348297119,0.6986533403396606,-0.316943496465683,0.9246044754981995,0.3465261459350586,0.41539737582206726,-1.228822112083435,0.9771448969841003,0.668759286403656,0.7015593647956848,-0.39207813143730164,0.9315141439437866,0.33650314807891846,0.3938736915588379,-1.2544423341751099,0.9768192172050476,0.6577191352844238,0.6913884282112122,-0.2938882112503052,0.933688759803772,0.33837175369262695,0.40096381306648254,-1.1448149681091309,0.9681158661842346,0.5643705725669861,0.6465305089950562,0.04266053065657616,0.9970483183860779,0.4185725450515747,0.6570755839347839,-0.04276619479060173,0.9944323897361755,0.5618734359741211,0.8655786514282227,-0.10315071046352386,0.5034405589103699,0.4296130836009979,0.8641317486763,-0.08631447702646255,0.470363587141037,0.5292313694953918,1.0212186574935913,0.45913898944854736,0.20469620823860168,0.43578261137008667,1.022454023361206,0.4148934781551361,0.2176305502653122,0.5320245027542114,1.0650014877319336,0.49713870882987976,0.19876763224601746,0.44709083437919617,1.0625205039978027,0.451705664396286,0.11058532446622849,0.5830109119415283,1.1109676361083984,0.1973986029624939,0.1750880479812622,0.45701658725738525,1.1182359457015991,0.10415565967559814,0.17363816499710083
14093.490475484698,0.475832462310791,0.2772495448589325,-0.7261210083961487,0.9994088411331177,0.49082788825035095,0.2560347020626068,-0.6865952014923096,0.9988120794296265,0.5002933144569397,0.25599926710128784,-0.6868372559547424,0.9987325072288513,0.5110242962837219,0.25612911581993103,-0.6870080828666687,0.9986585378646851,0.456848680973053,0.2560247480869293,-0.6960443258285522,0.9980888962745667,0.4426862597465515,0.25614500045776367,-0.6962104439735413,0.9979681372642517,0.43011805415153503,0.2567406892776489,-0.6964471936225891,0.9977155923843384,0.5205033421516418,0.2623080015182495,-0.38555479049682617,0.9987021684646606,0.40827620029449463,0.2631087601184845,-0.43590056896209717,0.9962345957756042,0.49045413732528687,0.3003041446208954,-0.6079498529434204,0.999489426612854,0.4496438205242157,0.3021732270717621,-0.6224102973937988,0.9990482926368713,0.5890612602233887,0.37930020689964294,-0.17018195986747742,0.9997496008872986,0.3339446187019348,0.3840779662132263,-0.26493826508522034,0.9985263347625732,0.6096281409263611,0.5309485197067261,-0.019490350037813187,0.9311723709106445,0.3440900444984436,0.5574913620948792,-0.5359125137329102,0.9213453531265259,0.6606249809265137,0.6580895781517029,-0.22423650324344635,0.9457755088806152,0.3442304730415344,0.4380592107772827,-1.1197808980941772,0.9822189807891846,0.6771411299705505,0.6996986865997314,-0.27552157640457153,0.907598614692688,0.34992820024490356,0.4087172746658325,-1.2234331369400024,0.9729564785957336,0.6684011816978455,0.7031867504119873,-0.34665969014167786,0.9162877798080444,0.3399192988872528,0.38762366771698,-1.2477158308029175,0.9724941253662109,0.6575641632080078,0.6920804381370544,-0.25349485874176025,0.9193505644798279,0.3418770432472229,0.39560467004776,-1.139362096786499,0.96260005235672,0.5648826360702515,0.6539633870124817,0.0462619885802269,0.9962447285652161,0.41756024956703186,0.6643282771110535,-0.04631851986050606,0.9925988912582397,0.5617711544036865,0.8698486685752869,-0.10403168201446533,0.46465417742729187,0.42966920137405396,0.8669406771659851,-0.0890713557600975,0.4191507399082184,0.5478308200836182,1.0526676177978516,0.4472242593765259,0.1879618763923645,0.43195605278015137,1.0249364376068115,0.4057348370552063,0.18293717503547668,0.5337114334106445,1.0731991529464722,0.4842556118965149,0.18877509236335754,0.43848636746406555,1.0716482400894165,0.4419713616371155,0.10025425255298615,0.5800419449806213,1.1183055639266968,0.18317773938179016,0.16163086891174316,0.4562104642391205,1.1254441738128662,0.09256240725517273,0.14811073243618011
14110.157142151364,0.47379270195961,0.2757814824581146,-0.7822861671447754,0.9998034834861755,0.4885917603969574,0.2544218897819519,-0.7444902062416077,0.9996011853218079,0.4970752000808716,0.25417351722717285,-0.7447051405906677,0.9995744824409485,0.5078142285346985,0.25419414043426514,-0.7448742985725403,0.9995433688163757,0.4547123312950134,0.25485759973526,-0.7516130208969116,0.9993372559547424,0.44031184911727905,0.2550034821033478,-0.7517634630203247,0.9992625117301941,0.4283894896507263,0.255553662776947,-0.7519327998161316,0.9991648197174072,0.5175215601921082,0.26090919971466064,-0.4498603940010071,0.9995695948600769,0.40723738074302673,0.26299968361854553,-0.4913751482963562,0.9985668063163757,0.4889046847820282,0.29791897535324097,-0.6666280031204224,0.9998195767402649,0.4479783773422241,0.29958683252334595,-0.6785604953765869,0.9996547698974609,0.589961051940918,0.37734633684158325,-0.2405833601951599,0.9998733997344971,0.3331390619277954,0.3828173279762268,-0.29691800475120544,0.9991849064826965,0.6105859279632568,0.5284392833709717,-0.086258664727211,0.9525635242462158,0.3403130769729614,0.5579667687416077,-0.5455228686332703,0.9362270832061768,0.6611149907112122,0.657478928565979,-0.29283425211906433,0.9584466814994812,0.34175905585289,0.4488499164581299,-1.144517421722412,0.9864017367362976,0.6779391765594482,0.6984898447990417,-0.34587791562080383,0.9257833361625671,0.34754371643066406,0.42013034224510193,-1.2502602338790894,0.9791260957717896,0.6684513688087463,0.7016377449035645,-0.42145922780036926,0.9321022629737854,0.33648914098739624,0.3981666564941406,-1.2746593952178955,0.9786499738693237,0.6575812697410583,0.6910426020622253,-0.32318100333213806,0.9356528520584106,0.3386315703392029,0.4052393138408661,-1.1646493673324585,0.9703121781349182,0.5612411499023438,0.6465100049972534,0.03017525188624859,0.9977572560310364,0.41510942578315735,0.653172492980957,-0.030260857194662094,0.9953793287277222,0.5588091611862183,0.8582477569580078,-0.11136215180158615,0.4735528528690338,0.4271593689918518,0.8561654090881348,-0.06105834245681763,0.45253515243530273,0.5510305166244507,1.0359370708465576,0.43395325541496277,0.19198742508888245,0.4385267496109009,1.034709095954895,0.4445607364177704,0.20492646098136902,0.5382346510887146,1.0564353466033936,0.47034695744514465,0.194087952375412,0.4457595944404602,1.0522067546844482,0.48236986994743347,0.11557982116937637,0.5833393335342407,1.1004645824432373,0.17370136082172394,0.17055346071720123,0.4486983120441437,1.107750654220581,0.1434563398361206,0.16700363159179688
14126.82380881803,0.47828295826911926,0.27601438760757446,-0.7992934584617615,0.9997928738594055,0.491027295589447,0.255202054977417,-0.7619308233261108,0.9995918869972229,0.49985015392303467,0.2547999918460846,-0.7621546387672424,0.9995668530464172,0.5098260045051575,0.25466057658195496,-0.7623414993286133,0.9995444416999817,0.4579560458660126,0.2555544674396515,-0.7706752419471741,0.9993188381195068,0.44318628311157227,0.25565868616104126,-0.7708381414413452,0.9992413520812988,0.43090683221817017,0.2559894025325775,-0.7710033655166626,0.999140739440918,0.5173434019088745,0.26074403524398804,-0.46738165616989136,0.9995741248130798,0.4076228141784668,0.26336413621902466,-0.5161314010620117,0.9985145926475525,0.49110057950019836,0.29811936616897583,-0.6831896305084229,0.9998026490211487,0.4508187174797058,0.2999991476535797,-0.6972306966781616,0.9996115565299988,0.5906910300254822,0.3757709264755249,-0.2578528821468353,0.9998711347579956,0.33263951539993286,0.3831554055213928,-0.3159731328487396,0.9990440011024475,0.6099380850791931,0.5278241038322449,-0.0996275395154953,0.9504318237304688,0.34136223793029785,0.5611257553100586,-0.55782550573349,0.9309007525444031,0.6611347794532776,0.6568073630332947,-0.2964417338371277,0.9573616981506348,0.3452044725418091,0.44731417298316956,-1.1404629945755005,0.9850077629089355,0.6787203550338745,0.6975274682044983,-0.3469521701335907,0.9245989322662354,0.35116147994995117,0.41789036989212036,-1.242712140083313,0.9771692156791687,0.6679131388664246,0.7009260058403015,-0.42325764894485474,0.931330680847168,0.33888882398605347,0.39609479904174805,-1.2676310539245605,0.9767218828201294,0.6568370461463928,0.6907619833946228,-0.3267679810523987,0.9349827170372009,0.34044450521469116,0.403113454580307,-1.1602658033370972,0.9675488471984863,0.5645113587379456,0.6431440114974976,0.028299517929553986,0.9975281357765198,0.4164069592952728,0.651823103427887,-0.028379781171679497,0.9947920441627502,0.5570268630981445,0.8588875532150269,-0.1146249771118164,0.46997562050819397,0.4243650734424591,0.8561139106750488,-0.06498753279447556,0.448310524225235,0.5479280352592468,1.0352362394332886,0.4168001413345337,0.1929076910018921,0.4358718991279602,1.0342106819152832,0.4169490933418274,0.2070131003856659,0.5349488854408264,1.0559062957763672,0.4518875181674957,0.19275744259357452,0.44310954213142395,1.0519452095031738,0.4523684084415436,0.11398162692785263,0.5803623795509338,1.0993659496307373,0.15826569497585297,0.17119817435741425,0.4452584683895111,1.1071138381958008,0.11718925088644028,0.1670731157064438
14143.490475484696,0.47410058975219727,0.27514347434043884,-0.7572334408760071,0.9997805953025818,0.48906680941581726,0.2541112005710602,-0.7184506058692932,0.9995543360710144,0.49761489033699036,0.2538118064403534,-0.7186698317527771,0.9995219707489014,0.5081067681312561,0.2537538707256317,-0.7188379764556885,0.9994902610778809,0.45496678352355957,0.2546807527542114,-0.7261039018630981,0.9992613196372986,0.4405694007873535,0.25485920906066895,-0.7262484431266785,0.9991790652275085,0.4285288155078888,0.2553441822528839,-0.7264205813407898,0.9990725517272949,0.5174762606620789,0.26036766171455383,-0.424429714679718,0.9995169639587402,0.4073278307914734,0.2629207670688629,-0.46827730536460876,0.9984244108200073,0.48910248279571533,0.29736897349357605,-0.6422810554504395,0.9998013377189636,0.44816452264785767,0.2990155816078186,-0.6548659801483154,0.9996217489242554,0.589275598526001,0.37749263644218445,-0.2183552235364914,0.9998660087585449,0.3335835933685303,0.38284534215927124,-0.2820253372192383,0.9991375207901001,0.6102726459503174,0.5279386043548584,-0.06298402696847916,0.9509438872337341,0.3404660224914551,0.5579975247383118,-0.5339033007621765,0.9363642334938049,0.660718560218811,0.6567269563674927,-0.26479440927505493,0.9599725604057312,0.34168702363967896,0.4474756717681885,-1.127839207649231,0.9872626662254333,0.6777740120887756,0.697614848613739,-0.3163650929927826,0.9289857149124146,0.3475353717803955,0.41787171363830566,-1.2329014539718628,0.9803179502487183,0.6683015823364258,0.7009505033493042,-0.3915422558784485,0.9351068735122681,0.3365645408630371,0.3964371085166931,-1.2572550773620605,0.9798799157142639,0.6574711203575134,0.6905523538589478,-0.29495492577552795,0.9382563829421997,0.33867347240448,0.4038713276386261,-1.1478803157806396,0.9720643162727356,0.5614623427391052,0.6462789177894592,0.03266528993844986,0.9978072047233582,0.41634079813957214,0.6539862155914307,-0.032747652381658554,0.9954352974891663,0.5589165091514587,0.8567842245101929,-0.1125958114862442,0.483862042427063,0.4276586174964905,0.8556946516036987,-0.0606783851981163,0.44893887639045715,0.5477390885353088,1.0355494022369385,0.4327351450920105,0.1894647628068924,0.4404961168766022,1.0339267253875732,0.44781824946403503,0.19965487718582153,0.534092903137207,1.055845856666565,0.46927765011787415,0.19068096578121185,0.4479607343673706,1.0514343976974487,0.4859570264816284,0.11178934574127197,0.5803256630897522,1.1003758907318115,0.17429113388061523,0.16740116477012634,0.4506417512893677,1.1066434383392334,0.14891839027404785,0.16363172233104706
14160.157142151362,0.4766807556152344,0.277117520570755,-0.7294607162475586,0.9996011853218079,0.49068260192871094,0.25573378801345825,-0.6890727877616882,0.9991893172264099,0.4998151957988739,0.2556469440460205,-0.6893221139907837,0.9991468191146851,0.5103222131729126,0.25572288036346436,-0.6895084977149963,0.9990724325180054,0.4561787545681,0.25599682331085205,-0.6973958015441895,0.9986538887023926,0.4419865906238556,0.2561803162097931,-0.6975354552268982,0.9985395669937134,0.42887476086616516,0.2569495737552643,-0.6977277994155884,0.9983248114585876,0.5194669961929321,0.26202693581581116,-0.38918206095695496,0.9991927742958069,0.4071158170700073,0.2635747790336609,-0.4348069429397583,0.9974418878555298,0.4913654625415802,0.300182044506073,-0.6121827960014343,0.9996722936630249,0.4499720633029938,0.30246928334236145,-0.6253185272216797,0.9993783235549927,0.5871734023094177,0.37867870926856995,-0.18312685191631317,0.999815046787262,0.3329797387123108,0.38541531562805176,-0.2525845468044281,0.9987666606903076,0.6100658178329468,0.5318638682365417,-0.024197937920689583,0.937653660774231,0.34044376015663147,0.5580751895904541,-0.5125259757041931,0.9252363443374634,0.6596024036407471,0.6583849191665649,-0.2217700183391571,0.9469161629676819,0.3471387028694153,0.44335508346557617,-1.1045461893081665,0.983820915222168,0.6777457594871521,0.6990481615066528,-0.27294671535491943,0.9107693433761597,0.3532174825668335,0.413143515586853,-1.2103805541992188,0.9753299355506897,0.6683932542800903,0.7023693323135376,-0.3474092185497284,0.9186736941337585,0.3413741886615753,0.39214640855789185,-1.2331018447875977,0.9747881889343262,0.6574020981788635,0.6914243102073669,-0.2519015967845917,0.9229211211204529,0.34324726462364197,0.3998745381832123,-1.1240148544311523,0.9654231667518616,0.5649210810661316,0.6504781246185303,0.034238576889038086,0.997424840927124,0.4174942970275879,0.6600323915481567,-0.034244779497385025,0.9945289492607117,0.561805009841919,0.8638692498207092,-0.1139904037117958,0.5301811695098877,0.4331358075141907,0.8620128631591797,-0.05783757567405701,0.4680897891521454,0.5500620007514954,1.0443984270095825,0.4619952440261841,0.20990873873233795,0.4428236186504364,1.0429564714431763,0.4729120135307312,0.21202221512794495,0.536487340927124,1.0644878149032593,0.5014537572860718,0.19850574433803558,0.4502784013748169,1.0605696439743042,0.5131196975708008,0.11698569357395172,0.5799373388290405,1.1109368801116943,0.20091858506202698,0.17620320618152618,0.4538334012031555,1.1163525581359863,0.16904103755950928,0.17012536525726318
14176.823808818028,0.4779132902622223,0.27401694655418396,-0.6941326856613159,0.9996212720870972,0.49274447560310364,0.25430941581726074,-0.6534886956214905,0.999224066734314,0.502200722694397,0.2543070912361145,-0.6537385582923889,0.9991647005081177,0.5120514035224915,0.2544437050819397,-0.6539161205291748,0.9991029500961304,0.4581618309020996,0.25386303663253784,-0.6630695462226868,0.9987612962722778,0.4440055787563324,0.25381025671958923,-0.6632052063941956,0.9986617565155029,0.43071064352989197,0.2541132867336273,-0.6634113788604736,0.9985007047653198,0.5202739834785461,0.26126828789711,-0.3517959713935852,0.9991687536239624,0.40889158844947815,0.2607596516609192,-0.40309005975723267,0.9977089166641235,0.49133384227752686,0.29776138067245483,-0.5758639574050903,0.9996987581253052,0.4506819546222687,0.29898351430892944,-0.5906774401664734,0.9994564652442932,0.5869144201278687,0.37725019454956055,-0.14334923028945923,0.9998452663421631,0.332889586687088,0.37919342517852783,-0.2315557301044464,0.9990647435188293,0.6115782856941223,0.5294247269630432,0.0055023604072630405,0.9367426037788391,0.34095966815948486,0.556624174118042,-0.5032337307929993,0.9292197823524475,0.6595842838287354,0.6575754880905151,-0.20387500524520874,0.9498318433761597,0.3429921865463257,0.4459548592567444,-1.0993754863739014,0.9855725169181824,0.6774116158485413,0.6979719400405884,-0.2561163902282715,0.9156292676925659,0.34796133637428284,0.4175678491592407,-1.2056676149368286,0.9776689410209656,0.6680993437767029,0.7019599676132202,-0.3281688988208771,0.9234352707862854,0.3379126787185669,0.39719337224960327,-1.2287441492080688,0.9771535396575928,0.6571147441864014,0.6909974813461304,-0.2334563434123993,0.9259845614433289,0.33964091539382935,0.4028419256210327,-1.118717908859253,0.9686485528945923,0.564175009727478,0.6485911011695862,0.044142283499240875,0.9975207448005676,0.41637805104255676,0.6573838591575623,-0.04422219470143318,0.9948721528053284,0.5623182654380798,0.8644808530807495,-0.11485300213098526,0.49970704317092896,0.43211424350738525,0.8637088537216187,-0.07729578018188477,0.44547414779663086,0.5343877673149109,1.0183466672897339,0.42876511812210083,0.19917632639408112,0.4398743212223053,1.0510175228118896,0.4309065639972687,0.20195941627025604,0.5358153581619263,1.0737700462341309,0.464875191450119,0.18343360722064972,0.44478657841682434,1.0697741508483887,0.46830981969833374,0.10944335162639618,0.5838593244552612,1.1192139387130737,0.162078857421875,0.170303076505661,0.45827457308769226,1.1236447095870972,0.12302815914154053,0.164637953042984
14193.490475484694,0.4786028265953064,0.27671775221824646,-0.7357859015464783,0.9995564818382263,0.49358752369880676,0.2561250925064087,-0.6958751678466797,0.9990816116333008,0.5032347440719604,0.25607261061668396,-0.6961075067520142,0.9989913105964661,0.5132027864456177,0.25620463490486145,-0.696277379989624,0.998933732509613,0.458687961101532,0.25588640570640564,-0.7053411602973938,0.9985479712486267,0.4442170560359955,0.2559262812137604,-0.705497682094574,0.9984095692634583,0.4310551583766937,0.2562991976737976,-0.7056954503059387,0.9982413053512573,0.5210737586021423,0.26314494013786316,-0.39529481530189514,0.998939573764801,0.40903204679489136,0.26317548751831055,-0.4472186267375946,0.9969937801361084,0.49226051568984985,0.3004893958568573,-0.6180732846260071,0.9996009469032288,0.45127490162849426,0.3023732006549835,-0.6330342292785645,0.9992901086807251,0.5856466293334961,0.3790894150733948,-0.18547961115837097,0.9997949004173279,0.3304583430290222,0.38394859433174133,-0.26696455478668213,0.9988380074501038,0.6092517375946045,0.5315609574317932,-0.03062901459634304,0.9317367076873779,0.3435995876789093,0.5594897866249084,-0.5298272967338562,0.9229896664619446,0.6592321991920471,0.6588584780693054,-0.23135270178318024,0.9447751045227051,0.34352219104766846,0.4446060061454773,-1.120422601699829,0.9835824966430664,0.676568865776062,0.6991774439811707,-0.2816731035709381,0.9065186381340027,0.34645387530326843,0.4124680757522583,-1.2251826524734497,0.9750990867614746,0.6681613922119141,0.7027784585952759,-0.35348930954933167,0.9145624041557312,0.3352336883544922,0.39221128821372986,-1.247492790222168,0.9745249152183533,0.657441258430481,0.6917248964309692,-0.26049208641052246,0.9182525277137756,0.3375483751296997,0.39964962005615234,-1.1393924951553345,0.9649636149406433,0.5635629892349243,0.6505573987960815,0.04340534284710884,0.9971432089805603,0.4176989793777466,0.6609433889389038,-0.04349258542060852,0.9942429661750793,0.5625745058059692,0.8644786477088928,-0.10573115944862366,0.4562453031539917,0.43333005905151367,0.8631535768508911,-0.07473311573266983,0.4275759756565094,0.550294041633606,1.0448418855667114,0.4544866383075714,0.17427413165569305,0.43987226486206055,1.0449556112289429,0.44758227467536926,0.185862198472023,0.5355180501937866,1.0652756690979004,0.4927544891834259,0.1749420166015625,0.4441465735435486,1.0624637603759766,0.4869126081466675,0.1006879061460495,0.5858411192893982,1.1104345321655273,0.19442230463027954,0.15561552345752716,0.4597654640674591,1.118483304977417,0.14198684692382812,0.1515696942806244
14210.15714215136,0.47911974787712097,0.27755850553512573,-0.7123177647590637,0.9995614886283875,0.4926946461200714,0.2567581832408905,-0.6736498475074768,0.9991075396537781,0.5022838711738586,0.2564859986305237,-0.6739272475242615,0.9990280866622925,0.5120100975036621,0.256357342004776,-0.6741294860839844,0.9989413619041443,0.4598270058631897,0.25651979446411133,-0.6819970607757568,0.9985833168029785,0.4454972445964813,0.25634393095970154,-0.682142436504364,0.9984583854675293,0.4323868751525879,0.2565271854400635,-0.6823486089706421,0.9982990622520447,0.5197574496269226,0.262143611907959,-0.37497466802597046,0.9990691542625427,0.40890344977378845,0.2627265453338623,-0.42020368576049805,0.9974435567855835,0.49168333411216736,0.3001018464565277,-0.5942709445953369,0.9996159076690674,0.452073335647583,0.3020355701446533,-0.6073394417762756,0.9993213415145874,0.5879788994789124,0.3756757080554962,-0.16873767971992493,0.9997968077659607,0.33034107089042664,0.38394129276275635,-0.23580768704414368,0.9989521503448486,0.6112287640571594,0.5267104506492615,-0.01818973757326603,0.9248732924461365,0.3418809175491333,0.5615718960762024,-0.4903164803981781,0.9284402132034302,0.6578449010848999,0.6549361944198608,-0.22244006395339966,0.9304971694946289,0.3427353501319885,0.4463913142681122,-1.0744922161102295,0.9854938983917236,0.6759911179542542,0.6945582628250122,-0.2747056782245636,0.8882989883422852,0.3459535241127014,0.41475826501846313,-1.1790924072265625,0.977405846118927,0.6668087244033813,0.6989349722862244,-0.3479941785335541,0.8987825512886047,0.33594614267349243,0.3943193852901459,-1.2007313966751099,0.9769402742385864,0.655797004699707,0.6880127191543579,-0.2526496648788452,0.9057496190071106,0.33776164054870605,0.40095055103302,-1.0929815769195557,0.9679254293441772,0.5679659247398376,0.6495377421379089,0.03341371938586235,0.997118353843689,0.4174763858318329,0.6585866808891296,-0.03341685235500336,0.9942163228988647,0.5648088455200195,0.8662381768226624,-0.11966005712747574,0.4331803619861603,0.42977532744407654,0.8667787313461304,-0.0688994824886322,0.42344024777412415,0.5495381951332092,1.0480870008468628,0.4493914842605591,0.15951383113861084,0.4290543794631958,1.023741364479065,0.4362846910953522,0.19345824420452118,0.5355933904647827,1.0688245296478271,0.4889838695526123,0.1806570291519165,0.44145265221595764,1.0663875341415405,0.4744454324245453,0.11717815697193146,0.5833320617675781,1.1126831769943237,0.19831912219524384,0.14223265647888184,0.4468604326248169,1.119577407836914,0.13717304170131683,0.15400172770023346
14226.823808818026,0.47846946120262146,0.27646759152412415,-0.7086063027381897,0.9995810389518738,0.4924055337905884,0.2560541331768036,-0.6696853637695312,0.9991232752799988,0.5013864040374756,0.2558169364929199,-0.6699361205101013,0.9990246295928955,0.5108258128166199,0.2557210624217987,-0.6701120734214783,0.9989514350891113,0.458863228559494,0.2558263838291168,-0.6796737909317017,0.9986684322357178,0.44476020336151123,0.2557416260242462,-0.6798288226127625,0.9985571503639221,0.43190857768058777,0.25597989559173584,-0.6800434589385986,0.9984320998191833,0.5175368785858154,0.26198673248291016,-0.3704252541065216,0.9989953637123108,0.40960052609443665,0.2623770534992218,-0.42356157302856445,0.9975669384002686,0.4909011721611023,0.2989429533481598,-0.5904844999313354,0.9996322393417358,0.45162540674209595,0.3008851408958435,-0.605793297290802,0.9993813037872314,0.5840778350830078,0.3752889633178711,-0.1563863605260849,0.9998183846473694,0.3300667107105255,0.3827032744884491,-0.24578063189983368,0.9991084933280945,0.6097497940063477,0.5253368616104126,-0.0011420344235375524,0.9291374683380127,0.3407905101776123,0.5595715641975403,-0.5070719122886658,0.9350436925888062,0.6588490605354309,0.6546038389205933,-0.20693770051002502,0.942758321762085,0.33948642015457153,0.4489436149597168,-1.0934991836547852,0.987687885761261,0.6768970489501953,0.6944365501403809,-0.25770103931427,0.905436635017395,0.34301134943962097,0.418362557888031,-1.1974846124649048,0.9804218411445618,0.6671304702758789,0.6986609697341919,-0.32936522364616394,0.914055585861206,0.3325651288032532,0.3970744013786316,-1.2201356887817383,0.9799516797065735,0.6560074687004089,0.6877322196960449,-0.2363065481185913,0.917883574962616,0.33435505628585815,0.4034203588962555,-1.1119742393493652,0.9720427989959717,0.565793514251709,0.6473934650421143,0.04428999125957489,0.9973241090774536,0.4182684123516083,0.6574674844741821,-0.04438157379627228,0.9947585463523865,0.5654960870742798,0.8631671071052551,-0.10901795327663422,0.46204259991645813,0.4331372082233429,0.861514151096344,-0.07600564509630203,0.42326951026916504,0.5496382713317871,1.0463787317276,0.43851226568222046,0.17523805797100067,0.4362455904483795,1.0458383560180664,0.4307701587677002,0.18945088982582092,0.5343728065490723,1.0669198036193848,0.47549208998680115,0.18125855922698975,0.44061020016670227,1.0643773078918457,0.46858304738998413,0.10689996927976608,0.5846913456916809,1.111956238746643,0.17944572865962982,0.1528805047273636,0.4528310000896454,1.11826491355896,0.12779411673545837,0.1537291407585144
14243.490475484692,0.4793488085269928,0.27356457710266113,-0.6615643501281738,0.9996134638786316,0.4937548041343689,0.25400957465171814,-0.6186834573745728,0.9992283582687378,0.5032042860984802,0.25407034158706665,-0.6189588308334351,0.9991469383239746,0.5128134489059448,0.2542198896408081,-0.61915522813797,0.9990900754928589,0.4589337706565857,0.253451406955719,-0.6279019713401794,0.9987533092498779,0.44509387016296387,0.25341126322746277,-0.6280266046524048,0.9986220598220825,0.4315984845161438,0.2537747025489807,-0.6282197833061218,0.9984683394432068,0.5191178321838379,0.26121291518211365,-0.31952956318855286,0.9991476535797119,0.40927472710609436,0.2610993981361389,-0.37057945132255554,0.9976456761360168,0.4919241666793823,0.2974083423614502,-0.5456165075302124,0.9996755123138428,0.4520084261894226,0.29858553409576416,-0.5602748990058899,0.9994145631790161,0.5821419954299927,0.3782493472099304,-0.13147887587547302,0.9998189806938171,0.33020541071891785,0.3826044201850891,-0.2072964757680893,0.9987844824790955,0.61175537109375,0.5302231907844543,0.010857184417545795,0.9350598454475403,0.3430885970592499,0.5604956150054932,-0.4846184253692627,0.9298273921012878,0.6591991186141968,0.6576859951019287,-0.17811033129692078,0.9516297578811646,0.3412202298641205,0.44732972979545593,-1.0691769123077393,0.9863376021385193,0.6761500239372253,0.6977413296699524,-0.2283603399991989,0.918592631816864,0.3449767529964447,0.41809722781181335,-1.1735786199569702,0.9788507223129272,0.6669785976409912,0.7016738653182983,-0.2983691692352295,0.9254664182662964,0.3345816731452942,0.3975396752357483,-1.192699909210205,0.9782560467720032,0.656213641166687,0.6902304887771606,-0.20634649693965912,0.9295918345451355,0.336212158203125,0.403860479593277,-1.0868421792984009,0.9701546430587769,0.567367672920227,0.6522068381309509,0.03709663823246956,0.9979335069656372,0.41850724816322327,0.6629778146743774,-0.037094492465257645,0.9954924583435059,0.5644039511680603,0.8714454174041748,-0.1297876536846161,0.4646887481212616,0.4315159320831299,0.8713135719299316,-0.06729232519865036,0.40807044506073,0.5466719269752502,1.0484721660614014,0.4421618580818176,0.1568477749824524,0.43823450803756714,1.047268033027649,0.4644944965839386,0.17537930607795715,0.5309816002845764,1.068940281867981,0.4822382926940918,0.18178942799568176,0.44503211975097656,1.0651860237121582,0.5056059956550598,0.10111507773399353,0.5833704471588135,1.1141493320465088,0.1967751830816269,0.13747917115688324,0.4489086866378784,1.1207051277160645,0.17244982719421387,0.14057114720344543
14260.157142151358,0.4795452654361725,0.27535194158554077,-0.6469359397888184,0.9994733929634094,0.494228333234787,0.2557710111141205,-0.6039915680885315,0.9989408850669861,0.5039781332015991,0.25558650493621826,-0.6042726635932922,0.9988502264022827,0.5136292576789856,0.2555426061153412,-0.6044780015945435,0.9987769722938538,0.45949792861938477,0.25529560446739197,-0.6132684350013733,0.9983154535293579,0.44511255621910095,0.2551394999027252,-0.6133869290351868,0.9981793165206909,0.43207189440727234,0.2551722526550293,-0.6135871410369873,0.9979941844940186,0.519668698310852,0.26188257336616516,-0.30460938811302185,0.9988449811935425,0.4089497923851013,0.261644572019577,-0.3552715480327606,0.9969262480735779,0.4921585023403168,0.29911723732948303,-0.5305493474006653,0.999539852142334,0.45160576701164246,0.30045801401138306,-0.5451403856277466,0.999175488948822,0.5833706855773926,0.37901031970977783,-0.11925280839204788,0.9997640252113342,0.3302738070487976,0.3826296329498291,-0.19311371445655823,0.9985460042953491,0.6123416423797607,0.5302504897117615,0.012816088274121284,0.9281919598579407,0.3435633182525635,0.5594096183776855,-0.4721762239933014,0.9206465482711792,0.6606614589691162,0.6579576134681702,-0.18360711634159088,0.9384059906005859,0.34183934330940247,0.44685620069503784,-1.0565835237503052,0.982995331287384,0.6755727529525757,0.6976480484008789,-0.23500356078147888,0.8990522623062134,0.3476388454437256,0.4179149866104126,-1.1611735820770264,0.9744246006011963,0.6670445203781128,0.7017214298248291,-0.30456820130348206,0.9071894884109497,0.33686527609825134,0.3983312249183655,-1.1807690858840942,0.973822832107544,0.6567169427871704,0.6902161240577698,-0.21213485300540924,0.9130533933639526,0.33848661184310913,0.40440860390663147,-1.0746382474899292,0.9643688797950745,0.569110631942749,0.6547940969467163,0.033644307404756546,0.9974880218505859,0.4197239279747009,0.6638924479484558,-0.033624764531850815,0.9946779012680054,0.5643815994262695,0.8766157627105713,-0.13619133830070496,0.4794752299785614,0.4356019198894501,0.8730519413948059,-0.07336854189634323,0.4182947278022766,0.5464327931404114,1.0531730651855469,0.42996087670326233,0.17006458342075348,0.44271305203437805,1.050557017326355,0.4437240958213806,0.19051671028137207,0.5312713980674744,1.0739790201187134,0.4690946340560913,0.18847611546516418,0.45061254501342773,1.0690956115722656,0.48304879665374756,0.1098238006234169,0.5811511278152466,1.1190638542175293,0.18177193403244019,0.14618459343910217,0.45090824365615845,1.1238126754760742,0.14931319653987885,0.15339797735214233
14276.823808818024,0.47882699966430664,0.273693710565567,-0.6199037432670593,0.9995934367179871,0.4938870370388031,0.2544824182987213,-0.5770384669303894,0.999184787273407,0.5038089752197266,0.25437039136886597,-0.5773136615753174,0.999110758304596,0.5137216448783875,0.25439515709877014,-0.5775198936462402,0.9990511536598206,0.4589775800704956,0.2540145218372345,-0.5865466594696045,0.9987265467643738,0.4444980323314667,0.2538384795188904,-0.5866546630859375,0.9986348748207092,0.43169069290161133,0.25383028388023376,-0.5868207812309265,0.998511016368866,0.5208006501197815,0.2610678970813751,-0.2835877537727356,0.999133288860321,0.40853151679039,0.26046380400657654,-0.3360757529735565,0.997795581817627,0.4921000897884369,0.29786667227745056,-0.5060906410217285,0.9996349811553955,0.4507550001144409,0.29898032546043396,-0.5211681127548218,0.9993665814399719,0.5831462144851685,0.3790304362773895,-0.10623622685670853,0.999788224697113,0.330150306224823,0.3811834156513214,-0.17706267535686493,0.9987899661064148,0.6124604940414429,0.5283218026161194,0.03335421159863472,0.9290533065795898,0.3402208685874939,0.5562652945518494,-0.452263206243515,0.9278277158737183,0.6602654457092285,0.6565134525299072,-0.14172527194023132,0.940946638584137,0.3380572199821472,0.4478381872177124,-1.0285372734069824,0.9862672090530396,0.6749666929244995,0.6962870955467224,-0.18817001581192017,0.9052932858467102,0.34328693151474,0.4192802608013153,-1.1316407918930054,0.9790180921554565,0.6663826704025269,0.7001808285713196,-0.25791236758232117,0.9127264618873596,0.3342898488044739,0.39879342913627625,-1.1501264572143555,0.9785498976707458,0.656281590461731,0.6886643171310425,-0.169674813747406,0.9184476137161255,0.3358503580093384,0.4040262997150421,-1.0461080074310303,0.9709965586662292,0.5683640241622925,0.6531729698181152,0.028596388176083565,0.9978579878807068,0.41981810331344604,0.6617892384529114,-0.028579264879226685,0.9954909682273865,0.5614868402481079,0.8758428692817688,-0.13367363810539246,0.5090355277061462,0.4325275719165802,0.8720324039459229,-0.06674236059188843,0.43612754344940186,0.5464583039283752,1.0518898963928223,0.40758395195007324,0.1774841845035553,0.4411866366863251,1.0494842529296875,0.4277990162372589,0.19916701316833496,0.5320534110069275,1.072608470916748,0.4446936845779419,0.1785673350095749,0.4499843120574951,1.0684614181518555,0.46541163325309753,0.11556046456098557,0.5790501832962036,1.118277668952942,0.16629837453365326,0.148308664560318,0.4450320303440094,1.122320294380188,0.14314451813697815,0.15715333819389343
14293.49047548469,0.47805050015449524,0.2772345244884491,-0.6850173473358154,0.9996225833892822,0.49315720796585083,0.25704142451286316,-0.6458694934844971,0.9992258548736572,0.5030344724655151,0.256854772567749,-0.6461235880851746,0.9991567134857178,0.5127087831497192,0.25678351521492004,-0.6463258266448975,0.9990872144699097,0.459033340215683,0.2565903961658478,-0.6549673676490784,0.9988013505935669,0.4445241391658783,0.25630390644073486,-0.6550841927528381,0.9986951947212219,0.43189021944999695,0.2561242878437042,-0.6552644371986389,0.9985896944999695,0.5189133882522583,0.2624930441379547,-0.3519556522369385,0.999177873134613,0.4086968004703522,0.2614583969116211,-0.40120062232017517,0.997893750667572,0.49008771777153015,0.30042874813079834,-0.5690192580223083,0.9996671676635742,0.44989868998527527,0.30164334177970886,-0.5832399725914001,0.9994292855262756,0.5828197598457336,0.37698984146118164,-0.15672707557678223,0.9998154044151306,0.3291708528995514,0.38165736198425293,-0.22393998503684998,0.999032735824585,0.612087607383728,0.5280463099479675,-0.007983055897057056,0.933074951171875,0.34176158905029297,0.5586678385734558,-0.4829980731010437,0.9257559776306152,0.6581293940544128,0.657143235206604,-0.1966249942779541,0.9348738193511963,0.3430607318878174,0.4497342109680176,-1.0624457597732544,0.9857041239738464,0.6749551296234131,0.6969970464706421,-0.24593530595302582,0.894572913646698,0.35044729709625244,0.42150938510894775,-1.165687918663025,0.9782530665397644,0.6653373837471008,0.7012575268745422,-0.31648340821266174,0.9026350378990173,0.3395044803619385,0.40088409185409546,-1.1853591203689575,0.9776279330253601,0.6546273231506348,0.6896021962165833,-0.22504892945289612,0.9099721908569336,0.3407931923866272,0.4064670503139496,-1.0799856185913086,0.9691551923751831,0.5646542906761169,0.6498433947563171,0.02920166589319706,0.997512936592102,0.4168790578842163,0.6590529084205627,-0.029212739318609238,0.9949672818183899,0.5627831816673279,0.8689936399459839,-0.12129083275794983,0.5074275732040405,0.43550533056259155,0.8665999174118042,-0.05829581618309021,0.4449978768825531,0.5483456254005432,1.0469245910644531,0.42063108086586,0.19040128588676453,0.44460704922676086,1.0450475215911865,0.44091126322746277,0.20856554806232452,0.5354081988334656,1.0672972202301025,0.45727258920669556,0.18072472512722015,0.4535599648952484,1.0634663105010986,0.4785996377468109,0.12098125368356705,0.576998770236969,1.1143560409545898,0.1704758256673813,0.15847370028495789,0.4499075710773468,1.118878960609436,0.14973968267440796,0.16489876806735992
14310.157142151356,0.47947925329208374,0.27623021602630615,-0.624671220779419,0.9995796084403992,0.49335426092147827,0.25615358352661133,-0.5841256976127625,0.9991294741630554,0.5032444596290588,0.25588738918304443,-0.5843968987464905,0.9990671277046204,0.5123604536056519,0.2557636797428131,-0.5846107602119446,0.999006450176239,0.4606369733810425,0.255670428276062,-0.5935916304588318,0.9986180067062378,0.445732444524765,0.25526347756385803,-0.5936976075172424,0.9985045194625854,0.43305566906929016,0.25518155097961426,-0.5938610434532166,0.9983592629432678,0.518063485622406,0.261216402053833,-0.29291605949401855,0.9990973472595215,0.4086337983608246,0.26068463921546936,-0.3446696996688843,0.9974935054779053,0.49054524302482605,0.2994135022163391,-0.5105347633361816,0.9996142387390137,0.4514307379722595,0.30061525106430054,-0.5254376530647278,0.9993178844451904,0.581689715385437,0.3769572675228119,-0.11147769540548325,0.9998052716255188,0.33034002780914307,0.3810887038707733,-0.17505940794944763,0.9988124370574951,0.6133332252502441,0.5265534520149231,0.030978737398982048,0.9355748295783997,0.33830466866493225,0.5545672178268433,-0.4359649121761322,0.9214733839035034,0.6600345373153687,0.6574620604515076,-0.14954183995723724,0.9458020925521851,0.3367460072040558,0.4480821192264557,-1.0141353607177734,0.9859780073165894,0.6764527559280396,0.6976332068443298,-0.1979338824748993,0.9108726382255554,0.34110236167907715,0.4199625551700592,-1.116909146308899,0.9789919257164001,0.6667502522468567,0.7018119692802429,-0.2685103416442871,0.9181510210037231,0.33193278312683105,0.39867645502090454,-1.1384905576705933,0.9786275029182434,0.6561040282249451,0.6901738047599792,-0.177819162607193,0.9232996702194214,0.3341371417045593,0.40398508310317993,-1.032903790473938,0.9708758592605591,0.5652700662612915,0.6513400673866272,0.029256872832775116,0.99764084815979,0.4185028374195099,0.6604815721511841,-0.029254067689180374,0.9950189590454102,0.5622632503509521,0.8732599020004272,-0.13113901019096375,0.5238983631134033,0.4337092638015747,0.8710043430328369,-0.0671423077583313,0.447662889957428,0.5448461174964905,1.0509929656982422,0.40527039766311646,0.19239521026611328,0.44528207182884216,1.0483882427215576,0.4242499768733978,0.21050576865673065,0.5304007530212402,1.0716819763183594,0.4417998790740967,0.18681375682353973,0.4540891945362091,1.0672097206115723,0.4612294137477875,0.11790499091148376,0.5762925744056702,1.1175775527954102,0.16074372828006744,0.15997745096683502,0.4515458941459656,1.121233582496643,0.13718214631080627,0.165493443608284
14326.823808818022,0.47856584191322327,0.2770880162715912,-0.6264068484306335,0.9995574355125427,0.49279019236564636,0.256889283657074,-0.5870160460472107,0.9990812540054321,0.5027047991752625,0.25668269395828247,-0.587289035320282,0.9990167617797852,0.5119715929031372,0.2566050589084625,-0.5875069499015808,0.9989499449729919,0.45915666222572327,0.2563001215457916,-0.5949750542640686,0.9985331296920776,0.4442964196205139,0.2558945119380951,-0.595076322555542,0.9984065890312195,0.4316699206829071,0.25575876235961914,-0.5952395796775818,0.9982683658599854,0.51833575963974,0.26209592819213867,-0.30078125,0.9990441203117371,0.4079452455043793,0.2613055408000946,-0.3452819287776947,0.9973016977310181,0.48998644948005676,0.3002740144729614,-0.514154851436615,0.9995977282524109,0.45014283061027527,0.3017998933792114,-0.5269381403923035,0.9992965459823608,0.5830786228179932,0.3771739602088928,-0.12316355109214783,0.99979168176651,0.330466091632843,0.3818834722042084,-0.17476248741149902,0.9988389611244202,0.6147006750106812,0.5279674530029297,0.01458665169775486,0.9340812563896179,0.34014618396759033,0.5563288331031799,-0.4311859607696533,0.9243786931037903,0.6610673666000366,0.6582567095756531,-0.16983655095100403,0.9406000375747681,0.3397720456123352,0.4470469355583191,-1.0070604085922241,0.9868144989013672,0.6775692105293274,0.6987711787223816,-0.2195180207490921,0.9032129049301147,0.34492868185043335,0.41820698976516724,-1.109726071357727,0.9799925684928894,0.6685314178466797,0.7028525471687317,-0.28980761766433716,0.9109700918197632,0.33473771810531616,0.3970411419868469,-1.1297276020050049,0.9795436263084412,0.657822847366333,0.6911448836326599,-0.1981765478849411,0.9177106618881226,0.336744487285614,0.4026951193809509,-1.0252107381820679,0.972014307975769,0.5658453106880188,0.6506592631340027,0.02697007730603218,0.997471809387207,0.4190695881843567,0.6597023606300354,-0.026952248066663742,0.9946921467781067,0.5620001554489136,0.871998131275177,-0.1361778825521469,0.5069373250007629,0.43345338106155396,0.8688846826553345,-0.06220070645213127,0.4487214684486389,0.5473124384880066,1.0473496913909912,0.4074038565158844,0.1783452332019806,0.4480396807193756,1.0444066524505615,0.4344460070133209,0.20091278851032257,0.5335737466812134,1.0677229166030884,0.4449945092201233,0.18011480569839478,0.456827849149704,1.0627306699752808,0.4723908305168152,0.11586154997348785,0.5778071880340576,1.1140230894088745,0.16702426970005035,0.14774784445762634,0.4552063047885895,1.1174429655075073,0.15163999795913696,0.15532802045345306
14343.490475484688,0.47798946499824524,0.27682143449783325,-0.639448881149292,0.9995740056037903,0.49220573902130127,0.2567017674446106,-0.5992242693901062,0.9991204142570496,0.5019967555999756,0.2564891576766968,-0.5995085835456848,0.9990630745887756,0.5114265084266663,0.2564008831977844,-0.5997342467308044,0.9989977478981018,0.4583277702331543,0.2561255097389221,-0.607919454574585,0.9985814094543457,0.4435422122478485,0.2557682693004608,-0.6080261468887329,0.9984517097473145,0.43087106943130493,0.2556447684764862,-0.6081964373588562,0.9982922673225403,0.5179184079170227,0.2619418501853943,-0.3063405454158783,0.9990874528884888,0.4076487123966217,0.2611781358718872,-0.3542196452617645,0.9973821043968201,0.4898218512535095,0.2999460995197296,-0.5243532061576843,0.9996201992034912,0.44971394538879395,0.3016130030155182,-0.5381821990013123,0.999320387840271,0.582653284072876,0.3769107758998871,-0.12397026270627975,0.9998146891593933,0.32986247539520264,0.38091155886650085,-0.17851994931697845,0.9988551139831543,0.6137258410453796,0.5274547338485718,0.010552030988037586,0.9350398182868958,0.3397296667098999,0.5560027360916138,-0.4360886812210083,0.9205819368362427,0.660831093788147,0.6566258072853088,-0.1871073991060257,0.9426889419555664,0.3391801714897156,0.44948574900627136,-1.0198487043380737,0.9860591292381287,0.6771401166915894,0.6966493725776672,-0.2395872175693512,0.9063933491706848,0.3443952202796936,0.42126160860061646,-1.1240870952606201,0.978865921497345,0.6675598621368408,0.7008208632469177,-0.311103880405426,0.9146001935005188,0.3346916437149048,0.40002962946891785,-1.1451033353805542,0.9784520268440247,0.6571210622787476,0.6893537640571594,-0.21629779040813446,0.9200632572174072,0.33680281043052673,0.4054919183254242,-1.0384535789489746,0.9704574346542358,0.5664019584655762,0.6506001949310303,0.027627451345324516,0.9973865151405334,0.4189329743385315,0.6596137881278992,-0.02761155739426613,0.9943692088127136,0.5627719759941101,0.8729097843170166,-0.1426278054714203,0.5027690529823303,0.43244242668151855,0.8710495233535767,-0.06751125305891037,0.4348009526729584,0.5482590198516846,1.051093578338623,0.40658852458000183,0.1739288568496704,0.4463086426258087,1.047807216644287,0.4360958933830261,0.19473671913146973,0.5347950458526611,1.071866750717163,0.44434815645217896,0.17520618438720703,0.45488598942756653,1.0664982795715332,0.47416383028030396,0.11113906651735306,0.5786563158035278,1.1170339584350586,0.15969200432300568,0.1453535556793213,0.45399847626686096,1.1204028129577637,0.1463232934474945,0.1520719975233078
14360.157142151354,0.4780822694301605,0.276401162147522,-0.6306470632553101,0.9995132684707642,0.49249017238616943,0.2565460503101349,-0.5906739830970764,0.9989884495735168,0.5023683309555054,0.25636041164398193,-0.5909537076950073,0.9989233613014221,0.511746346950531,0.25631284713745117,-0.5911719799041748,0.9988481998443604,0.4590056836605072,0.2559608817100525,-0.5980201959609985,0.998412013053894,0.44425535202026367,0.2555663287639618,-0.5981278419494629,0.9982858300209045,0.43174782395362854,0.255449116230011,-0.5983035564422607,0.998139500617981,0.5183444619178772,0.26197493076324463,-0.30351361632347107,0.9989614486694336,0.4085734784603119,0.26114118099212646,-0.3447877764701843,0.997117280960083,0.489883154630661,0.29995453357696533,-0.5184087753295898,0.9995747208595276,0.45018717646598816,0.3012455403804779,-0.5302790999412537,0.9992651343345642,0.5852205157279968,0.377980500459671,-0.12637238204479218,0.9997633099555969,0.3310733437538147,0.38192325830459595,-0.17604194581508636,0.9987867474555969,0.6154574155807495,0.5293771028518677,0.0058163246139883995,0.9317561388015747,0.34292203187942505,0.55722975730896,-0.4364277422428131,0.930443286895752,0.6625211834907532,0.6579005718231201,-0.1877196878194809,0.9380550384521484,0.34117066860198975,0.4458708167076111,-1.0157557725906372,0.9871944785118103,0.677942156791687,0.6981492042541504,-0.23824650049209595,0.8999453186988831,0.34630829095840454,0.41679349541664124,-1.1198090314865112,0.9800119400024414,0.6683717966079712,0.7016094923019409,-0.3093167841434479,0.9081742167472839,0.3356837034225464,0.39632362127304077,-1.1381779909133911,0.9795857071876526,0.6578524112701416,0.6904069185256958,-0.21660494804382324,0.9144678115844727,0.3376990258693695,0.4020521342754364,-1.03346586227417,0.9720454216003418,0.5675522685050964,0.6516308784484863,0.02742530032992363,0.9971287846565247,0.4195292294025421,0.6597311496734619,-0.027429427951574326,0.9942522644996643,0.5641787052154541,0.8722956776618958,-0.14112772047519684,0.5223962664604187,0.433698832988739,0.8695027232170105,-0.06732639670372009,0.4766887128353119,0.5509620308876038,1.0491645336151123,0.41684815287590027,0.18045289814472198,0.44843390583992004,1.0479648113250732,0.43187153339385986,0.21120132505893707,0.5370095372200012,1.069427490234375,0.45586737990379333,0.1776210367679596,0.45745500922203064,1.0664784908294678,0.469849169254303,0.11699062585830688,0.5825127959251404,1.116246223449707,0.1744372546672821,0.15019139647483826,0.45680877566337585,1.121042013168335,0.1439458280801773,0.16264225542545319
14376.82380881802,0.47451990842819214,0.27878251671791077,-0.6499978303909302,0.9993177652359009,0.48982807993888855,0.2574698030948639,-0.6095084547996521,0.9986106157302856,0.4998072385787964,0.2573535442352295,-0.6097829341888428,0.9984961748123169,0.5102543234825134,0.2573862373828888,-0.6099932789802551,0.9984208345413208,0.4557662606239319,0.2574126720428467,-0.6172093152999878,0.997761607170105,0.44174233078956604,0.2574651539325714,-0.6173202395439148,0.9975512623786926,0.4291108548641205,0.2579411566257477,-0.6175296902656555,0.9973432421684265,0.5196470618247986,0.2630770206451416,-0.3192034363746643,0.9984643459320068,0.40670183300971985,0.26405781507492065,-0.3616763651371002,0.9957429766654968,0.489703506231308,0.3010091185569763,-0.536841869354248,0.9993914365768433,0.4485597312450409,0.3032599687576294,-0.5489943027496338,0.9989122152328491,0.5848252773284912,0.3791429400444031,-0.1308601349592209,0.9997009038925171,0.33382633328437805,0.38705652952194214,-0.20253422856330872,0.9984204769134521,0.6100344061851501,0.528030514717102,0.014207646250724792,0.91242516040802,0.34449535608291626,0.5632874965667725,-0.47331148386001587,0.9233022332191467,0.6599748134613037,0.6546486020088196,-0.1696130484342575,0.9265131950378418,0.3494420051574707,0.4430224895477295,-1.0475258827209473,0.9841269850730896,0.6775125861167908,0.6954882144927979,-0.21767225861549377,0.8844732642173767,0.3532494902610779,0.41204115748405457,-1.1499710083007812,0.9758387804031372,0.6685811877250671,0.6992535591125488,-0.28621968626976013,0.89373779296875,0.3412616550922394,0.391780287027359,-1.1679515838623047,0.9751622676849365,0.6578240394592285,0.688543975353241,-0.19740241765975952,0.9017695784568787,0.34351229667663574,0.40004420280456543,-1.0646389722824097,0.9660675525665283,0.5651646256446838,0.6542842388153076,0.03493169695138931,0.9968581199645996,0.41985273361206055,0.6631693840026855,-0.03490793704986572,0.9931309819221497,0.559775173664093,0.8731297850608826,-0.1421770602464676,0.42779648303985596,0.43307071924209595,0.8700211644172668,-0.07389502227306366,0.37301087379455566,0.5464275479316711,1.0480891466140747,0.4184494912624359,0.14709144830703735,0.445803701877594,1.0475091934204102,0.44421645998954773,0.15017478168010712,0.5334044098854065,1.0682119131088257,0.45771288871765137,0.16366830468177795,0.45226752758026123,1.065104603767395,0.48431041836738586,0.08928044140338898,0.57778400182724,1.1131618022918701,0.17341163754463196,0.12549522519111633,0.46192851662635803,1.1207668781280518,0.1522647887468338,0.12080765515565872
14393.490475484687,0.47539326548576355,0.27727484703063965,-0.6533989310264587,0.9993450045585632,0.4898028075695038,0.2560286521911621,-0.6122053265571594,0.9986836314201355,0.4999837577342987,0.25606855750083923,-0.6124783158302307,0.9985677003860474,0.5104081034660339,0.25625401735305786,-0.6126767992973328,0.9984775185585022,0.45604217052459717,0.25560009479522705,-0.620192289352417,0.9978735446929932,0.4417906403541565,0.2556471824645996,-0.6203082799911499,0.9976738095283508,0.42920681834220886,0.2562269866466522,-0.6205225586891174,0.9974356293678284,0.5197858214378357,0.2625752091407776,-0.3193337619304657,0.9986186027526855,0.40669378638267517,0.2631612718105316,-0.36382487416267395,0.996046245098114,0.49035340547561646,0.2999960780143738,-0.5395815968513489,0.999444305896759,0.4495297372341156,0.30166301131248474,-0.5523224472999573,0.9989921450614929,0.5859811305999756,0.3791464865207672,-0.1329430490732193,0.9997056126594543,0.333120197057724,0.3848046064376831,-0.20572546124458313,0.9983866214752197,0.6123669147491455,0.5278058648109436,0.013390918262302876,0.9211464524269104,0.34431684017181396,0.5619482398033142,-0.4842483401298523,0.919722855091095,0.6609125137329102,0.6571181416511536,-0.16525359451770782,0.9347079992294312,0.34822219610214233,0.4434943199157715,-1.0654847621917725,0.9831129908561707,0.6796163320541382,0.6985050439834595,-0.21255965530872345,0.8958293795585632,0.3511253595352173,0.41283702850341797,-1.1685328483581543,0.9748934507369995,0.669977068901062,0.702418327331543,-0.28152772784233093,0.9042661786079407,0.33968353271484375,0.39288827776908875,-1.187674880027771,0.9743159413337708,0.6585025787353516,0.6910165548324585,-0.1928495615720749,0.9115700721740723,0.34224599599838257,0.4004665017127991,-1.083282709121704,0.9651743173599243,0.5666451454162598,0.6582099199295044,0.033543284982442856,0.9968627691268921,0.4195268750190735,0.6674739718437195,-0.03349028527736664,0.9932492971420288,0.5617232322692871,0.8758504390716553,-0.13802725076675415,0.4254785478115082,0.4326901435852051,0.8735222816467285,-0.0702110081911087,0.37240085005760193,0.5466640591621399,1.0495517253875732,0.4225699007511139,0.1419074535369873,0.44631749391555786,1.0500518083572388,0.44353291392326355,0.15103037655353546,0.5333396792411804,1.069989562034607,0.4616682231426239,0.16310778260231018,0.4534650444984436,1.067991852760315,0.48306986689567566,0.0937894955277443,0.5792132019996643,1.1143033504486084,0.1800735890865326,0.12371751666069031,0.4600151479244232,1.122826337814331,0.1524772047996521,0.12238806486129761
14410.157142151353,0.47692301869392395,0.27829524874687195,-0.6655706763267517,0.9994756579399109,0.4912397265434265,0.2575156092643738,-0.6263264417648315,0.998931348323822,0.5010221004486084,0.2570989429950714,-0.626595675945282,0.9988251328468323,0.5106373429298401,0.2568870782852173,-0.6268002986907959,0.9987667798995972,0.4574359059333801,0.25769808888435364,-0.6353235840797424,0.998293936252594,0.4430830776691437,0.2576603293418884,-0.6354461312294006,0.9981202483177185,0.430557519197464,0.25782954692840576,-0.6356400847434998,0.9979463219642639,0.5176391005516052,0.26267725229263306,-0.3337651789188385,0.9988150596618652,0.4082884192466736,0.263711541891098,-0.3832918703556061,0.9967907071113586,0.4902317523956299,0.30087631940841675,-0.5505728125572205,0.9995248317718506,0.4509415626525879,0.3031490743160248,-0.5648103952407837,0.9991694688796997,0.5863826870918274,0.37753427028656006,-0.13997051119804382,0.9997650980949402,0.33290112018585205,0.38316816091537476,-0.2131464183330536,0.9987996816635132,0.6117334365844727,0.5276756286621094,0.0073518333956599236,0.9204475283622742,0.344234436750412,0.5605244040489197,-0.46900877356529236,0.9231643676757812,0.6600844860076904,0.6566166281700134,-0.1807834804058075,0.9313146471977234,0.34435373544692993,0.4485670328140259,-1.037954330444336,0.9836028814315796,0.6766398549079895,0.6972048878669739,-0.23097173869609833,0.8900637626647949,0.34647858142852783,0.4158896207809448,-1.1395243406295776,0.9753884673118591,0.6669464111328125,0.7019007802009583,-0.3014642596244812,0.8995037078857422,0.3346172273159027,0.39523065090179443,-1.1615105867385864,0.9749035239219666,0.6564233303070068,0.6902504563331604,-0.20946034789085388,0.9066816568374634,0.3382415771484375,0.40238678455352783,-1.0564420223236084,0.9658203125,0.566172182559967,0.6501668691635132,0.03691723570227623,0.9971745014190674,0.41949763894081116,0.6586524248123169,-0.036905884742736816,0.9941316246986389,0.5615376234054565,0.8689148426055908,-0.12682531774044037,0.4147840738296509,0.43064531683921814,0.8667829036712646,-0.07497730851173401,0.3938854932785034,0.5441693067550659,1.0457454919815063,0.4208528697490692,0.14195109903812408,0.44037705659866333,1.0444093942642212,0.4219415783882141,0.1646382212638855,0.5291640758514404,1.0666050910949707,0.4590047597885132,0.16987040638923645,0.44630569219589233,1.0627139806747437,0.45969393849372864,0.09781375527381897,0.5804790258407593,1.1096882820129395,0.1772322654724121,0.12644249200820923,0.45559462904930115,1.1166918277740479,0.12937571108341217,0.13066375255584717
14426.823808818019,0.47188258171081543,0.2778710722923279,-0.6425634026527405,0.99945467710495,0.48756247758865356,0.2564765512943268,-0.6022619009017944,0.9989135265350342,0.49688011407852173,0.25634127855300903,-0.6025297045707703,0.9988189339637756,0.5074710845947266,0.256413996219635,-0.6027240753173828,0.9987466335296631,0.45326894521713257,0.25671929121017456,-0.6097341775894165,0.9982094764709473,0.43989425897598267,0.2568165063858032,-0.6098456978797913,0.9980521202087402,0.42765486240386963,0.25742587447166443,-0.6100413799285889,0.9978340268135071,0.5172188878059387,0.26228687167167664,-0.3134136199951172,0.9988545179367065,0.40672916173934937,0.26358991861343384,-0.35555344820022583,0.9966999888420105,0.48757094144821167,0.29986926913261414,-0.5302364826202393,0.9995488524436951,0.44724035263061523,0.301815003156662,-0.5422866940498352,0.9991666078567505,0.587012767791748,0.3778561055660248,-0.12541288137435913,0.9997602105140686,0.334163635969162,0.38513731956481934,-0.2008655071258545,0.9986931681632996,0.6134132742881775,0.5278217196464539,0.018929580226540565,0.9249153137207031,0.3417547345161438,0.55782151222229,-0.4688335955142975,0.9276313185691833,0.6605292558670044,0.6562216877937317,-0.15884742140769958,0.9372113943099976,0.34074872732162476,0.44567549228668213,-1.0374441146850586,0.9855339527130127,0.6775197386741638,0.6970982551574707,-0.20644302666187286,0.8981806039810181,0.3460133373737335,0.4129466116428375,-1.1392977237701416,0.9781348705291748,0.6665944457054138,0.7014102339744568,-0.27583473920822144,0.9068575501441956,0.33427363634109497,0.39219120144844055,-1.160648226737976,0.9777320027351379,0.6558529734611511,0.6901087164878845,-0.18680955469608307,0.913471519947052,0.3366057872772217,0.400275319814682,-1.056103229522705,0.9697136878967285,0.5660243034362793,0.6513146758079529,0.036662496626377106,0.9976147413253784,0.4191591143608093,0.6585490107536316,-0.03664926439523697,0.9948095083236694,0.5637763142585754,0.8678820729255676,-0.14328697323799133,0.4434487223625183,0.43367719650268555,0.8650766015052795,-0.07655019313097,0.40125584602355957,0.5496371388435364,1.0452605485916138,0.4080744981765747,0.15485310554504395,0.44216400384902954,1.0433977842330933,0.42938533425331116,0.1692042201757431,0.5352227687835693,1.065934419631958,0.4464890658855438,0.17542734742164612,0.44880709052085876,1.0615315437316895,0.4682197868824005,0.09891396015882492,0.58551025390625,1.1092720031738281,0.16395704448223114,0.13291054964065552,0.4551160931587219,1.1155284643173218,0.13880032300949097,0.13558003306388855
14443.490475484685,0.4761873483657837,0.2774873673915863,-0.7155160903930664,0.9996432065963745,0.4898512661457062,0.2563202381134033,-0.6767665147781372,0.9992876648902893,0.4992994964122772,0.2561195492744446,-0.6770340204238892,0.9992293119430542,0.5091455578804016,0.2561734616756439,-0.6772333979606628,0.9991832375526428,0.45765143632888794,0.25657153129577637,-0.685209333896637,0.9988322854042053,0.4437796175479889,0.25672855973243713,-0.6853410005569458,0.9987115859985352,0.4311586916446686,0.25725477933883667,-0.6855155825614929,0.9985705614089966,0.5171802043914795,0.26219767332077026,-0.3816621005535126,0.9992603659629822,0.40756097435951233,0.2638603150844574,-0.428436815738678,0.997686505317688,0.489516943693161,0.2994994819164276,-0.5993521809577942,0.9996623992919922,0.4500690996646881,0.30157408118247986,-0.6128241419792175,0.9993736147880554,0.5899287462234497,0.3762122392654419,-0.1842532753944397,0.9998002648353577,0.3322749435901642,0.3846428096294403,-0.24220912158489227,0.9988846182823181,0.6134309768676758,0.5287997126579285,-0.03926517441868782,0.9336910247802734,0.3432477116584778,0.5595901608467102,-0.4886341989040375,0.9266890287399292,0.6605294942855835,0.6559427380561829,-0.24159756302833557,0.9357894062995911,0.3437194526195526,0.4450528025627136,-1.0683128833770752,0.9843894839286804,0.6784323453903198,0.696106493473053,-0.29514560103416443,0.8933306336402893,0.35005611181259155,0.41318267583847046,-1.1717802286148071,0.9763093590736389,0.668658435344696,0.6999461650848389,-0.36891236901283264,0.9030194282531738,0.33741238713264465,0.39151668548583984,-1.1957590579986572,0.9759721159934998,0.657631516456604,0.6894214749336243,-0.2718503475189209,0.9103199243545532,0.33945590257644653,0.3990061283111572,-1.0878909826278687,0.9667947292327881,0.5678329467773438,0.6461297869682312,0.028170941397547722,0.9971756935119629,0.4197484850883484,0.6534088253974915,-0.028172064572572708,0.9943159222602844,0.5641807317733765,0.8625146150588989,-0.12425975501537323,0.4327637255191803,0.4278286099433899,0.8619352579116821,-0.07742028683423996,0.43362924456596375,0.546550989151001,1.041658878326416,0.43343421816825867,0.16264650225639343,0.43567708134651184,1.0424613952636719,0.4015713036060333,0.19995622336864471,0.5322455167770386,1.0624991655349731,0.4720669090747833,0.18827885389328003,0.44297266006469727,1.0612093210220337,0.43696561455726624,0.11424680054187775,0.581849992275238,1.1049028635025024,0.186166912317276,0.14868976175785065,0.4443095624446869,1.1141624450683594,0.10186891257762909,0.15821874141693115
14460.15714215135,0.47560828924179077,0.2768605351448059,-0.716033399105072,0.9995895028114319,0.489394873380661,0.25579938292503357,-0.677467942237854,0.9991738200187683,0.4986838102340698,0.25560876727104187,-0.6777281165122986,0.9990980625152588,0.5093227028846741,0.2555495500564575,-0.6779261231422424,0.9990405440330505,0.4555113911628723,0.2559102475643158,-0.684249997138977,0.998624324798584,0.441495418548584,0.25602030754089355,-0.6843865513801575,0.9984889030456543,0.4283660352230072,0.2566486895084381,-0.6845709085464478,0.998332679271698,0.5183706283569336,0.26103195548057556,-0.38294708728790283,0.9991462230682373,0.4065675437450409,0.26308348774909973,-0.4217005968093872,0.997286319732666,0.4897754192352295,0.2994231879711151,-0.6001841425895691,0.9996355772018433,0.4484354555606842,0.3019331395626068,-0.611340343952179,0.9993079900741577,0.5926512479782104,0.37616562843322754,-0.18220704793930054,0.9997900128364563,0.33302804827690125,0.3852122724056244,-0.23445314168930054,0.9987614154815674,0.6167986989021301,0.5280202627182007,-0.03330107033252716,0.9350858926773071,0.3416892886161804,0.5595964789390564,-0.4840637743473053,0.9187672734260559,0.6620984673500061,0.6574357748031616,-0.22838276624679565,0.9419771432876587,0.3403579890727997,0.44296491146087646,-1.0738247632980347,0.9848948121070862,0.6798824071884155,0.6977259516716003,-0.2808694839477539,0.9022916555404663,0.3416493833065033,0.40890800952911377,-1.179161548614502,0.9773489832878113,0.6697997450828552,0.7020304203033447,-0.35428789258003235,0.9108102321624756,0.3322315216064453,0.38917359709739685,-1.2029151916503906,0.9769390225410461,0.6589534282684326,0.6905920505523682,-0.25821495056152344,0.916903018951416,0.33541709184646606,0.39674583077430725,-1.0938282012939453,0.9682567119598389,0.5703290104866028,0.6482886075973511,0.02916417457163334,0.9973697662353516,0.4215213656425476,0.6565312147140503,-0.02915664203464985,0.9945453405380249,0.5645847916603088,0.8651838302612305,-0.116951122879982,0.4718621075153351,0.4312480092048645,0.862204372882843,-0.06078808754682541,0.44955384731292725,0.5473998785018921,1.0409979820251465,0.4594595730304718,0.1747097373008728,0.44104698300361633,1.0398950576782227,0.44812828302383423,0.20442520081996918,0.5330595970153809,1.0611588954925537,0.49987539649009705,0.1883315145969391,0.44901368021965027,1.0576937198638916,0.48674827814102173,0.11759771406650543,0.579788863658905,1.1062297821044922,0.20995400846004486,0.15481147170066833,0.4516877830028534,1.1128987073898315,0.15093861520290375,0.16201888024806976
14476.823808818017,0.474896103143692,0.27622413635253906,-0.679755687713623,0.999584972858429,0.4888097047805786,0.2541225850582123,-0.6391993761062622,0.9991924166679382,0.4975876808166504,0.25382980704307556,-0.6394853591918945,0.9991461038589478,0.5083251595497131,0.25379467010498047,-0.6396929621696472,0.9990874528884888,0.45470482110977173,0.25516894459724426,-0.6453961730003357,0.9986168146133423,0.44078391790390015,0.25557705760002136,-0.6455203294754028,0.9985015392303467,0.42795443534851074,0.2566075623035431,-0.6457005739212036,0.9982984662055969,0.5177465677261353,0.26021745800971985,-0.3477741479873657,0.9992307424545288,0.4065605700016022,0.26370400190353394,-0.3833279013633728,0.997308611869812,0.4900044798851013,0.298620343208313,-0.5663670897483826,0.999656081199646,0.448935329914093,0.301069438457489,-0.5765534043312073,0.9993107318878174,0.5920364856719971,0.37762972712516785,-0.16136276721954346,0.9997850060462952,0.33359962701797485,0.38881686329841614,-0.20580799877643585,0.9985230565071106,0.616036057472229,0.5294390320777893,-0.025213617831468582,0.9351937174797058,0.3441365659236908,0.5609297156333923,-0.461580365896225,0.9127281904220581,0.6617834568023682,0.6574208736419678,-0.220949187874794,0.9430552124977112,0.3395088315010071,0.4452778697013855,-1.0493730306625366,0.9847888946533203,0.6795816421508789,0.6974803805351257,-0.27414199709892273,0.9056739807128906,0.3418683707714081,0.410962849855423,-1.1549617052078247,0.9773469567298889,0.6692843437194824,0.7013989090919495,-0.34619730710983276,0.9143014550209045,0.33237192034721375,0.39118677377700806,-1.1781189441680908,0.9770134091377258,0.6584460735321045,0.6904934048652649,-0.25044751167297363,0.9203597903251648,0.3352855443954468,0.39924731850624084,-1.0695605278015137,0.9686682820320129,0.5689823627471924,0.6490267515182495,0.024874165654182434,0.9974418878555298,0.4210052490234375,0.6579254269599915,-0.02484629489481449,0.9945526719093323,0.5632526874542236,0.8672024011611938,-0.11426592618227005,0.47675520181655884,0.4313451647758484,0.8654383420944214,-0.0608125701546669,0.4591498076915741,0.5478841066360474,1.0440808534622192,0.4647786319255829,0.18089629709720612,0.438477098941803,1.0430636405944824,0.43721941113471985,0.2142137736082077,0.5344640612602234,1.0644383430480957,0.5055318474769592,0.1927919238805771,0.4467361867427826,1.0614702701568604,0.47493189573287964,0.12440546602010727,0.5800235867500305,1.108371615409851,0.2203391194343567,0.15374210476875305,0.44610628485679626,1.114846110343933,0.14299772679805756,0.16501520574092865
14493.490475484683,0.47466766834259033,0.2773122787475586,-0.6418024301528931,0.9993640780448914,0.48914650082588196,0.25641873478889465,-0.60260009765625,0.9987271428108215,0.49793878197669983,0.25602322816848755,-0.6028737425804138,0.9986194372177124,0.5081945061683655,0.25577598810195923,-0.6030974388122559,0.9985836744308472,0.4548910856246948,0.25691020488739014,-0.6096190214157104,0.9979150891304016,0.44108834862709045,0.2570241391658783,-0.6097283363342285,0.9976921081542969,0.4283621609210968,0.25731855630874634,-0.6099306344985962,0.997478187084198,0.5166341066360474,0.2614406645298004,-0.3169589936733246,0.9986810088157654,0.4076433479785919,0.2633270025253296,-0.35620003938674927,0.9959017634391785,0.4888792335987091,0.29988083243370056,-0.5300554633140564,0.9994598031044006,0.4487355649471283,0.3024038076400757,-0.5413298010826111,0.998960018157959,0.5920420289039612,0.3771587014198303,-0.1351212114095688,0.9997312426567078,0.33334964513778687,0.383791983127594,-0.19489549100399017,0.9985289573669434,0.6132878065109253,0.5271234512329102,0.002641405677422881,0.9173393845558167,0.3444328010082245,0.5584914684295654,-0.46298450231552124,0.9060052037239075,0.6604286432266235,0.6571446061134338,-0.17610397934913635,0.9241229891777039,0.3411693572998047,0.4425167441368103,-1.0428247451782227,0.9823085069656372,0.6774024963378906,0.6970574855804443,-0.2252502292394638,0.8814416527748108,0.3412262797355652,0.41054072976112366,-1.1456634998321533,0.9742472767829895,0.6671743988990784,0.7014752626419067,-0.2938763499259949,0.8915929198265076,0.33124226331710815,0.39015698432922363,-1.1680561304092407,0.9737179279327393,0.6567810773849487,0.689887285232544,-0.2038903832435608,0.9006336331367493,0.3350474238395691,0.3970218300819397,-1.0624219179153442,0.9646307229995728,0.5697808265686035,0.6510608196258545,0.03111496940255165,0.9970889687538147,0.4204615354537964,0.6590458750724792,-0.031077634543180466,0.9937772750854492,0.5623182654380798,0.8710644841194153,-0.14411026239395142,0.43505623936653137,0.4321594536304474,0.868869423866272,-0.07113678008317947,0.38185828924179077,0.5454778671264648,1.0478044748306274,0.4019366502761841,0.15069258213043213,0.44147634506225586,1.0447062253952026,0.4293079078197479,0.16360677778720856,0.5319222211837769,1.0681580305099487,0.43957412242889404,0.16587601602077484,0.44901758432388306,1.0629711151123047,0.4674729108810425,0.09692832827568054,0.5759653449058533,1.113107442855835,0.157732293009758,0.12647011876106262,0.4511158764362335,1.1174646615982056,0.14198951423168182,0.12887714803218842
14510.157142151349,0.47284671664237976,0.2762608528137207,-0.7029277086257935,0.9996532201766968,0.4882148802280426,0.2539636194705963,-0.663187563419342,0.9993096590042114,0.4970940947532654,0.25371524691581726,-0.6634682416915894,0.9992813467979431,0.5079100728034973,0.25370684266090393,-0.6636812686920166,0.9992197751998901,0.45373162627220154,0.2549974024295807,-0.6688625812530518,0.9988172054290771,0.44026297330856323,0.2552804946899414,-0.6689924001693726,0.9987276196479797,0.42765235900878906,0.25622689723968506,-0.669175922870636,0.9985344409942627,0.5182480812072754,0.26007455587387085,-0.36862877011299133,0.9993578791618347,0.40663209557533264,0.26315245032310486,-0.40151798725128174,0.9977038502693176,0.4888841509819031,0.2985122799873352,-0.5876390933990479,0.9997135996818542,0.4477730095386505,0.3009858727455139,-0.5971055626869202,0.9994193315505981,0.5933352708816528,0.37714946269989014,-0.1733621060848236,0.9998098015785217,0.3340538740158081,0.38740071654319763,-0.21639961004257202,0.9986996650695801,0.6144157648086548,0.529755175113678,-0.03383997082710266,0.9373952746391296,0.34437817335128784,0.5605723857879639,-0.46923696994781494,0.9132157564163208,0.6605061292648315,0.6577911376953125,-0.2376129925251007,0.9421007037162781,0.3401298224925995,0.44876471161842346,-1.0657869577407837,0.9846958518028259,0.6780223846435547,0.6978386640548706,-0.2920127213001251,0.9039878845214844,0.3435903787612915,0.4159507751464844,-1.1729482412338257,0.9771133661270142,0.6685959100723267,0.7019420266151428,-0.36614495515823364,0.9130229353904724,0.33296847343444824,0.39436668157577515,-1.1974358558654785,0.976825475692749,0.658056914806366,0.6909445524215698,-0.2680085003376007,0.9184836745262146,0.3360510468482971,0.4022614061832428,-1.0866639614105225,0.9682526588439941,0.5689567923545837,0.6476641893386841,0.025062667205929756,0.9975903034210205,0.4209635555744171,0.6560594439506531,-0.025064213201403618,0.9948902130126953,0.5642428994178772,0.8684985041618347,-0.1256316900253296,0.5019510984420776,0.43149566650390625,0.8674366474151611,-0.06347350776195526,0.4753163754940033,0.5465611219406128,1.0468400716781616,0.46727806329727173,0.19784143567085266,0.4366266131401062,1.0453559160232544,0.44757452607154846,0.23645910620689392,0.5327175259590149,1.067147135734558,0.5090507864952087,0.20472922921180725,0.44482722878456116,1.0642988681793213,0.4860948324203491,0.134331613779068,0.5774332284927368,1.1123428344726562,0.21723881363868713,0.16724355518817902,0.4423365592956543,1.1173268556594849,0.1476234495639801,0.1831969916820526
14526.823808818015,0.47378236055374146,0.2766076922416687,-0.6838959455490112,0.9996248483657837,0.488788902759552,0.25473934412002563,-0.6434560418128967,0.9992401599884033,0.4982556700706482,0.25448083877563477,-0.6437305212020874,0.9992121458053589,0.5091527700424194,0.2544548213481903,-0.6439326405525208,0.9991346001625061,0.45406675338745117,0.2556121051311493,-0.6486899852752686,0.9986981153488159,0.44038689136505127,0.2559417486190796,-0.6488187313079834,0.9986146688461304,0.427741676568985,0.25683027505874634,-0.6489990949630737,0.998405396938324,0.5192321538925171,0.2609251141548157,-0.3484947681427002,0.9992969036102295,0.40701451897621155,0.26375406980514526,-0.37942004203796387,0.9975481629371643,0.48948797583580017,0.29930973052978516,-0.5689195394515991,0.9997001886367798,0.4478037655353546,0.3018168807029724,-0.5777730941772461,0.9993962049484253,0.593816339969635,0.3779395520687103,-0.15426720678806305,0.9998051524162292,0.3353666663169861,0.3881843090057373,-0.1987675130367279,0.99870765209198,0.6150996088981628,0.5298737287521362,-0.015791499987244606,0.9384511113166809,0.3448442220687866,0.560504674911499,-0.4540664553642273,0.9163491129875183,0.6613785028457642,0.6579484939575195,-0.21649780869483948,0.9450353384017944,0.33747953176498413,0.4493686556816101,-1.0527074337005615,0.9858347773551941,0.6789027452468872,0.6980679035186768,-0.2699081301689148,0.9078285098075867,0.33872190117836,0.4162341058254242,-1.1605650186538696,0.9788645505905151,0.6689385175704956,0.7021164894104004,-0.3436150550842285,0.9161403775215149,0.32950592041015625,0.3946278393268585,-1.185080647468567,0.9786483645439148,0.6580554246902466,0.6912510991096497,-0.2466745227575302,0.9211175441741943,0.33314183354377747,0.40260568261146545,-1.0739179849624634,0.9708144664764404,0.5685476064682007,0.6511688828468323,0.027890771627426147,0.9978715181350708,0.420410692691803,0.6589819192886353,-0.027904320508241653,0.9955698847770691,0.5648213624954224,0.8692829012870789,-0.12295719981193542,0.5351642370223999,0.433029443025589,0.8685969710350037,-0.06441938877105713,0.4995065927505493,0.5500920414924622,1.0487427711486816,0.47641754150390625,0.21890436112880707,0.43916282057762146,1.0474529266357422,0.46087172627449036,0.2542634904384613,0.535825252532959,1.0689107179641724,0.5188145041465759,0.21622630953788757,0.4475245475769043,1.0661182403564453,0.5006522536277771,0.14017647504806519,0.5825823545455933,1.1146470308303833,0.22471070289611816,0.18308386206626892,0.44593918323516846,1.119909644126892,0.1600061058998108,0.198258638381958
14543.490475484681,0.47697913646698,0.2748996913433075,-0.6515867114067078,0.9994975328445435,0.49033665657043457,0.2534656524658203,-0.6102285385131836,0.9990330934524536,0.49963057041168213,0.25297150015830994,-0.61052006483078,0.9989799857139587,0.5099244713783264,0.25270476937294006,-0.6107283234596252,0.9989169836044312,0.4569483995437622,0.25477010011672974,-0.6169683337211609,0.9983066320419312,0.4425722658634186,0.25516214966773987,-0.617080569267273,0.9981429576873779,0.4300896227359772,0.25590574741363525,-0.6172666549682617,0.9978833794593811,0.5190435647964478,0.259166955947876,-0.31828710436820984,0.9990659356117249,0.4072679877281189,0.26399537920951843,-0.3561643958091736,0.996618390083313,0.4916520416736603,0.2972925305366516,-0.5385134220123291,0.9995744824409485,0.45089200139045715,0.29995065927505493,-0.549315333366394,0.9991517066955566,0.5931200385093689,0.3772889971733093,-0.13433998823165894,0.9997559189796448,0.3347744941711426,0.38761433959007263,-0.18872791528701782,0.9982812404632568,0.6147118806838989,0.5295640826225281,-0.0006905742920935154,0.9306854605674744,0.34302932024002075,0.5621504783630371,-0.4506179392337799,0.9153134822845459,0.6619598865509033,0.6584969758987427,-0.1955437809228897,0.9421334266662598,0.33812469244003296,0.44311174750328064,-1.034332036972046,0.9843747019767761,0.6794485449790955,0.6990987062454224,-0.24824412167072296,0.9038084745407104,0.34143802523612976,0.41065022349357605,-1.138633370399475,0.9765694737434387,0.670260488986969,0.7034295797348022,-0.3198266625404358,0.9128274917602539,0.33125874400138855,0.38950374722480774,-1.1619083881378174,0.9763051271438599,0.6598989963531494,0.6925365924835205,-0.22505035996437073,0.9192442297935486,0.33361396193504333,0.39827772974967957,-1.0545023679733276,0.9678230285644531,0.5673121809959412,0.6523943543434143,0.030579252168536186,0.9973485469818115,0.418408066034317,0.6606724858283997,-0.030549781396985054,0.9941723942756653,0.563841700553894,0.8698478937149048,-0.13122639060020447,0.44877710938453674,0.4298296272754669,0.8680498003959656,-0.07624632865190506,0.4220256805419922,0.5446469783782959,1.0487152338027954,0.44689077138900757,0.1683993637561798,0.43860191106796265,1.0467009544372559,0.43037354946136475,0.19289900362491608,0.52997887134552,1.0691852569580078,0.4874323010444641,0.1864377111196518,0.4458335340023041,1.065415382385254,0.46878480911254883,0.11203864961862564,0.5776970386505127,1.1133791208267212,0.20066112279891968,0.14390121400356293,0.4479893445968628,1.1179869174957275,0.1332852840423584,0.15324194729328156
14560.157142151347,0.47768884897232056,0.2753700613975525,-0.674752950668335,0.9994490742683411,0.49135762453079224,0.2539217472076416,-0.6344699263572693,0.9989373087882996,0.5007095336914062,0.25343066453933716,-0.6347446441650391,0.9988719820976257,0.5108701586723328,0.25314998626708984,-0.6349420547485352,0.998802900314331,0.4579164385795593,0.2552962303161621,-0.6410906910896301,0.9981891512870789,0.44349703192710876,0.2557607889175415,-0.6412133574485779,0.9980249404907227,0.43075281381607056,0.2564598321914673,-0.6414182186126709,0.9977643489837646,0.5190804600715637,0.25940048694610596,-0.3426128327846527,0.9989376664161682,0.407485693693161,0.264239639043808,-0.3799877464771271,0.9964010715484619,0.49215760827064514,0.2979344427585602,-0.5613871216773987,0.9995409250259399,0.45102658867836,0.3007964789867401,-0.5720166563987732,0.9991300702095032,0.5940023064613342,0.3777940571308136,-0.15072262287139893,0.9997374415397644,0.3343546390533447,0.3870701193809509,-0.2100808322429657,0.9983375072479248,0.6153596639633179,0.5305822491645813,-0.009924862533807755,0.9315710067749023,0.342218279838562,0.560881495475769,-0.4685458242893219,0.9186115264892578,0.6625713109970093,0.6589275598526001,-0.20450791716575623,0.9432142376899719,0.3362604081630707,0.4444226324558258,-1.0481153726577759,0.9835018515586853,0.6786581873893738,0.6995340585708618,-0.2570948600769043,0.9045420289039612,0.3401830792427063,0.4125576913356781,-1.1512724161148071,0.975205659866333,0.6700794100761414,0.7040677070617676,-0.32892829179763794,0.9133675694465637,0.33092355728149414,0.3910403251647949,-1.175869107246399,0.9749035239219666,0.6601008772850037,0.6928746104240417,-0.2339615672826767,0.919268786907196,0.3331717550754547,0.3995874226093292,-1.0684947967529297,0.9659743309020996,0.5665711164474487,0.6532022953033447,0.03608543053269386,0.9970641732215881,0.41938117146492004,0.6608583927154541,-0.03607618436217308,0.9938808679580688,0.5631582140922546,0.8676548004150391,-0.12320935726165771,0.4453960657119751,0.429993212223053,0.8665236830711365,-0.0788138136267662,0.4242413341999054,0.544503390789032,1.0454332828521729,0.458036333322525,0.16837948560714722,0.43935301899909973,1.0445537567138672,0.4297136664390564,0.18986500799655914,0.5294054746627808,1.0656344890594482,0.49883753061294556,0.18888503313064575,0.4453389346599579,1.0629669427871704,0.4681738615036011,0.10889485478401184,0.578169584274292,1.110476016998291,0.21068476140499115,0.14506393671035767,0.45248711109161377,1.1161538362503052,0.12971016764640808,0.151447132229805
14576.823808818013,0.476267546415329,0.27442502975463867,-0.6924002170562744,0.9996517896652222,0.489584743976593,0.25423336029052734,-0.652228057384491,0.9993208646774292,0.4983727037906647,0.2537521719932556,-0.6524935364723206,0.9992915391921997,0.5090013742446899,0.2535014748573303,-0.65268474817276,0.9992508292198181,0.456821471452713,0.2549523115158081,-0.658193826675415,0.998813271522522,0.44266030192375183,0.2552015483379364,-0.6583170890808105,0.998694121837616,0.43079549074172974,0.25561195611953735,-0.6584974527359009,0.9985179305076599,0.5185714960098267,0.25951269268989563,-0.3627881705760956,0.999321699142456,0.4083338975906372,0.2634183466434479,-0.3978102505207062,0.997400164604187,0.4905729591846466,0.2964118421077728,-0.5801903009414673,0.9996874332427979,0.45057374238967896,0.2979319989681244,-0.5901888608932495,0.9993709921836853,0.594877302646637,0.3784267008304596,-0.18048276007175446,0.9998002648353577,0.3351845145225525,0.3856816291809082,-0.21870407462120056,0.9984765648841858,0.6165862083435059,0.5300676822662354,-0.05029706284403801,0.9494685530662537,0.3392738699913025,0.5595929622650146,-0.47438493371009827,0.9248760342597961,0.6637070178985596,0.6578839421272278,-0.25309881567955017,0.9580486416816711,0.33252274990081787,0.44569844007492065,-1.0662184953689575,0.9855688214302063,0.6807276010513306,0.6994714736938477,-0.30733680725097656,0.9249787330627441,0.3376345634460449,0.41335025429725647,-1.1703494787216187,0.9780152440071106,0.6695141792297363,0.7030496597290039,-0.3794056475162506,0.9316980838775635,0.32982581853866577,0.3919815719127655,-1.1937930583953857,0.9776986241340637,0.6585947275161743,0.6923040747642517,-0.2823214828968048,0.9356421232223511,0.3319547176361084,0.3999944031238556,-1.086452603340149,0.9695169925689697,0.5675026774406433,0.6520769596099854,0.028515253216028214,0.9972211122512817,0.4185551404953003,0.6587860584259033,-0.028562262654304504,0.9941524863243103,0.5627405643463135,0.8663609027862549,-0.13088127970695496,0.4750337600708008,0.4284493327140808,0.8654808402061462,-0.07345201075077057,0.44874146580696106,0.5458771586418152,1.0438504219055176,0.44508329033851624,0.18202954530715942,0.43914592266082764,1.0435609817504883,0.42946913838386536,0.2076040804386139,0.532034158706665,1.0639265775680542,0.4851253926753998,0.19242866337299347,0.44638150930404663,1.0618150234222412,0.4672219455242157,0.11515607684850693,0.5774688720703125,1.1090646982192993,0.19787245988845825,0.15903526544570923,0.44949793815612793,1.1156196594238281,0.13222692906856537,0.16569697856903076
14593.49047548468,0.47377896308898926,0.2743648588657379,-0.6978297233581543,0.999610960483551,0.48887360095977783,0.25294435024261475,-0.657392144203186,0.9992451667785645,0.49793341755867004,0.2525053322315216,-0.6576769948005676,0.9992074370384216,0.5084332823753357,0.2522786557674408,-0.657882809638977,0.9991443157196045,0.4544766843318939,0.25432848930358887,-0.6623620986938477,0.9986807703971863,0.44039562344551086,0.254709929227829,-0.6624882817268372,0.998559296131134,0.4279498755931854,0.25540152192115784,-0.6626774072647095,0.9983412027359009,0.5183464884757996,0.25897079706192017,-0.36501550674438477,0.99928879737854,0.406779408454895,0.2632412016391754,-0.39544814825057983,0.9973342418670654,0.48969149589538574,0.2970433831214905,-0.5845084190368652,0.9996826648712158,0.4480082094669342,0.2995973527431488,-0.5932145714759827,0.999346911907196,0.5937279462814331,0.37783685326576233,-0.17605306208133698,0.9997654557228088,0.3349267244338989,0.3870168626308441,-0.21579943597316742,0.998437225818634,0.6146038770675659,0.5314580798149109,-0.03213496506214142,0.937329113483429,0.34210509061813354,0.561241626739502,-0.47180449962615967,0.9150620698928833,0.662233829498291,0.6601791381835938,-0.223319873213768,0.9440860748291016,0.33919432759284973,0.4448952078819275,-1.0691951513290405,0.9837461709976196,0.6794006824493408,0.7009411454200745,-0.2750760316848755,0.9059432744979858,0.3427329659461975,0.4127024710178375,-1.1750459671020508,0.9759014844894409,0.6703399419784546,0.705199658870697,-0.3493674695491791,0.9144606590270996,0.3326528072357178,0.3918202519416809,-1.198796033859253,0.9755600690841675,0.6598373651504517,0.6942002773284912,-0.2533080577850342,0.9208215475082397,0.3354739248752594,0.3999571204185486,-1.0899596214294434,0.9668862223625183,0.5680835247039795,0.6534339189529419,0.026359833776950836,0.997465968132019,0.41856443881988525,0.6611508131027222,-0.026356639340519905,0.9946476817131042,0.5645592212677002,0.8710103034973145,-0.12550188601016998,0.4718618392944336,0.4276605248451233,0.8710829019546509,-0.06418422609567642,0.4626178443431854,0.5482044816017151,1.046933889389038,0.47389352321624756,0.1767481118440628,0.43348613381385803,1.0334084033966064,0.45552411675453186,0.21419723331928253,0.5337703824043274,1.067276954650879,0.5164220333099365,0.19868212938308716,0.4449678063392639,1.0643908977508545,0.49531668424606323,0.12596812844276428,0.5829885601997375,1.1115422248840332,0.22974064946174622,0.15336787700653076,0.44391438364982605,1.1177456378936768,0.15947921574115753,0.16865317523479462
14610.157142151345,0.47679245471954346,0.27553245425224304,-0.6743201017379761,0.9996016621589661,0.49015012383461,0.2546844184398651,-0.6337634921073914,0.9992243051528931,0.49951431155204773,0.2542681097984314,-0.6340430378913879,0.9991859793663025,0.5097894072532654,0.25415536761283875,-0.6342363953590393,0.9991286396980286,0.45709502696990967,0.25570204854011536,-0.6397495865821838,0.9986355900764465,0.44303300976753235,0.2561030387878418,-0.6398691534996033,0.9985062479972839,0.4309057593345642,0.2567592263221741,-0.6400561928749084,0.9982878565788269,0.5190247893333435,0.26098597049713135,-0.3434644341468811,0.9992467164993286,0.40863239765167236,0.2650357782840729,-0.3786461651325226,0.9971928000450134,0.4914264976978302,0.29839232563972473,-0.5618042349815369,0.9996590614318848,0.4514051079750061,0.3004668653011322,-0.5718598961830139,0.999303936958313,0.5935652852058411,0.37921661138534546,-0.15896230936050415,0.9997801184654236,0.3364879786968231,0.38643550872802734,-0.20593874156475067,0.9984753727912903,0.6144793033599854,0.5312343835830688,-0.026801634579896927,0.9379631876945496,0.34245532751083374,0.5590143799781799,-0.46263375878334045,0.918342113494873,0.6620391607284546,0.6577742695808411,-0.22500184178352356,0.9483444094657898,0.3365708589553833,0.4459725022315979,-1.0491259098052979,0.984943151473999,0.6791817545890808,0.6978094577789307,-0.2778109610080719,0.9125478267669678,0.3408322036266327,0.4148258566856384,-1.1532809734344482,0.9776261448860168,0.6693394184112549,0.7018340229988098,-0.35058343410491943,0.9206290245056152,0.3314513564109802,0.3928373157978058,-1.1777490377426147,0.9774215221405029,0.6587504148483276,0.6908482313156128,-0.25479626655578613,0.9260013103485107,0.33369994163513184,0.4013521075248718,-1.0699349641799927,0.9693388342857361,0.5661221146583557,0.6497598886489868,0.027570616453886032,0.9975786805152893,0.41914334893226624,0.6572916507720947,-0.02758638560771942,0.9949216246604919,0.5608457326889038,0.8667516708374023,-0.12418358772993088,0.4402198791503906,0.4287823438644409,0.8637477159500122,-0.07392289489507675,0.4262737035751343,0.5450151562690735,1.0419275760650635,0.45031997561454773,0.16819968819618225,0.43672654032707214,1.0420160293579102,0.4236120581626892,0.19975653290748596,0.531177282333374,1.062124490737915,0.49066978693008423,0.19329315423965454,0.4442247152328491,1.0607244968414307,0.46110618114471436,0.11753179132938385,0.5788302421569824,1.1052405834197998,0.20616154372692108,0.1508093625307083,0.44447457790374756,1.1124958992004395,0.12758564949035645,0.16030776500701904
14626.823808818011,0.47301021218299866,0.2732234299182892,-0.6740744709968567,0.9995354413986206,0.4886052906513214,0.2520415186882019,-0.6326522827148438,0.9991119503974915,0.49744608998298645,0.25153273344039917,-0.6329323053359985,0.9990472197532654,0.5078789591789246,0.25120043754577637,-0.6331323385238647,0.9990028738975525,0.45383420586586,0.25355541706085205,-0.638621985912323,0.9984732270240784,0.4399091601371765,0.25400909781455994,-0.6387437582015991,0.998305082321167,0.42775052785873413,0.2547343373298645,-0.63893723487854,0.9980840682983398,0.5182161927223206,0.25799405574798584,-0.3420569598674774,0.9990770816802979,0.40728431940078735,0.2631220519542694,-0.37688305974006653,0.9967549443244934,0.4896012544631958,0.29605650901794434,-0.5621007084846497,0.9996104836463928,0.4480082094669342,0.29849565029144287,-0.5719913840293884,0.9992192983627319,0.5931487679481506,0.3777186870574951,-0.1578749120235443,0.9997401833534241,0.3348279893398285,0.3866928517818451,-0.21206578612327576,0.9983683228492737,0.6130940914154053,0.5299568176269531,-0.02447071671485901,0.9265167117118835,0.34403616189956665,0.5618605613708496,-0.4743329882621765,0.9148716330528259,0.6611371636390686,0.6576328277587891,-0.21867820620536804,0.9356802105903625,0.3402065634727478,0.4425397515296936,-1.057723879814148,0.9831574559211731,0.6787761449813843,0.6989218592643738,-0.2715294659137726,0.8941487073898315,0.3466986417770386,0.41031908988952637,-1.161873698234558,0.9747890830039978,0.6687310338020325,0.7032907009124756,-0.3420984148979187,0.903722882270813,0.3354588747024536,0.38895726203918457,-1.1845629215240479,0.9743409752845764,0.6578806638717651,0.6921692490577698,-0.24774415791034698,0.9112243056297302,0.3374512195587158,0.3972376585006714,-1.0776524543762207,0.9653466939926147,0.5672172904014587,0.6504728198051453,0.0331849679350853,0.9973247051239014,0.4200493395328522,0.6584938764572144,-0.03318528085947037,0.9942130446434021,0.5644735097885132,0.8678109645843506,-0.1370922327041626,0.42656591534614563,0.4311477541923523,0.8660827279090881,-0.07485905289649963,0.4115980267524719,0.5464386940002441,1.0447516441345215,0.444405734539032,0.1557360291481018,0.4352545738220215,1.0431275367736816,0.4438839852809906,0.179038867354393,0.5312682390213013,1.0651699304580688,0.48534855246543884,0.1825435906648636,0.44197383522987366,1.0613853931427002,0.48351016640663147,0.10270820558071136,0.582485556602478,1.1089990139007568,0.19807744026184082,0.1356971263885498,0.4456503689289093,1.115055799484253,0.1471264809370041,0.14225760102272034
14643.490475484678,0.4756040871143341,0.27478328347206116,-0.6637417674064636,0.9996044039726257,0.4897416830062866,0.2538185119628906,-0.623383104801178,0.9992474317550659,0.49883532524108887,0.2533360421657562,-0.6236607432365417,0.9991990923881531,0.5091119408607483,0.25310397148132324,-0.6238610744476318,0.999160647392273,0.45627260208129883,0.2550578713417053,-0.6287139058113098,0.9986839890480042,0.44241973757743835,0.25545457005500793,-0.6288284659385681,0.9985442161560059,0.43054482340812683,0.2560654878616333,-0.6290134787559509,0.9983494281768799,0.5184045433998108,0.2597445845603943,-0.33609816431999207,0.9992361068725586,0.40909916162490845,0.26410505175590515,-0.3680710792541504,0.997259259223938,0.4911216199398041,0.29730159044265747,-0.5527764558792114,0.9996795654296875,0.451169490814209,0.29935115575790405,-0.5618148446083069,0.9993647933006287,0.5947459936141968,0.3791997730731964,-0.1516994833946228,0.9997813105583191,0.33823853731155396,0.38636815547943115,-0.20071355998516083,0.9985079169273376,0.6146841049194336,0.5317209959030151,-0.02015485055744648,0.936006486415863,0.3407204747200012,0.5603879690170288,-0.4602179229259491,0.9208295345306396,0.662728488445282,0.6591318249702454,-0.21682874858379364,0.947441816329956,0.33543241024017334,0.44529014825820923,-1.0456470251083374,0.9849544763565063,0.6801051497459412,0.7000125050544739,-0.27039438486099243,0.9105388522148132,0.3389439284801483,0.41316473484039307,-1.1497621536254883,0.97713702917099,0.6703574061393738,0.7043241262435913,-0.3413621783256531,0.918910801410675,0.3299223780632019,0.39220044016838074,-1.1733124256134033,0.9767974019050598,0.65965336561203,0.6932359337806702,-0.24595853686332703,0.9242871999740601,0.33254823088645935,0.4006878435611725,-1.0660260915756226,0.9686964154243469,0.5667804479598999,0.6501335501670837,0.03478400036692619,0.9975959658622742,0.4211886525154114,0.6571317315101624,-0.034820813685655594,0.9947783946990967,0.5638830661773682,0.8682383894920349,-0.1281457394361496,0.4463759660720825,0.43170908093452454,0.8659290075302124,-0.07807240635156631,0.43346691131591797,0.5469680428504944,1.0455894470214844,0.45063307881355286,0.17043843865394592,0.4362391233444214,1.0433062314987183,0.43298983573913574,0.19315539300441742,0.5317711234092712,1.0657017230987549,0.49137061834335327,0.1914166510105133,0.44227078557014465,1.0614409446716309,0.47184449434280396,0.10602299124002457,0.5824217796325684,1.1100211143493652,0.20418870449066162,0.1454097479581833,0.44936835765838623,1.1150529384613037,0.13580265641212463,0.15143810212612152
