0,1
14172.288075475219,78.0
14172.288137972431,30.0
14172.288200469644,98.0
14172.288262966857,104.0
14172.28832546407,69.0
14172.28838796128,110.0
14172.288450458493,89.0
14172.288512955705,79.0
14172.288575452918,100.0
14172.28863795013,90.0
14172.288700447343,84.0
14172.288762944556,79.0
14172.288825441768,61.0
14172.288887938981,41.0
14172.288950436194,39.0
14172.289012933405,50.0
14172.289075430617,19.0
14172.28913792783,-17.0
14172.289200425043,53.0
14172.289262922255,74.0
14172.289325419468,41.0
14172.28938791668,43.0
14172.289450413893,61.0
14172.289512911106,66.0
14172.289575408318,69.0
14172.289637905531,75.0
14172.289700402742,56.0
14172.289762899954,65.0
14172.289825397167,69.0
14172.28988789438,69.0
14172.289950391592,60.0
14172.290012888805,50.0
14172.290075386018,31.0
14172.29013788323,22.0
14172.290200380443,104.0
14172.290262877656,85.0
14172.290325374868,51.0
14172.290387872079,81.0
14172.290450369292,69.0
14172.290512866504,60.0
14172.290575363717,51.0
14172.29063786093,59.0
14172.290700358142,73.0
14172.290762855355,69.0
14172.290825352567,39.0
14172.29088784978,30.0
14172.290950346993,53.0
14172.291012844205,71.0
14172.291075341416,54.0
14172.291137838629,10.0
14172.291200335841,71.0
14172.291262833054,76.0
14172.291325330267,47.0
14172.29138782748,73.0
14172.291450324692,52.0
14172.291512821905,40.0
14172.291575319117,60.0
14172.29163781633,48.0
14172.291700313543,63.0
14172.291762810753,86.0
14172.291825307966,75.0
14172.291887805179,113.0
14172.291950302391,112.0
14172.292012799604,114.0
14172.292075296817,130.0
14172.29213779403,54.0
14172.292200291242,80.0
14172.292262788455,118.0
14172.292325285667,76.0
14172.29238778288,93.0
14172.29245028009,94.0
14172.292512777303,91.0
14172.292575274516,120.0
14172.292637771729,100.0
14172.292700268941,100.0
14172.292762766154,99.0
14172.292825263366,89.0
14172.29288776058,93.0
14172.292950257792,95.0
14172.293012755004,124.0
14172.293075252215,104.0
14172.293137749428,66.0
14172.29320024664,133.0
14172.293262743853,151.0
14172.293325241066,102.0
14172.293387738278,86.0
14172.293450235491,95.0
14172.293512732704,93.0
14172.293575229916,68.0
14172.293637727129,72.0
14172.293700224342,70.0
14172.293762721554,69.0
14172.293825218765,72.0
14172.293887715978,49.0
14172.29395021319,46.0
14172.294012710403,68.0
14172.294075207616,59.0
14172.294137704828,27.0
14172.29420020204,69.0
14172.294262699254,57.0
14172.294325196466,14.0
14172.294387693679,33.0
14172.29445019089,36.0
14172.294512688102,20.0
14172.294575185315,0.0
14172.294637682528,8.0
14172.29470017974,1.0
14172.294762676953,13.0
14172.294825174165,-7.0
14172.294887671378,-39.0
14172.29495016859,-11.0
14172.295012665803,2.0
14172.295075163016,21.0
14172.295137660229,-9.0
14172.29520015744,43.0
14172.295262654652,112.0
14172.295325151865,72.0
14172.295387649077,72.0
14172.29545014629,93.0
14172.295512643503,98.0
14172.295575140715,104.0
14172.295637637928,115.0
14172.29570013514,122.0
14172.295762632353,125.0
14172.295825129564,149.0
14172.295887626777,143.0
14172.29595012399,111.0
14172.296012621202,135.0
14172.296075118415,139.0
14172.296137615627,128.0
14172.29620011284,170.0
14172.296262610053,141.0
14172.296325107265,129.0
14172.296387604478,150.0
14172.29645010169,125.0
14172.296512598903,125.0
14172.296575096114,127.0
14172.296637593327,128.0
14172.29670009054,162.0
14172.296762587752,169.0
14172.296825084964,138.0
14172.296887582177,154.0
14172.29695007939,135.0
14172.297012576602,102.0
14172.297075073815,115.0
14172.297137571028,118.0
14172.297200068238,147.0
14172.297262565451,159.0
14172.297325062664,135.0
14172.297387559876,117.0
14172.297450057089,104.0
14172.297512554302,129.0
14172.297575051514,131.0
14172.297637548727,121.0
14172.29770004594,110.0
14172.297762543152,107.0
14172.297825040365,117.0
14172.297887537577,102.0
14172.297950034788,94.0
14172.298012532001,116.0
14172.298075029214,99.0
14172.298137526426,30.0
14172.298200023639,85.0
14172.298262520851,88.0
14172.298325018064,2.0
14172.298387515277,0.0
14172.29845001249,27.0
14172.298512509702,-5.0
14172.298575006913,-2.0
14172.298637504126,31.0
14172.298700001338,-5.0
14172.29876249855,27.0
14172.298824995763,55.0
14172.298887492976,23.0
14172.298949990189,66.0
14172.299012487401,112.0
14172.299074984614,123.0
14172.299137481827,133.0
14172.29919997904,191.0
14172.299262476252,176.0
14172.299324973463,149.0
14172.299387470675,166.0
14172.299449967888,136.0
14172.2995124651,133.0
14172.299574962313,137.0
14172.299637459526,145.0
14172.299699956739,149.0
14172.299762453951,140.0
14172.299824951164,147.0
14172.299887448376,144.0
14172.299949945587,131.0
14172.3000124428,153.0
14172.300074940013,146.0
14172.300137437225,112.0
14172.300199934438,204.0
14172.30026243165,247.0
14172.300324928863,183.0
14172.300387426076,192.0
14172.300449923288,204.0
14172.300512420501,177.0
14172.300574917714,200.0
14172.300637414924,203.0
14172.300699912137,170.0
14172.30076240935,178.0
14172.300824906562,181.0
14172.300887403775,207.0
14172.300949900988,203.0
14172.3010123982,215.0
14172.301074895413,207.0
14172.301137392626,124.0
14172.301199889838,166.0
14172.30126238705,158.0
14172.301324884262,111.0
14172.301387381474,127.0
14172.301449878687,117.0
14172.3015123759,83.0
14172.301574873112,68.0
14172.301637370325,60.0
14172.301699867538,36.0
14172.30176236475,60.0
14172.301824861963,38.0
14172.301887359175,28.0
14172.301949856388,34.0
14172.302012353599,31.0
14172.302074850812,40.0
14172.302137348024,14.0
14172.302199845237,65.0
14172.30226234245,44.0
14172.302324839662,12.0
14172.302387336875,12.0
14172.302449834087,-15.0
14172.3025123313,2.0
14172.302574828513,1.0
14172.302637325725,-5.0
14172.302699822936,25.0
14172.302762320149,25.0
14172.302824817361,12.0
14172.302887314574,20.0
14172.302949811787,16.0
14172.303012309,18.0
14172.303074806212,-31.0
14172.303137303425,-54.0
14172.303199800637,-2.0
14172.30326229785,-15.0
14172.303324795063,-32.0
14172.303387292273,-4.0
14172.303449789486,-21.0
14172.303512286699,-6.0
14172.303574783911,4.0
14172.303637281124,-7.0
14172.303699778337,26.0
14172.30376227555,35.0
14172.303824772762,28.0
14172.303887269974,22.0
14172.303949767187,6.0
14172.304012264398,42.0
14172.30407476161,50.0
14172.304137258823,11.0
14172.304199756036,103.0
14172.304262253248,120.0
14172.304324750461,53.0
14172.304387247674,100.0
14172.304449744886,104.0
14172.304512242099,48.0
14172.304574739312,46.0
14172.304637236524,47.0
14172.304699733737,47.0
14172.304762230948,63.0
14172.30482472816,26.0
14172.304887225373,34.0
14172.304949722586,59.0
14172.305012219798,51.0
14172.305074717011,52.0
14172.305137214224,25.0
14172.305199711436,62.0
14172.305262208649,34.0
14172.305324705861,-38.0
14172.305387203072,1.0
14172.305449700285,29.0
14172.305512197498,32.0
14172.30557469471,35.0
14172.305637191923,37.0
14172.305699689136,58.0
14172.305762186348,81.0
14172.30582468356,87.0
14172.305887180773,107.0
14172.305949677986,101.0
14172.306012175199,101.0
14172.306074672411,95.0
14172.306137169622,38.0
14172.306199666835,95.0
14172.306262164047,125.0
14172.30632466126,65.0
14172.306387158473,57.0
14172.306449655685,69.0
14172.306512152898,41.0
14172.30657465011,15.0
14172.306637147323,19.0
14172.306699644536,5.0
14172.306762141747,12.0
14172.30682463896,5.0
14172.306887136172,3.0
14172.306949633385,36.0
14172.307012130597,59.0
14172.30707462781,83.0
14172.307137125023,78.0
14172.307199622235,142.0
14172.307262119448,179.0
14172.30732461666,148.0
14172.307387113873,171.0
14172.307449611086,157.0
14172.307512108297,153.0
14172.30757460551,177.0
14172.307637102722,168.0
14172.307699599934,170.0
14172.307762097147,166.0
14172.30782459436,147.0
14172.307887091572,154.0
14172.307949588785,138.0
14172.308012085998,95.0
14172.30807458321,50.0
14172.308137080421,11.0
14172.308199577634,57.0
14172.308262074846,51.0
14172.308324572059,17.0
14172.308387069272,43.0
14172.308449566484,34.0
14172.308512063697,23.0
14172.30857456091,23.0
14172.308637058122,22.0
14172.308699555335,22.0
14172.308762052548,27.0
14172.30882454976,51.0
14172.308887046971,66.0
14172.308949544184,76.0
14172.309012041396,112.0
14172.309074538609,102.0
14172.309137035822,55.0
14172.309199533034,108.0
14172.309262030247,89.0
14172.30932452746,46.0
14172.309387024672,86.0
14172.309449521885,70.0
14172.309512019096,63.0
14172.309574516308,75.0
14172.30963701352,67.0
14172.309699510733,59.0
14172.309762007946,67.0
14172.309824505159,55.0
14172.309887002371,38.0
14172.309949499584,31.0
14172.310011996797,22.0
14172.31007449401,8.0
14172.310136991222,-30.0
14172.310199488435,-21.0
14172.310261985645,-33.0
14172.310324482858,-53.0
14172.31038698007,27.0
14172.310449477283,59.0
14172.310511974496,69.0
14172.310574471709,101.0
14172.310636968921,84.0
14172.310699466134,87.0
14172.310761963347,117.0
14172.31082446056,100.0
14172.31088695777,111.0
14172.310949454983,145.0
14172.311011952195,158.0
14172.311074449408,168.0
14172.31113694662,153.0
14172.311199443833,190.0
14172.311261941046,189.0
14172.311324438258,146.0
14172.311386935471,141.0
14172.311449432684,89.0
14172.311511929896,36.0
14172.311574427107,38.0
14172.31163692432,49.0
14172.311699421532,8.0
14172.311761918745,18.0
14172.311824415958,19.0
14172.31188691317,-30.0
14172.311949410383,-41.0
14172.312011907596,-32.0
14172.312074404808,-29.0
14172.312136902021,-56.0
14172.312199399234,-28.0
14172.312261896444,3.0
14172.312324393657,-2.0
14172.31238689087,26.0
14172.312449388082,33.0
14172.312511885295,56.0
14172.312574382508,85.0
14172.31263687972,96.0
14172.312699376933,107.0
14172.312761874146,108.0
14172.312824371358,134.0
14172.31288686857,142.0
14172.312949365782,124.0
14172.313011862994,123.0
14172.313074360207,102.0
14172.31313685742,68.0
14172.313199354632,106.0
14172.313261851845,115.0
14172.313324349057,135.0
14172.31338684627,135.0
14172.313449343483,50.0
14172.313511840695,15.0
14172.313574337908,5.0
14172.313636835119,-19.0
14172.313699332331,-13.0
14172.313761829544,-15.0
14172.313824326757,-28.0
14172.31388682397,-15.0
14172.313949321182,-3.0
14172.314011818395,24.0
14172.314074315607,17.0
14172.31413681282,-49.0
14172.314199310033,-15.0
14172.314261807245,29.0
14172.314324304456,-7.0
14172.314386801669,-14.0
14172.314449298881,28.0
14172.314511796094,40.0
14172.314574293307,32.0
14172.31463679052,29.0
14172.314699287732,33.0
14172.314761784944,53.0
14172.314824282157,41.0
14172.31488677937,36.0
14172.31494927658,41.0
14172.315011773793,38.0
14172.315074271006,22.0
14172.315136768219,6.0
14172.315199265431,47.0
14172.315261762644,10.0
14172.315324259856,-30.0
14172.315386757069,1.0
14172.315449254282,1.0
14172.315511751494,3.0
14172.315574248707,39.0
14172.31563674592,50.0
14172.31569924313,24.0
14172.315761740343,-3.0
14172.315824237556,-45.0
14172.315886734768,-55.0
14172.315949231981,-50.0
14172.316011729194,-4.0
14172.316074226406,9.0
14172.316136723619,-28.0
14172.316199220832,33.0
14172.316261718044,26.0
14172.316324215255,-11.0
14172.316386712468,-8.0
14172.31644920968,-16.0
14172.316511706893,-24.0
14172.316574204106,-19.0
14172.316636701318,-32.0
14172.31669919853,-69.0
14172.316761695743,-32.0
14172.316824192956,-23.0
14172.316886690169,-19.0
14172.316949187381,22.0
14172.317011684594,19.0
14172.317074181805,-9.0
14172.317136679017,10.0
14172.31719917623,47.0
14172.317261673443,28.0
14172.317324170655,22.0
14172.317386667868,47.0
14172.31744916508,42.0
14172.317511662293,4.0
14172.317574159506,1.0
14172.317636656719,0.0
14172.31769915393,9.0
14172.317761651142,47.0
14172.317824148355,38.0
14172.317886645567,20.0
14172.31794914278,-7.0
14172.318011639993,-24.0
14172.318074137205,-16.0
14172.318136634418,-18.0
14172.31819913163,56.0
14172.318261628843,73.0
14172.318324126056,46.0
14172.318386623268,47.0
14172.31844912048,18.0
14172.318511617692,25.0
14172.318574114905,49.0
14172.318636612117,46.0
14172.31869910933,13.0
14172.318761606542,21.0
14172.318824103755,15.0
14172.318886600968,14.0
14172.31894909818,36.0
14172.319011595393,29.0
14172.319074092604,2.0
14172.319136589816,-38.0
14172.31919908703,42.0
14172.319261584242,57.0
14172.319324081454,18.0
14172.319386578667,99.0
14172.31944907588,109.0
14172.319511573092,82.0
14172.319574070305,63.0
14172.319636567518,46.0
14172.31969906473,73.0
14172.319761561943,66.0
14172.319824059154,9.0
14172.319886556366,-1.0
14172.319949053579,-10.0
14172.320011550792,-45.0
14172.320074048004,-56.0
14172.320136545217,-66.0
14172.32019904243,-4.0
14172.320261539642,-6.0
14172.320324036855,-20.0
14172.320386534067,14.0
14172.320449031278,-3.0
14172.32051152849,6.0
14172.320574025704,14.0
14172.320636522916,6.0
14172.320699020129,-17.0
14172.320761517341,-16.0
14172.320824014554,-36.0
14172.320886511767,-22.0
14172.32094900898,9.0
14172.321011506192,-10.0
14172.321074003405,-19.0
14172.321136500617,-46.0
14172.321198997828,-21.0
14172.32126149504,-20.0
14172.321323992253,-34.0
14172.321386489466,-10.0
14172.321448986679,-35.0
14172.321511483891,-40.0
14172.321573981104,-12.0
14172.321636478317,-18.0
14172.32169897553,-32.0
14172.321761472742,-7.0
14172.321823969953,21.0
14172.321886467165,6.0
14172.321948964378,-6.0
14172.32201146159,16.0
14172.322073958803,23.0
14172.322136456016,-10.0
14172.322198953229,11.0
14172.322261450441,12.0
14172.322323947654,-16.0
14172.322386444866,-4.0
14172.322448942079,3.0
14172.32251143929,-25.0
14172.322573936503,-49.0
14172.322636433715,-47.0
14172.322698930928,-61.0
14172.32276142814,-69.0
14172.322823925353,-75.0
14172.322886422566,-100.0
14172.322948919778,-101.0
14172.323011416991,-83.0
14172.323073914204,-41.0
14172.323136411416,-43.0
14172.323198908627,-12.0
14172.32326140584,10.0
14172.323323903052,-12.0
14172.323386400265,-18.0
14172.323448897478,-53.0
14172.32351139469,-46.0
14172.323573891903,-47.0
14172.323636389116,-72.0
14172.323698886328,-93.0
14172.32376138354,-126.0
14172.323823880753,-132.0
14172.323886377964,-121.0
14172.323948875177,-133.0
14172.32401137239,-103.0
14172.324073869602,-88.0
14172.324136366815,-154.0
14172.324198864027,-125.0
14172.32426136124,-122.0
14172.324323858453,-173.0
14172.324386355665,-109.0
14172.324448852878,-74.0
14172.32451135009,-72.0
14172.324573847302,-14.0
14172.324636344514,16.0
14172.324698841727,-15.0
14172.32476133894,-11.0
14172.324823836152,14.0
14172.324886333365,10.0
14172.324948830577,-18.0
14172.32501132779,-55.0
14172.325073825003,-75.0
14172.325136322215,-89.0
14172.325198819428,-41.0
14172.325261316639,-25.0
14172.325323813851,-43.0
14172.325386311064,2.0
14172.325448808277,0.0
14172.32551130549,5.0
14172.325573802702,28.0
14172.325636299915,12.0
14172.325698797127,25.0
14172.32576129434,21.0
14172.325823791552,-6.0
14172.325886288765,-15.0
14172.325948785976,-57.0
14172.326011283189,-105.0
14172.326073780401,-129.0
14172.326136277614,-173.0
14172.326198774826,-126.0
14172.32626127204,-92.0
14172.326323769252,-120.0
14172.326386266464,-101.0
14172.326448763677,-114.0
14172.32651126089,-84.0
14172.326573758102,-24.0
14172.326636255313,13.0
14172.326698752526,34.0
14172.326761249738,20.0
14172.326823746951,-2.0
14172.326886244164,-6.0
14172.326948741376,-15.0
14172.327011238589,-11.0
14172.327073735802,-5.0
14172.327136233014,-40.0
14172.327198730227,-29.0
14172.327261227438,-55.0
14172.32732372465,-100.0
14172.327386221863,-74.0
14172.327448719076,-75.0
14172.327511216288,-129.0
14172.3275737135,-164.0
14172.327636210714,-166.0
14172.327698707926,-188.0
14172.327761205139,-223.0
14172.327823702351,-243.0
14172.327886199564,-214.0
14172.327948696777,-215.0
14172.328011193988,-216.0
14172.3280736912,-219.0
14172.328136188413,-246.0
14172.328198685625,-168.0
14172.328261182838,-130.0
14172.32832368005,-138.0
14172.328386177263,-84.0
14172.328448674476,-60.0
14172.328511171689,-50.0
14172.328573668901,-45.0
14172.328636166112,-57.0
14172.328698663325,-72.0
14172.328761160537,-104.0
14172.32882365775,-78.0
14172.328886154963,-57.0
14172.328948652175,-77.0
14172.329011149388,-61.0
14172.3290736466,-88.0
14172.329136143813,-116.0
14172.329198641026,-88.0
14172.329261138239,-115.0
14172.329323635451,-148.0
14172.329386132662,-148.0
14172.329448629875,-170.0
14172.329511127087,-155.0
14172.3295736243,-125.0
14172.329636121513,-124.0
14172.329698618725,-123.0
14172.329761115938,-101.0
14172.32982361315,-94.0
14172.329886110363,-112.0
14172.329948607576,-72.0
14172.330011104787,-26.0
14172.330073602,-13.0
14172.330136099212,-4.0
14172.330198596424,12.0
14172.330261093637,56.0
14172.33032359085,33.0
14172.330386088062,12.0
14172.330448585275,46.0
14172.330511082488,30.0
14172.3305735797,8.0
14172.330636076913,9.0
14172.330698574126,40.0
14172.330761071336,10.0
14172.330823568549,-37.0
14172.330886065762,-29.0
14172.330948562974,-106.0
14172.331011060187,-122.0
14172.3310735574,-90.0
14172.331136054612,-158.0
14172.331198551825,-147.0
14172.331261049037,-149.0
14172.33132354625,-157.0
14172.331386043461,-170.0
14172.331448540674,-179.0
14172.331511037886,-118.0
14172.331573535099,-94.0
14172.331636032312,-63.0
14172.331698529524,-55.0
14172.331761026737,-88.0
14172.33182352395,-78.0
14172.331886021162,-30.0
14172.331948518375,-45.0
14172.332011015587,-79.0
14172.3320735128,-87.0
14172.33213601001,-121.0
14172.332198507223,-113.0
14172.332261004436,-77.0
14172.332323501649,-85.0
14172.332385998861,-123.0
14172.332448496074,-135.0
14172.332510993287,-162.0
14172.3325734905,-200.0
14172.332635987712,-231.0
14172.332698484925,-197.0
14172.332760982135,-152.0
14172.332823479348,-145.0
14172.33288597656,-130.0
14172.332948473773,-121.0
14172.333010970986,-139.0
14172.333073468199,-196.0
14172.333135965411,-248.0
14172.333198462624,-243.0
14172.333260959836,-246.0
14172.33332345705,-247.0
14172.333385954262,-189.0
14172.333448451474,-145.0
14172.333510948685,-132.0
14172.333573445898,-134.0
14172.33363594311,-141.0
14172.333698440323,-149.0
14172.333760937536,-132.0
14172.333823434748,-168.0
14172.333885931961,-191.0
14172.333948429174,-163.0
14172.334010926386,-166.0
14172.334073423599,-184.0
14172.33413592081,-190.0
14172.334198418022,-155.0
14172.334260915235,-170.0
14172.334323412448,-209.0
14172.33438590966,-250.0
14172.334448406873,-310.0
14172.334510904086,-324.0
14172.334573401298,-332.0
14172.33463589851,-370.0
14172.334698395724,-377.0
14172.334760892936,-364.0
14172.334823390147,-347.0
14172.33488588736,-353.0
14172.334948384572,-373.0
14172.335010881785,-390.0
14172.335073378998,-423.0
14172.33513587621,-430.0
14172.335198373423,-388.0
14172.335260870635,-410.0
14172.335323367848,-403.0
14172.33538586506,-322.0
14172.335448362273,-303.0
14172.335510859484,-302.0
14172.335573356697,-280.0
14172.33563585391,-252.0
14172.335698351122,-209.0
14172.335760848335,-166.0
14172.335823345547,-149.0
14172.33588584276,-149.0
14172.335948339973,-171.0
14172.336010837185,-185.0
14172.336073334398,-196.0
14172.33613583161,-233.0
14172.336198328821,-202.0
14172.336260826034,-226.0
14172.336323323247,-299.0
14172.33638582046,-304.0
14172.336448317672,-328.0
14172.336510814885,-355.0
14172.336573312097,-375.0
14172.33663580931,-387.0
14172.336698306523,-406.0
14172.336760803735,-390.0
14172.336823300948,-339.0
14172.336885798159,-296.0
14172.336948295371,-235.0
14172.337010792584,-216.0
14172.337073289797,-219.0
14172.33713578701,-229.0
14172.337198284222,-191.0
14172.337260781434,-159.0
14172.337323278647,-168.0
14172.33738577586,-146.0
14172.337448273072,-148.0
14172.337510770285,-155.0
14172.337573267496,-186.0
14172.337635764708,-221.0
14172.337698261921,-245.0
14172.337760759134,-286.0
14172.337823256346,-274.0
14172.337885753559,-264.0
14172.337948250772,-278.0
14172.338010747984,-265.0
14172.338073245197,-252.0
14172.33813574241,-277.0
14172.33819823962,-260.0
14172.338260736833,-241.0
14172.338323234046,-265.0
14172.338385731258,-248.0
14172.338448228471,-249.0
14172.338510725684,-254.0
14172.338573222896,-255.0
14172.338635720109,-262.0
14172.338698217322,-311.0
14172.338760714534,-394.0
14172.338823211747,-406.0
14172.33888570896,-397.0
14172.33894820617,-427.0
14172.339010703383,-417.0
14172.339073200596,-357.0
14172.339135697808,-323.0
14172.33919819502,-282.0
14172.339260692233,-249.0
14172.339323189446,-250.0
14172.339385686659,-277.0
14172.339448183871,-304.0
14172.339510681084,-296.0
14172.339573178295,-325.0
14172.339635675507,-370.0
14172.33969817272,-376.0
14172.339760669933,-390.0
14172.339823167145,-415.0
14172.339885664358,-414.0
14172.33994816157,-403.0
14172.340010658783,-418.0
14172.340073155996,-417.0
14172.340135653209,-424.0
14172.340198150421,-415.0
14172.340260647634,-389.0
14172.340323144845,-377.0
14172.340385642057,-368.0
14172.34044813927,-335.0
14172.340510636483,-311.0
14172.340573133695,-365.0
14172.340635630908,-381.0
14172.34069812812,-344.0
14172.340760625333,-307.0
14172.340823122546,-316.0
14172.340885619758,-299.0
14172.34094811697,-316.0
14172.341010614182,-407.0
14172.341073111395,-430.0
14172.341135608607,-467.0
14172.34119810582,-459.0
14172.341260603032,-437.0
14172.341323100245,-446.0
14172.341385597458,-435.0
14172.34144809467,-437.0
14172.341510591883,-419.0
14172.341573089096,-378.0
14172.341635586308,-395.0
14172.341698083519,-445.0
14172.341760580732,-465.0
14172.341823077944,-487.0
14172.341885575157,-471.0
14172.34194807237,-447.0
14172.342010569582,-439.0
14172.342073066795,-433.0
14172.342135564008,-432.0
14172.34219806122,-403.0
14172.342260558433,-440.0
14172.342323055644,-496.0
14172.342385552856,-496.0
14172.342448050069,-526.0
14172.342510547282,-511.0
14172.342573044494,-503.0
14172.342635541707,-504.0
14172.34269803892,-482.0
14172.342760536132,-460.0
14172.342823033345,-414.0
14172.342885530557,-387.0
14172.34294802777,-356.0
14172.343010524983,-347.0
14172.343073022193,-415.0
14172.343135519406,-470.0
14172.343198016619,-408.0
14172.343260513831,-416.0
14172.343323011044,-446.0
14172.343385508257,-374.0
14172.34344800547,-327.0
14172.343510502682,-295.0
14172.343572999895,-276.0
14172.343635497107,-325.0
14172.343697994318,-380.0
14172.34376049153,-393.0
14172.343822988743,-387.0
14172.343885485956,-390.0
14172.343947983169,-417.0
14172.344010480381,-406.0
14172.344072977594,-416.0
14172.344135474807,-484.0
14172.34419797202,-464.0
14172.344260469232,-483.0
14172.344322966444,-515.0
14172.344385463657,-496.0
14172.344447960868,-496.0
14172.34451045808,-493.0
14172.344572955293,-527.0
14172.344635452506,-516.0
14172.344697949718,-492.0
14172.344760446931,-480.0
14172.344822944144,-446.0
14172.344885441356,-408.0
14172.344947938569,-352.0
14172.345010435782,-326.0
14172.345072932992,-339.0
14172.345135430205,-367.0
14172.345197927418,-351.0
14172.34526042463,-371.0
14172.345322921843,-425.0
14172.345385419056,-457.0
14172.345447916268,-455.0
14172.345510413481,-475.0
14172.345572910694,-562.0
14172.345635407906,-596.0
14172.345697905119,-588.0
14172.34576040233,-568.0
14172.345822899542,-543.0
14172.345885396755,-536.0
14172.345947893968,-540.0
14172.34601039118,-550.0
14172.346072888393,-558.0
14172.346135385606,-565.0
14172.346197882818,-492.0
14172.34626038003,-445.0
14172.346322877243,-440.0
14172.346385374456,-404.0
14172.346447871667,-447.0
14172.34651036888,-488.0
14172.346572866092,-500.0
14172.346635363305,-533.0
14172.346697860517,-539.0
14172.34676035773,-531.0
14172.346822854943,-506.0
14172.346885352155,-463.0
14172.346947849368,-426.0
14172.34701034658,-423.0
14172.347072843793,-408.0
14172.347135341004,-394.0
14172.347197838217,-393.0
14172.34726033543,-430.0
14172.347322832642,-436.0
14172.347385329855,-422.0
14172.347447827067,-444.0
14172.34751032428,-429.0
14172.347572821493,-411.0
14172.347635318705,-450.0
14172.347697815918,-496.0
14172.34776031313,-504.0
14172.347822810341,-530.0
14172.347885307554,-551.0
14172.347947804767,-534.0
14172.34801030198,-530.0
14172.348072799192,-527.0
14172.348135296405,-508.0
14172.348197793617,-473.0
14172.34826029083,-488.0
14172.348322788042,-483.0
14172.348385285255,-474.0
14172.348447782468,-464.0
14172.348510279679,-438.0
14172.348572776891,-415.0
14172.348635274104,-401.0
14172.348697771316,-416.0
14172.348760268529,-442.0
14172.348822765742,-489.0
14172.348885262954,-506.0
14172.348947760167,-489.0
14172.34901025738,-466.0
14172.349072754592,-417.0
14172.349135251803,-442.0
14172.349197749016,-431.0
14172.349260246228,-400.0
14172.349322743441,-440.0
14172.349385240654,-460.0
14172.349447737866,-488.0
14172.349510235079,-501.0
14172.349572732292,-497.0
14172.349635229504,-511.0
14172.349697726717,-540.0
14172.34976022393,-501.0
14172.349822721142,-468.0
14172.349885218353,-482.0
14172.349947715566,-518.0
14172.350010212778,-578.0
14172.35007270999,-588.0
14172.350135207203,-620.0
14172.350197704416,-620.0
14172.350260201629,-604.0
14172.350322698841,-624.0
14172.350385196054,-618.0
14172.350447693267,-568.0
14172.350510190478,-518.0
14172.35057268769,-501.0
14172.350635184903,-488.0
14172.350697682115,-538.0
14172.350760179328,-565.0
14172.35082267654,-560.0
14172.350885173753,-559.0
14172.350947670966,-546.0
14172.351010168179,-546.0
14172.351072665391,-512.0
14172.351135162604,-507.0
14172.351197659817,-502.0
14172.351260157027,-526.0
14172.35132265424,-586.0
14172.351385151453,-622.0
14172.351447648665,-627.0
14172.351510145878,-610.0
14172.35157264309,-586.0
14172.351635140303,-564.0
14172.351697637516,-571.0
14172.351760134728,-551.0
14172.351822631941,-527.0
14172.351885129152,-494.0
14172.351947626365,-418.0
14172.352010123577,-376.0
14172.35207262079,-371.0
14172.352135118002,-411.0
14172.352197615215,-399.0
14172.352260112428,-374.0
14172.35232260964,-396.0
14172.352385106853,-375.0
14172.352447604066,-397.0
14172.352510101278,-467.0
14172.352572598491,-476.0
14172.352635095702,-502.0
14172.352697592914,-552.0
14172.352760090127,-548.0
14172.35282258734,-541.0
14172.352885084552,-527.0
14172.352947581765,-507.0
14172.353010078978,-520.0
14172.35307257619,-550.0
14172.353135073403,-556.0
14172.353197570616,-515.0
14172.353260067826,-530.0
14172.353322565039,-593.0
14172.353385062252,-600.0
14172.353447559464,-608.0
14172.353510056677,-647.0
14172.35357255389,-661.0
14172.353635051102,-629.0
14172.353697548315,-594.0
14172.353760045527,-546.0
14172.35382254274,-528.0
14172.353885039953,-553.0
14172.353947537165,-539.0
14172.354010034376,-562.0
14172.354072531589,-611.0
14172.354135028801,-614.0
14172.354197526014,-625.0
14172.354260023227,-678.0
14172.35432252044,-732.0
14172.354385017652,-756.0
14172.354447514865,-771.0
14172.354510012077,-784.0
14172.35457250929,-837.0
14172.3546350065,-862.0
14172.354697503713,-865.0
14172.354760000926,-892.0
14172.354822498139,-848.0
14172.354884995351,-812.0
14172.354947492564,-809.0
14172.355009989777,-802.0
14172.35507248699,-777.0
14172.355134984202,-770.0
14172.355197481415,-718.0
14172.355259978627,-650.0
14172.35532247584,-649.0
14172.35538497305,-679.0
14172.355447470263,-703.0
14172.355509967476,-677.0
14172.355572464689,-706.0
14172.355634961901,-753.0
14172.355697459114,-753.0
14172.355759956326,-736.0
14172.355822453539,-702.0
14172.355884950752,-714.0
14172.355947447964,-709.0
14172.356009945175,-690.0
14172.356072442388,-729.0
14172.3561349396,-818.0
14172.356197436813,-840.0
14172.356259934026,-883.0
14172.356322431238,-935.0
14172.356384928451,-914.0
14172.356447425664,-887.0
14172.356509922876,-839.0
14172.356572420089,-782.0
14172.356634917302,-736.0
14172.356697414512,-715.0
14172.356759911725,-748.0
14172.356822408938,-826.0
14172.35688490615,-851.0
14172.356947403363,-852.0
14172.357009900576,-839.0
14172.357072397788,-811.0
14172.357134895,-787.0
14172.357197392213,-702.0
14172.357259889426,-655.0
14172.357322386639,-689.0
14172.35738488385,-728.0
14172.357447381062,-695.0
14172.357509878275,-681.0
14172.357572375488,-730.0
14172.3576348727,-774.0
14172.357697369913,-773.0
14172.357759867125,-737.0
14172.357822364338,-737.0
14172.35788486155,-746.0
14172.357947358763,-740.0
14172.358009855976,-750.0
14172.358072353187,-794.0
14172.3581348504,-826.0
14172.358197347612,-823.0
14172.358259844825,-834.0
14172.358322342037,-858.0
14172.35838483925,-870.0
14172.358447336463,-814.0
14172.358509833675,-797.0
14172.358572330888,-856.0
14172.3586348281,-838.0
14172.358697325313,-820.0
14172.358759822524,-753.0
14172.358822319737,-665.0
14172.35888481695,-652.0
14172.358947314162,-610.0
14172.359009811375,-591.0
14172.359072308587,-645.0
14172.3591348058,-658.0
14172.359197303012,-552.0
14172.359259800225,-488.0
14172.359322297438,-485.0
14172.35938479465,-444.0
14172.359447291861,-475.0
14172.359509789074,-523.0
14172.359572286286,-523.0
14172.3596347835,-501.0
14172.359697280712,-504.0
14172.359759777924,-550.0
14172.359822275137,-555.0
14172.35988477235,-562.0
14172.359947269562,-548.0
14172.360009766775,-512.0
14172.360072263986,-551.0
14172.360134761198,-640.0
14172.360197258411,-613.0
14172.360259755624,-591.0
14172.360322252836,-589.0
14172.360384750049,-485.0
14172.360447247262,-460.0
14172.360509744474,-501.0
14172.360572241687,-486.0
14172.3606347389,-452.0
14172.360697236112,-439.0
14172.360759733325,-463.0
14172.360822230536,-448.0
14172.360884727748,-434.0
14172.360947224961,-460.0
14172.361009722174,-468.0
14172.361072219386,-528.0
14172.361134716599,-564.0
14172.361197213811,-500.0
14172.361259711024,-494.0
14172.361322208237,-532.0
14172.36138470545,-545.0
14172.36144720266,-585.0
14172.361509699873,-601.0
14172.361572197085,-579.0
14172.361634694298,-609.0
14172.36169719151,-643.0
14172.361759688723,-642.0
14172.361822185936,-608.0
14172.361884683149,-600.0
14172.361947180361,-594.0
14172.362009677574,-572.0
14172.362072174787,-583.0
14172.362134672,-610.0
14172.36219716921,-595.0
14172.362259666423,-599.0
14172.362322163635,-624.0
14172.362384660848,-608.0
14172.36244715806,-550.0
14172.362509655273,-531.0
14172.362572152486,-557.0
14172.362634649699,-559.0
14172.362697146911,-597.0
14172.362759644124,-620.0
14172.362822141335,-641.0
14172.362884638547,-691.0
14172.36294713576,-716.0
14172.363009632973,-770.0
14172.363072130185,-822.0
14172.363134627398,-826.0
14172.36319712461,-733.0
14172.363259621823,-666.0
14172.363322119036,-647.0
14172.363384616248,-605.0
14172.363447113461,-597.0
14172.363509610674,-585.0
14172.363572107884,-520.0
14172.363634605097,-491.0
14172.36369710231,-518.0
14172.363759599522,-543.0
14172.363822096735,-538.0
14172.363884593948,-531.0
14172.36394709116,-516.0
14172.364009588373,-447.0
14172.364072085586,-408.0
14172.364134582798,-435.0
14172.364197080009,-427.0
14172.364259577222,-451.0
14172.364322074434,-546.0
14172.364384571647,-536.0
14172.36444706886,-496.0
14172.364509566072,-456.0
14172.364572063285,-397.0
14172.364634560498,-431.0
14172.36469705771,-481.0
14172.364759554923,-518.0
14172.364822052135,-568.0
14172.364884549348,-625.0
14172.364947046559,-672.0
14172.365009543772,-685.0
14172.365072040984,-696.0
14172.365134538197,-734.0
14172.36519703541,-710.0
14172.365259532622,-681.0
14172.365322029835,-705.0
14172.365384527047,-714.0
14172.36544702426,-743.0
14172.365509521473,-730.0
14172.365572018683,-699.0
14172.365634515896,-732.0
14172.365697013109,-724.0
14172.365759510321,-683.0
14172.365822007534,-673.0
14172.365884504747,-604.0
14172.36594700196,-541.0
14172.366009499172,-526.0
14172.366071996385,-537.0
14172.366134493597,-537.0
14172.36619699081,-486.0
14172.366259488022,-462.0
14172.366321985233,-469.0
14172.366384482446,-484.0
14172.366446979659,-503.0
14172.366509476871,-547.0
14172.366571974084,-574.0
14172.366634471296,-594.0
14172.36669696851,-634.0
14172.366759465722,-617.0
14172.366821962934,-584.0
14172.366884460147,-550.0
14172.366946957358,-537.0
14172.36700945457,-532.0
14172.367071951783,-527.0
14172.367134448996,-529.0
14172.367196946208,-492.0
14172.367259443421,-524.0
14172.367321940634,-533.0
14172.367384437846,-518.0
14172.367446935059,-537.0
14172.367509432272,-548.0
14172.367571929484,-561.0
14172.367634426695,-578.0
14172.367696923908,-676.0
14172.36775942112,-714.0
14172.367821918333,-670.0
14172.367884415546,-641.0
14172.367946912758,-570.0
14172.36800940997,-524.0
14172.368071907184,-497.0
14172.368134404396,-425.0
14172.368196901609,-306.0
14172.368259398821,-249.0
14172.368321896032,-264.0
14172.368384393245,-312.0
14172.368446890458,-375.0
14172.36850938767,-384.0
14172.368571884883,-376.0
14172.368634382095,-400.0
14172.368696879308,-409.0
14172.36875937652,-444.0
14172.368821873733,-525.0
14172.368884370946,-527.0
14172.368946868159,-501.0
14172.36900936537,-546.0
14172.369071862582,-528.0
14172.369134359795,-542.0
14172.369196857007,-562.0
14172.36925935422,-529.0
14172.369321851433,-522.0
14172.369384348645,-526.0
14172.369446845858,-474.0
14172.36950934307,-405.0
14172.369571840283,-454.0
14172.369634337496,-519.0
14172.369696834707,-550.0
14172.36975933192,-565.0
14172.369821829132,-567.0
14172.369884326345,-612.0
14172.369946823557,-597.0
14172.37000932077,-569.0
14172.370071817983,-532.0
14172.370134315195,-507.0
14172.370196812408,-485.0
14172.37025930962,-460.0
14172.370321806833,-476.0
14172.370384304044,-535.0
14172.370446801257,-603.0
14172.37050929847,-581.0
14172.370571795682,-634.0
14172.370634292894,-654.0
14172.370696790107,-592.0
14172.37075928732,-577.0
14172.370821784532,-539.0
14172.370884281745,-482.0
14172.370946778958,-435.0
14172.371009276168,-369.0
14172.371071773381,-300.0
14172.371134270594,-348.0
14172.371196767806,-338.0
14172.371259265019,-346.0
14172.371321762232,-431.0
14172.371384259444,-455.0
14172.371446756657,-464.0
14172.37150925387,-463.0
14172.371571751082,-412.0
14172.371634248295,-287.0
14172.371696745508,-263.0
14172.371759242718,-316.0
14172.371821739931,-387.0
14172.371884237144,-457.0
14172.371946734356,-460.0
14172.372009231569,-383.0
14172.372071728782,-346.0
14172.372134225994,-370.0
14172.372196723207,-301.0
14172.37225922042,-295.0
14172.372321717632,-385.0
14172.372384214843,-426.0
14172.372446712056,-423.0
14172.372509209268,-448.0
14172.37257170648,-491.0
14172.372634203693,-477.0
14172.372696700906,-483.0
14172.372759198119,-525.0
14172.372821695331,-538.0
14172.372884192544,-551.0
14172.372946689757,-595.0
14172.37300918697,-639.0
14172.373071684182,-700.0
14172.373134181393,-746.0
14172.373196678605,-701.0
14172.373259175818,-621.0
14172.37332167303,-544.0
14172.373384170243,-482.0
14172.373446667456,-458.0
14172.373509164669,-455.0
14172.373571661881,-486.0
14172.373634159094,-495.0
14172.373696656306,-485.0
14172.373759153517,-501.0
14172.37382165073,-436.0
14172.373884147943,-399.0
14172.373946645155,-454.0
14172.374009142368,-466.0
14172.37407163958,-483.0
14172.374134136793,-552.0
14172.374196634006,-550.0
14172.374259131218,-502.0
14172.374321628431,-504.0
14172.374384125644,-518.0
14172.374446622856,-476.0
14172.374509120067,-466.0
14172.37457161728,-496.0
14172.374634114492,-478.0
14172.374696611705,-494.0
14172.374759108918,-485.0
14172.37482160613,-476.0
14172.374884103343,-469.0
14172.374946600556,-410.0
14172.375009097768,-344.0
14172.37507159498,-365.0
14172.375134092192,-410.0
14172.375196589404,-380.0
14172.375259086617,-392.0
14172.37532158383,-458.0
14172.375384081042,-503.0
14172.375446578255,-520.0
14172.375509075468,-546.0
14172.37557157268,-547.0
14172.375634069893,-518.0
14172.375696567105,-519.0
14172.375759064318,-543.0
14172.37582156153,-549.0
14172.375884058742,-504.0
14172.375946555954,-465.0
14172.376009053167,-463.0
14172.37607155038,-419.0
14172.376134047592,-409.0
14172.376196544805,-437.0
14172.376259042017,-473.0
14172.37632153923,-481.0
14172.376384036443,-485.0
14172.376446533655,-503.0
14172.376509030866,-446.0
14172.376571528079,-458.0
14172.376634025291,-522.0
14172.376696522504,-490.0
14172.376759019717,-453.0
14172.37682151693,-406.0
14172.376884014142,-381.0
14172.376946511355,-450.0
14172.377009008567,-480.0
14172.37707150578,-495.0
14172.377134002993,-545.0
14172.377196500205,-489.0
14172.377258997416,-434.0
14172.377321494629,-427.0
14172.377383991841,-464.0
14172.377446489054,-537.0
14172.377508986267,-574.0
14172.37757148348,-622.0
14172.377633980692,-614.0
14172.377696477904,-487.0
14172.377758975117,-409.0
14172.37782147233,-479.0
14172.37788396954,-522.0
14172.377946466753,-539.0
14172.378008963966,-609.0
14172.378071461178,-585.0
14172.378133958391,-504.0
14172.378196455604,-445.0
14172.378258952816,-393.0
14172.378321450029,-356.0
14172.378383947242,-314.0
14172.378446444454,-273.0
14172.378508941667,-219.0
14172.37857143888,-160.0
14172.37863393609,-214.0
14172.378696433303,-243.0
14172.378758930516,-100.0
14172.378821427728,10.0
14172.378883924941,10.0
14172.378946422154,-35.0
14172.379008919366,-61.0
14172.379071416579,-104.0
14172.379133913792,-205.0
14172.379196411004,-266.0
14172.379258908215,-326.0
14172.379321405428,-309.0
14172.37938390264,-216.0
14172.379446399853,-194.0
14172.379508897066,-200.0
14172.379571394278,-189.0
14172.37963389149,-205.0
14172.379696388703,-261.0
14172.379758885916,-250.0
14172.379821383129,-248.0
14172.379883880341,-289.0
14172.379946377552,-299.0
14172.380008874765,-261.0
14172.380071371977,-229.0
14172.38013386919,-203.0
14172.380196366403,-87.0
14172.380258863615,-95.0
14172.380321360828,-181.0
14172.38038385804,-188.0
14172.380446355253,-196.0
14172.380508852466,-159.0
14172.380571349679,-108.0
14172.38063384689,-82.0
14172.380696344102,-95.0
14172.380758841315,-78.0
14172.380821338527,-35.0
14172.38088383574,-16.0
14172.380946332953,57.0
14172.381008830165,92.0
14172.381071327378,70.0
14172.38113382459,82.0
14172.381196321803,109.0
14172.381258819016,73.0
14172.381321316227,48.0
14172.38138381344,31.0
14172.381446310652,-33.0
14172.381508807865,-65.0
14172.381571305077,-65.0
14172.38163380229,-109.0
14172.381696299502,-165.0
14172.381758796715,-113.0
14172.381821293928,-106.0
14172.38188379114,-138.0
14172.381946288353,-64.0
14172.382008785564,-67.0
14172.382071282776,-145.0
14172.382133779989,-134.0
14172.382196277202,-103.0
14172.382258774414,-105.0
14172.382321271627,-54.0
14172.38238376884,13.0
14172.382446266052,-15.0
14172.382508763265,-51.0
14172.382571260478,-84.0
14172.38263375769,-113.0
14172.382696254901,-79.0
14172.382758752114,-85.0
14172.382821249326,-28.0
14172.382883746539,-9.0
14172.382946243752,-69.0
14172.383008740964,-144.0
14172.383071238177,-261.0
14172.38313373539,-303.0
14172.383196232602,-311.0
14172.383258729815,-356.0
14172.383321227026,-356.0
14172.383383724238,-362.0
14172.38344622145,-359.0
14172.383508718664,-305.0
14172.383571215876,-247.0
14172.383633713089,-221.0
14172.383696210301,-234.0
14172.383758707514,-197.0
14172.383821204727,-174.0
14172.38388370194,-187.0
14172.383946199152,-133.0
14172.384008696365,-95.0
14172.384071193575,-87.0
14172.384133690788,-28.0
14172.384196188,44.0
14172.384258685213,17.0
14172.384321182426,-19.0
14172.384383679639,-23.0
14172.384446176851,-99.0
14172.384508674064,-146.0
14172.384571171277,-154.0
14172.38463366849,-191.0
14172.3846961657,-187.0
14172.384758662913,-186.0
14172.384821160125,-231.0
14172.384883657338,-269.0
14172.38494615455,-237.0
14172.385008651763,-199.0
14172.385071148976,-123.0
14172.385133646188,-65.0
14172.385196143401,-100.0
14172.385258640614,-76.0
14172.385321137826,-12.0
14172.385383635039,-67.0
14172.38544613225,-95.0
14172.385508629462,-30.0
14172.385571126675,-113.0
14172.385633623888,-214.0
14172.3856961211,-194.0
14172.385758618313,-179.0
14172.385821115526,-129.0
14172.385883612738,-32.0
14172.385946109951,90.0
14172.386008607164,162.0
14172.386071104374,180.0
14172.386133601587,213.0
14172.3861960988,235.0
14172.386258596012,237.0
14172.386321093225,199.0
14172.386383590438,126.0
14172.38644608765,58.0
14172.386508584863,-62.0
14172.386571082076,-130.0
14172.386633579288,-132.0
14172.3866960765,-152.0
14172.386758573713,-135.0
14172.386821070924,-149.0
14172.386883568137,-153.0
14172.38694606535,-211.0
14172.387008562562,-252.0
14172.387071059775,-140.0
14172.387133556987,-80.0
14172.3871960542,51.0
14172.387258551413,125.0
14172.387321048625,112.0
14172.387383545838,116.0
14172.387446043049,116.0
14172.387508540261,152.0
14172.387571037474,125.0
14172.387633534687,105.0
14172.3876960319,115.0
14172.387758529112,126.0
14172.387821026325,200.0
14172.387883523537,251.0
14172.38794602075,205.0
14172.388008517963,185.0
14172.388071015175,180.0
14172.388133512388,80.0
14172.388196009599,26.0
14172.388258506811,-23.0
14172.388321004024,-117.0
14172.388383501237,-120.0
14172.38844599845,-166.0
14172.388508495662,-177.0
14172.388570992875,-126.0
14172.388633490087,-184.0
14172.3886959873,-195.0
14172.388758484512,-192.0
14172.388820981723,-165.0
14172.388883478936,-119.0
14172.388945976149,-146.0
14172.389008473361,-89.0
14172.389070970574,8.0
14172.389133467786,28.0
14172.389195964999,78.0
14172.389258462212,107.0
14172.389320959424,106.0
14172.389383456637,148.0
14172.38944595385,159.0
14172.389508451062,109.0
14172.389570948273,82.0
14172.389633445486,62.0
14172.389695942698,-31.0
14172.389758439911,-91.0
14172.389820937124,-81.0
14172.389883434336,-135.0
14172.389945931549,-151.0
14172.390008428762,-77.0
14172.390070925974,-67.0
14172.390133423187,-157.0
14172.390195920398,-160.0
14172.39025841761,-70.0
14172.390320914823,-56.0
14172.390383412036,-72.0
14172.390445909248,-47.0
14172.39050840646,-55.0
14172.390570903674,-75.0
14172.390633400886,-29.0
14172.390695898099,57.0
14172.390758395311,137.0
14172.390820892524,163.0
14172.390883389735,174.0
14172.390945886948,130.0
14172.39100838416,64.0
14172.391070881373,111.0
14172.391133378585,161.0
14172.391195875798,190.0
14172.39125837301,255.0
14172.391320870223,282.0
14172.391383367436,255.0
14172.391445864649,219.0
14172.391508361861,263.0
14172.391570859072,274.0
14172.391633356285,239.0
14172.391695853497,292.0
14172.39175835071,250.0
14172.391820847923,169.0
14172.391883345135,192.0
14172.391945842348,238.0
14172.39200833956,276.0
14172.392070836773,291.0
14172.392133333986,288.0
14172.392195831198,335.0
14172.39225832841,370.0
14172.392320825622,404.0
14172.392383322835,437.0
14172.392445820047,395.0
14172.39250831726,405.0
14172.392570814472,487.0
14172.392633311685,550.0
14172.392695808898,538.0
14172.39275830611,569.0
14172.392820803323,605.0
14172.392883300536,566.0
14172.392945797747,546.0
14172.39300829496,523.0
14172.393070792172,484.0
14172.393133289384,359.0
14172.393195786597,285.0
14172.39325828381,252.0
14172.393320781022,206.0
14172.393383278235,203.0
14172.393445775448,177.0
14172.39350827266,154.0
14172.393570769873,173.0
14172.393633267084,190.0
14172.393695764296,165.0
14172.393758261509,161.0
14172.393820758722,180.0
14172.393883255934,162.0
14172.393945753147,103.0
14172.39400825036,106.0
14172.394070747572,142.0
14172.394133244785,142.0
14172.394195741997,244.0
14172.394258239208,318.0
14172.394320736421,255.0
14172.394383233634,206.0
14172.394445730846,184.0
14172.394508228059,185.0
14172.394570725271,142.0
14172.394633222484,122.0
14172.394695719697,198.0
14172.39475821691,258.0
14172.394820714122,297.0
14172.394883211335,340.0
14172.394945708547,300.0
14172.395008205758,152.0
14172.39507070297,19.0
14172.395133200183,-56.0
14172.395195697396,-89.0
14172.395258194609,-77.0
14172.395320691821,17.0
14172.395383189034,118.0
14172.395445686247,176.0
14172.39550818346,202.0
14172.395570680672,146.0
14172.395633177883,92.0
14172.395695675095,84.0
14172.395758172308,22.0
14172.39582066952,-17.0
14172.395883166733,-35.0
14172.395945663946,-89.0
14172.396008161159,-84.0
14172.396070658371,-63.0
14172.396133155584,-109.0
14172.396195652796,-152.0
14172.396258150009,-160.0
14172.396320647222,-207.0
14172.396383144433,-194.0
14172.396445641645,-133.0
14172.396508138858,-150.0
14172.39657063607,-160.0
14172.396633133283,-142.0
14172.396695630496,-227.0
14172.396758127708,-290.0
14172.396820624921,-217.0
14172.396883122134,-172.0
14172.396945619346,-97.0
14172.397008116557,3.0
14172.39707061377,53.0
14172.397133110982,34.0
14172.397195608195,98.0
14172.397258105408,162.0
14172.39732060262,34.0
14172.397383099833,-38.0
14172.397445597046,-55.0
14172.397508094258,-40.0
14172.39757059147,51.0
14172.397633088684,115.0
14172.397695585896,201.0
14172.397758083107,233.0
14172.39782058032,170.0
14172.397883077532,147.0
14172.397945574745,141.0
14172.398008071958,132.0
14172.39807056917,205.0
14172.398133066383,256.0
14172.398195563595,259.0
14172.398258060808,293.0
14172.39832055802,260.0
14172.398383055232,208.0
14172.398445552444,199.0
14172.398508049657,238.0
14172.39857054687,237.0
14172.398633044082,225.0
14172.398695541295,287.0
14172.398758038507,332.0
14172.39882053572,328.0
14172.398883032933,292.0
14172.398945530145,236.0
14172.399008027358,164.0
14172.39907052457,77.0
14172.399133021781,27.0
14172.399195518994,114.0
14172.399258016207,199.0
14172.39932051342,170.0
14172.399383010632,146.0
14172.399445507845,166.0
14172.399508005057,93.0
14172.39957050227,14.0
14172.399632999482,51.0
14172.399695496695,-19.0
14172.399757993906,-45.0
14172.399820491119,7.0
14172.399882988331,-44.0
14172.399945485544,-56.0
14172.400007982757,-39.0
14172.40007047997,-85.0
14172.400132977182,-175.0
14172.400195474394,-114.0
14172.400257971607,-62.0
14172.40032046882,-69.0
14172.400382966032,21.0
14172.400445463245,82.0
14172.400507960456,122.0
14172.400570457668,116.0
14172.400632954881,100.0
14172.400695452094,119.0
14172.400757949306,65.0
14172.400820446519,20.0
14172.400882943732,109.0
14172.400945440944,169.0
14172.401007938157,166.0
14172.40107043537,218.0
14172.40113293258,203.0
14172.401195429793,248.0
14172.401257927006,275.0
14172.401320424218,244.0
14172.401382921431,317.0
14172.401445418644,265.0
14172.401507915856,223.0
14172.401570413069,267.0
14172.401632910281,235.0
14172.401695407494,191.0
14172.401757904707,191.0
14172.401820401918,146.0
14172.40188289913,33.0
14172.401945396343,72.0
14172.402007893555,190.0
14172.402070390768,194.0
14172.40213288798,138.0
14172.402195385193,191.0
14172.402257882406,212.0
14172.402320379619,143.0
14172.402382876831,66.0
14172.402445374044,-21.0
14172.402507871255,11.0
14172.402570368467,29.0
14172.40263286568,18.0
14172.402695362893,-26.0
14172.402757860105,-69.0
14172.402820357318,-44.0
14172.40288285453,-38.0
14172.402945351743,-40.0
14172.403007848956,-7.0
14172.403070346169,67.0
14172.403132843381,34.0
14172.403195340592,38.0
14172.403257837805,33.0
14172.403320335017,-14.0
14172.40338283223,24.0
14172.403445329443,4.0
14172.403507826655,-4.0
14172.403570323868,-5.0
14172.40363282108,-46.0
14172.403695318293,-41.0
14172.403757815506,-10.0
14172.403820312718,42.0
14172.40388280993,64.0
14172.403945307142,2.0
14172.404007804354,-86.0
14172.404070301567,-98.0
14172.40413279878,-70.0
14172.404195295992,-56.0
14172.404257793205,-61.0
14172.404320290418,-14.0
14172.40438278763,9.0
14172.404445284843,-2.0
14172.404507782056,48.0
14172.404570279266,67.0
14172.404632776479,54.0
14172.404695273692,22.0
14172.404757770904,65.0
14172.404820268117,80.0
14172.40488276533,36.0
14172.404945262542,37.0
14172.405007759755,25.0
14172.405070256968,-15.0
14172.40513275418,-56.0
14172.405195251391,63.0
14172.405257748604,96.0
14172.405320245816,54.0
14172.405382743029,164.0
14172.405445240242,148.0
14172.405507737454,85.0
14172.405570234667,125.0
14172.40563273188,188.0
14172.405695229092,121.0
14172.405757726305,14.0
14172.405820223517,14.0
14172.40588272073,-6.0
14172.40594521794,-17.0
14172.406007715153,66.0
14172.406070212366,203.0
14172.406132709579,240.0
14172.406195206791,292.0
14172.406257704004,357.0
14172.406320201217,341.0
14172.40638269843,302.0
14172.406445195642,285.0
14172.406507692855,305.0
14172.406570190065,280.0
14172.406632687278,257.0
14172.40669518449,211.0
14172.406757681703,66.0
14172.406820178916,13.0
14172.406882676129,16.0
14172.406945173341,-59.0
14172.407007670554,-71.0
14172.407070167767,-19.0
14172.40713266498,5.0
14172.407195162192,44.0
14172.407257659404,80.0
14172.407320156615,66.0
14172.407382653828,85.0
14172.40744515104,136.0
14172.407507648253,108.0
14172.407570145466,75.0
14172.407632642678,158.0
14172.407695139891,228.0
14172.407757637104,220.0
14172.407820134316,229.0
14172.407882631529,279.0
14172.40794512874,195.0
14172.408007625952,121.0
14172.408070123165,109.0
14172.408132620378,54.0
14172.40819511759,87.0
14172.408257614803,108.0
14172.408320112016,34.0
14172.408382609228,-44.0
14172.408445106441,39.0
14172.408507603654,171.0
14172.408570100866,120.0
14172.408632598079,109.0
14172.40869509529,184.0
14172.408757592502,118.0
14172.408820089715,55.0
14172.408882586928,85.0
14172.40894508414,54.0
14172.409007581353,25.0
14172.409070078565,118.0
14172.409132575778,193.0
14172.40919507299,325.0
14172.409257570203,467.0
14172.409320067414,441.0
14172.409382564627,393.0
14172.40944506184,309.0
14172.409507559052,286.0
14172.409570056265,389.0
14172.409632553477,366.0
14172.40969505069,360.0
14172.409757547903,425.0
14172.409820045115,432.0
14172.409882542328,416.0
14172.40994503954,290.0
14172.410007536753,285.0
14172.410070033964,311.0
14172.410132531177,227.0
14172.41019502839,273.0
14172.410257525602,236.0
14172.410320022815,114.0
14172.410382520027,109.0
14172.41044501724,128.0
14172.410507514453,149.0
14172.410570011665,168.0
14172.410632508878,146.0
14172.410695006089,85.0
14172.410757503301,115.0
14172.410820000514,164.0
14172.410882497727,114.0
14172.41094499494,32.0
14172.411007492152,3.0
14172.411069989364,43.0
14172.411132486577,68.0
14172.41119498379,210.0
14172.411257481002,341.0
14172.411319978215,361.0
14172.411382475428,388.0
14172.411444972638,391.0
14172.411507469851,354.0
14172.411569967064,319.0
14172.411632464276,359.0
14172.411694961489,453.0
14172.411757458702,475.0
14172.411819955914,461.0
14172.411882453127,509.0
14172.41194495034,449.0
14172.412007447552,380.0
14172.412069944763,404.0
14172.412132441976,296.0
14172.412194939188,234.0
14172.412257436401,253.0
14172.412319933614,252.0
14172.412382430826,310.0
14172.412444928039,344.0
14172.412507425252,373.0
14172.412569922464,358.0
14172.412632419677,296.0
14172.41269491689,312.0
14172.4127574141,417.0
14172.412819911313,498.0
14172.412882408526,607.0
14172.412944905738,699.0
14172.41300740295,669.0
14172.413069900163,642.0
14172.413132397376,566.0
14172.413194894589,459.0
14172.413257391801,302.0
14172.413319889014,148.0
14172.413382386227,139.0
14172.413444883437,221.0
14172.41350738065,315.0
14172.413569877863,295.0
14172.413632375075,258.0
14172.413694872288,283.0
14172.4137573695,203.0
14172.413819866713,137.0
14172.413882363926,112.0
14172.413944861139,67.0
14172.414007358351,124.0
14172.414069855564,257.0
14172.414132352775,355.0
14172.414194849987,453.0
14172.4142573472,521.0
14172.414319844413,465.0
14172.414382341625,352.0
14172.414444838838,240.0
14172.41450733605,118.0
14172.414569833263,37.0
14172.414632330476,-34.0
14172.414694827688,-145.0
14172.414757324901,-178.0
14172.414819822112,-80.0
14172.414882319325,-40.0
14172.414944816537,-105.0
14172.41500731375,-125.0
14172.415069810962,-109.0
14172.415132308175,-98.0
14172.415194805388,-43.0
14172.4152573026,-34.0
14172.415319799813,-70.0
14172.415382297026,-84.0
14172.415444794238,-174.0
14172.41550729145,-274.0
14172.415569788662,-241.0
14172.415632285874,-133.0
14172.415694783087,5.0
14172.4157572803,142.0
14172.415819777512,253.0
14172.415882274725,293.0
14172.415944771938,239.0
14172.41600726915,211.0
14172.416069766363,197.0
14172.416132263574,99.0
14172.416194760786,119.0
14172.416257257999,183.0
14172.416319755212,289.0
14172.416382252424,370.0
14172.416444749637,389.0
14172.41650724685,432.0
14172.416569744062,420.0
14172.416632241275,336.0
14172.416694738487,237.0
14172.4167572357,231.0
14172.416819732913,288.0
14172.416882230124,372.0
14172.416944727336,442.0
14172.417007224549,478.0
14172.417069721761,520.0
14172.417132218974,567.0
14172.417194716187,671.0
14172.4172572134,740.0
14172.417319710612,702.0
14172.417382207825,640.0
14172.417444705037,583.0
14172.417507202248,530.0
14172.41756969946,454.0
14172.417632196673,447.0
14172.417694693886,438.0
14172.417757191099,249.0
14172.417819688311,134.0
14172.417882185524,150.0
14172.417944682737,162.0
14172.41800717995,220.0
14172.418069677162,269.0
14172.418132174374,239.0
14172.418194671587,163.0
14172.418257168798,90.0
14172.41831966601,78.0
14172.418382163223,124.0
14172.418444660436,215.0
14172.418507157648,281.0
14172.418569654861,331.0
14172.418632152074,331.0
14172.418694649286,290.0
14172.418757146499,316.0
14172.418819643712,300.0
14172.418882140923,346.0
14172.418944638135,387.0
14172.419007135348,433.0
14172.41906963256,508.0
14172.419132129773,473.0
14172.419194626986,587.0
14172.419257124198,683.0
14172.419319621411,672.0
14172.419382118624,700.0
14172.419444615836,645.0
14172.419507113049,519.0
14172.419569610262,341.0
14172.419632107472,229.0
14172.419694604685,224.0
14172.419757101898,168.0
14172.41981959911,128.0
14172.419882096323,180.0
14172.419944593536,234.0
14172.420007090748,269.0
14172.42006958796,368.0
14172.420132085173,395.0
14172.420194582386,478.0
14172.420257079597,592.0
14172.42031957681,537.0
14172.420382074022,476.0
14172.420444571235,432.0
14172.420507068447,425.0
14172.42056956566,395.0
14172.420632062873,369.0
14172.420694560085,399.0
14172.420757057298,422.0
14172.42081955451,360.0
14172.420882051723,329.0
14172.420944548936,323.0
14172.421007046147,268.0
14172.42106954336,286.0
14172.421132040572,338.0
14172.421194537785,384.0
14172.421257034997,390.0
14172.42131953221,433.0
14172.421382029423,466.0
14172.421444526635,389.0
14172.421507023848,413.0
14172.42156952106,405.0
14172.421632018271,312.0
14172.421694515484,354.0
14172.421757012697,307.0
14172.42181950991,132.0
14172.421882007122,60.0
14172.421944504335,87.0
14172.422007001547,152.0
14172.42206949876,205.0
14172.422131995972,205.0
14172.422194493185,278.0
14172.422256990398,347.0
14172.42231948761,281.0
14172.422381984821,264.0
14172.422444482034,284.0
14172.422506979246,284.0
14172.42256947646,308.0
14172.422631973672,369.0
14172.422694470884,385.0
14172.422756968097,366.0
14172.42281946531,402.0
14172.422881962522,436.0
14172.422944459735,471.0
14172.423006956946,548.0
14172.423069454158,573.0
14172.423131951371,531.0
14172.423194448584,553.0
14172.423256945796,570.0
14172.423319443009,487.0
14172.423381940222,375.0
14172.423444437434,375.0
14172.423506934647,474.0
14172.42356943186,457.0
14172.423631929072,385.0
14172.423694426283,374.0
14172.423756923496,319.0
14172.423819420708,286.0
14172.42388191792,396.0
14172.423944415134,434.0
14172.424006912346,355.0
14172.424069409559,316.0
14172.424131906771,244.0
14172.424194403984,191.0
14172.424256901197,183.0
14172.42431939841,229.0
14172.42438189562,250.0
14172.424444392833,238.0
14172.424506890045,297.0
14172.424569387258,327.0
14172.42463188447,306.0
14172.424694381683,279.0
14172.424756878896,288.0
14172.424819376109,262.0
14172.424881873321,295.0
14172.424944370534,427.0
14172.425006867747,497.0
14172.425069364957,502.0
14172.42513186217,413.0
14172.425194359383,457.0
14172.425256856595,474.0
14172.425319353808,330.0
14172.42538185102,347.0
14172.425444348233,390.0
14172.425506845446,382.0
14172.425569342658,373.0
14172.425631839871,369.0
14172.425694337084,381.0
14172.425756834295,394.0
14172.425819331507,411.0
14172.42588182872,432.0
14172.425944325933,546.0
14172.426006823145,616.0
14172.426069320358,596.0
14172.42613181757,540.0
14172.426194314783,565.0
14172.426256811996,551.0
14172.426319309208,436.0
14172.426381806421,418.0
14172.426444303632,365.0
14172.426506800844,348.0
14172.426569298057,388.0
14172.42663179527,441.0
14172.426694292482,489.0
14172.426756789695,450.0
14172.426819286908,397.0
14172.42688178412,333.0
14172.426944281333,327.0
14172.427006778546,442.0
14172.427069275758,541.0
14172.427131772969,557.0
14172.427194270182,592.0
14172.427256767394,579.0
14172.427319264607,487.0
14172.42738176182,508.0
14172.427444259032,507.0
14172.427506756245,424.0
14172.427569253457,426.0
14172.42763175067,402.0
14172.427694247883,324.0
14172.427756745095,311.0
14172.427819242306,325.0
14172.427881739519,232.0
14172.427944236731,151.0
14172.428006733944,206.0
14172.428069231157,312.0
14172.42813172837,383.0
14172.428194225582,538.0
14172.428256722795,600.0
14172.428319220007,526.0
14172.42838171722,497.0
14172.42844421443,451.0
14172.428506711643,342.0
14172.428569208856,243.0
14172.428631706069,320.0
14172.428694203281,397.0
14172.428756700494,325.0
14172.428819197707,341.0
14172.42888169492,376.0
14172.428944192132,238.0
14172.429006689345,176.0
14172.429069186557,200.0
14172.42913168377,208.0
14172.42919418098,274.0
14172.429256678193,379.0
14172.429319175406,401.0
14172.429381672619,317.0
14172.429444169831,307.0
14172.429506667044,284.0
14172.429569164256,221.0
14172.42963166147,275.0
14172.429694158682,423.0
14172.429756655894,550.0
14172.429819153105,554.0
14172.429881650318,513.0
14172.42994414753,470.0
14172.430006644743,419.0
14172.430069141956,411.0
14172.430131639168,411.0
14172.430194136381,479.0
14172.430256633594,536.0
14172.430319130806,575.0
14172.430381628019,702.0
14172.430444125232,728.0
14172.430506622444,700.0
14172.430569119655,645.0
14172.430631616868,601.0
14172.43069411408,574.0
14172.430756611293,520.0
14172.430819108506,485.0
14172.430881605718,487.0
14172.43094410293,549.0
14172.431006600144,540.0
14172.431069097356,457.0
14172.431131594569,402.0
14172.43119409178,377.0
14172.431256588992,297.0
14172.431319086205,336.0
14172.431381583418,427.0
14172.43144408063,470.0
14172.431506577843,477.0
14172.431569075055,372.0
14172.431631572268,369.0
14172.43169406948,410.0
14172.431756566693,416.0
14172.431819063906,470.0
14172.431881561119,528.0
14172.43194405833,511.0
14172.432006555542,471.0
14172.432069052755,441.0
14172.432131549967,412.0
14172.43219404718,398.0
14172.432256544393,357.0
14172.432319041605,225.0
14172.432381538818,45.0
14172.43244403603,-12.0
14172.432506533243,54.0
14172.432569030454,97.0
14172.432631527667,108.0
14172.43269402488,107.0
14172.432756522092,135.0
14172.432819019305,134.0
14172.432881516517,199.0
14172.43294401373,290.0
14172.433006510943,278.0
14172.433069008155,223.0
14172.433131505368,197.0
14172.43319400258,257.0
14172.433256499793,379.0
14172.433318997004,487.0
14172.433381494217,484.0
14172.43344399143,422.0
14172.433506488642,426.0
14172.433568985854,432.0
14172.433631483067,321.0
14172.43369398028,210.0
14172.433756477492,146.0
14172.433818974705,20.0
14172.433881471918,-13.0
14172.433943969128,67.0
14172.434006466341,154.0
14172.434068963554,258.0
14172.434131460766,286.0
14172.434193957979,335.0
14172.434256455192,262.0
14172.434318952404,101.0
14172.434381449617,92.0
14172.43444394683,49.0
14172.434506444042,15.0
14172.434568941255,136.0
14172.434631438467,160.0
14172.434693935678,176.0
14172.434756432891,328.0
14172.434818930104,418.0
14172.434881427316,448.0
14172.434943924529,405.0
14172.435006421741,409.0
14172.435068918954,425.0
14172.435131416167,338.0
14172.43519391338,312.0
14172.435256410592,319.0
14172.435318907803,313.0
14172.435381405016,367.0
14172.435443902228,347.0
14172.43550639944,318.0
14172.435568896653,248.0
14172.435631393866,120.0
14172.435693891079,93.0
14172.435756388291,106.0
14172.435818885504,151.0
14172.435881382717,247.0
14172.43594387993,264.0
14172.43600637714,226.0
14172.436068874353,246.0
14172.436131371565,236.0
14172.436193868778,308.0
14172.43625636599,373.0
14172.436318863203,355.0
14172.436381360416,405.0
14172.436443857629,442.0
14172.436506354841,405.0
14172.436568852054,458.0
14172.436631349266,521.0
14172.436693846477,473.0
14172.43675634369,488.0
14172.436818840903,484.0
14172.436881338115,469.0
14172.436943835328,463.0
14172.43700633254,488.0
14172.437068829753,509.0
14172.437131326966,464.0
14172.437193824178,524.0
14172.437256321391,570.0
14172.437318818604,475.0
14172.437381315814,338.0
14172.437443813027,277.0
14172.43750631024,276.0
14172.437568807452,244.0
14172.437631304665,287.0
14172.437693801878,339.0
14172.43775629909,217.0
14172.437818796303,85.0
14172.437881293516,158.0
14172.437943790728,178.0
14172.43800628794,70.0
14172.438068785152,119.0
14172.438131282364,186.0
14172.438193779577,225.0
14172.43825627679,335.0
14172.438318774002,408.0
14172.438381271215,412.0
14172.438443768428,449.0
14172.43850626564,507.0
14172.438568762853,449.0
14172.438631260065,324.0
14172.438693757278,248.0
14172.438756254489,220.0
14172.438818751702,141.0
14172.438881248914,63.0
14172.438943746127,-14.0
14172.43900624334,-129.0
14172.439068740552,-300.0
14172.439131237765,-368.0
14172.439193734977,-278.0
14172.43925623219,-253.0
14172.439318729403,-214.0
14172.439381226613,-126.0
14172.439443723826,-48.0
14172.439506221039,2.0
14172.439568718251,103.0
14172.439631215464,213.0
14172.439693712677,288.0
14172.43975620989,407.0
14172.439818707102,520.0
14172.439881204315,492.0
14172.439943701527,452.0
14172.44000619874,435.0
14172.440068695953,366.0
14172.440131193163,300.0
14172.440193690376,382.0
14172.440256187589,447.0
14172.440318684801,393.0
14172.440381182014,424.0
14172.440443679227,417.0
14172.44050617644,438.0
14172.440568673652,578.0
14172.440631170864,612.0
14172.440693668077,561.0
14172.440756165288,501.0
14172.4408186625,451.0
14172.440881159713,376.0
14172.440943656926,369.0
14172.441006154138,521.0
14172.441068651351,596.0
14172.441131148564,607.0
14172.441193645776,645.0
14172.441256142989,601.0
14172.441318640202,546.0
14172.441381137414,465.0
14172.441443634627,343.0
14172.441506131838,254.0
14172.44156862905,114.0
14172.441631126263,71.0
14172.441693623476,201.0
14172.441756120688,299.0
14172.441818617901,361.0
14172.441881115114,435.0
14172.441943612326,430.0
14172.442006109539,433.0
14172.442068606751,401.0
14172.442131103962,279.0
14172.442193601175,226.0
14172.442256098388,225.0
14172.4423185956,231.0
14172.442381092813,243.0
14172.442443590026,232.0
14172.442506087238,134.0
14172.44256858445,88.0
14172.442631081663,169.0
14172.442693578876,195.0
14172.442756076089,138.0
14172.442818573301,145.0
14172.442881070512,158.0
14172.442943567725,22.0
14172.443006064937,-61.0
14172.44306856215,-16.0
14172.443131059363,-15.0
14172.443193556575,98.0
14172.443256053788,271.0
14172.443318551,283.0
14172.443381048213,185.0
14172.443443545426,191.0
14172.443506042637,255.0
14172.44356853985,245.0
14172.443631037062,346.0
14172.443693534275,613.0
14172.443756031487,656.0
14172.4438185287,489.0
14172.443881025913,462.0
14172.443943523125,462.0
14172.444006020338,395.0
14172.44406851755,392.0
14172.444131014763,412.0
14172.444193511976,420.0
14172.444256009187,418.0
14172.4443185064,425.0
14172.444381003612,366.0
14172.444443500824,325.0
14172.444505998037,492.0
14172.44456849525,457.0
14172.444630992462,287.0
14172.444693489675,344.0
14172.444755986888,343.0
14172.4448184841,282.0
14172.444880981311,339.0
14172.444943478524,418.0
14172.445005975736,394.0
14172.445068472949,374.0
14172.445130970162,378.0
14172.445193467374,275.0
14172.445255964587,158.0
14172.4453184618,136.0
14172.445380959012,63.0
14172.445443456225,-50.0
14172.445505953438,32.0
14172.44556845065,39.0
14172.445630947861,-48.0
14172.445693445074,8.0
14172.445755942286,51.0
14172.445818439499,99.0
14172.445880936712,117.0
14172.445943433924,172.0
14172.446005931137,300.0
14172.44606842835,344.0
14172.446130925562,294.0
14172.446193422775,345.0
14172.446255919986,463.0
14172.446318417198,427.0
14172.44638091441,378.0
14172.446443411623,371.0
14172.446505908836,329.0
14172.446568406049,388.0
14172.446630903261,417.0
14172.446693400474,290.0
14172.446755897687,202.0
14172.4468183949,247.0
14172.446880892112,236.0
14172.446943389323,135.0
14172.447005886535,138.0
14172.447068383748,154.0
14172.44713088096,252.0
14172.447193378173,344.0
14172.447255875386,282.0
14172.447318372599,320.0
14172.447380869811,344.0
14172.447443367024,224.0
14172.447505864237,180.0
14172.44756836145,191.0
14172.44763085866,109.0
14172.447693355873,91.0
14172.447755853085,82.0
14172.447818350298,17.0
14172.44788084751,72.0
14172.447943344723,91.0
14172.448005841936,20.0
14172.448068339148,-25.0
14172.448130836361,-71.0
14172.448193333574,48.0
14172.448255830786,188.0
14172.448318327997,179.0
14172.44838082521,85.0
14172.448443322422,57.0
14172.448505819635,126.0
14172.448568316848,164.0
14172.44863081406,255.0
14172.448693311273,257.0
14172.448755808486,223.0
14172.448818305698,282.0
14172.448880802911,266.0
14172.448943300124,167.0
14172.449005797334,68.0
14172.449068294547,-11.0
14172.44913079176,-40.0
14172.449193288972,43.0
14172.449255786185,83.0
14172.449318283398,136.0
14172.44938078061,197.0
14172.449443277823,199.0
14172.449505775036,153.0
14172.449568272248,188.0
14172.44963076946,287.0
14172.449693266672,219.0
14172.449755763884,221.0
14172.449818261097,234.0
14172.44988075831,245.0
14172.449943255522,298.0
14172.450005752735,332.0
14172.450068249947,352.0
14172.45013074716,300.0
14172.450193244373,378.0
14172.450255741585,433.0
14172.450318238796,378.0
14172.450380736009,429.0
14172.450443233221,370.0
14172.450505730434,284.0
14172.450568227647,297.0
14172.45063072486,246.0
14172.450693222072,213.0
14172.450755719285,179.0
14172.450818216497,268.0
14172.45088071371,389.0
14172.450943210923,355.0
14172.451005708135,383.0
14172.451068205346,418.0
14172.451130702559,408.0
14172.451193199771,378.0
14172.451255696984,456.0
14172.451318194197,517.0
14172.45138069141,367.0
14172.451443188622,393.0
14172.451505685834,526.0
14172.451568183047,515.0
14172.45163068026,503.0
14172.45169317747,579.0
14172.451755674683,543.0
14172.451818171896,382.0
14172.451880669109,319.0
14172.451943166321,244.0
14172.452005663534,167.0
14172.452068160746,276.0
14172.452130657959,473.0
14172.452193155172,632.0
14172.452255652384,679.0
14172.452318149597,719.0
14172.45238064681,634.0
14172.45244314402,430.0
14172.452505641233,422.0
14172.452568138446,541.0
14172.452630635658,567.0
14172.452693132871,594.0
14172.452755630084,681.0
14172.452818127296,544.0
14172.452880624509,553.0
14172.452943121722,774.0
14172.453005618934,814.0
14172.453068116145,768.0
14172.453130613358,666.0
14172.45319311057,627.0
14172.453255607783,466.0
14172.453318104996,363.0
14172.453380602208,479.0
14172.45344309942,426.0
14172.453505596633,318.0
14172.453568093846,375.0
14172.453630591059,493.0
14172.453693088271,470.0
14172.453755585484,503.0
14172.453818082695,527.0
14172.453880579907,426.0
14172.45394307712,361.0
14172.454005574333,362.0
14172.454068071545,316.0
14172.454130568758,266.0
14172.45419306597,360.0
14172.454255563183,309.0
14172.454318060396,213.0
14172.454380557609,310.0
14172.45444305482,319.0
14172.454505552032,273.0
14172.454568049245,284.0
14172.454630546457,234.0
14172.45469304367,221.0
14172.454755540883,250.0
14172.454818038095,180.0
14172.454880535308,152.0
14172.45494303252,203.0
14172.455005529733,226.0
14172.455068026946,298.0
14172.455130524158,304.0
14172.45519302137,340.0
14172.455255518582,383.0
14172.455318015795,293.0
14172.455380513007,270.0
14172.45544301022,273.0
14172.455505507432,296.0
14172.455568004645,366.0
14172.455630501858,347.0
14172.45569299907,327.0
14172.455755496283,295.0
14172.455817993494,306.0
14172.455880490706,384.0
14172.45594298792,396.0
14172.456005485132,396.0
14172.456067982344,353.0
14172.456130479557,314.0
14172.45619297677,365.0
14172.456255473982,273.0
14172.456317971195,239.0
14172.456380468408,333.0
14172.45644296562,359.0
14172.456505462833,337.0
14172.456567960044,327.0
14172.456630457256,268.0
14172.456692954469,215.0
14172.456755451682,253.0
14172.456817948894,243.0
14172.456880446107,225.0
14172.45694294332,230.0
14172.457005440532,159.0
14172.457067937745,60.0
14172.457130434957,148.0
14172.457192932168,268.0
14172.45725542938,335.0
14172.457317926594,515.0
14172.457380423806,535.0
14172.457442921019,513.0
14172.457505418231,528.0
14172.457567915444,473.0
14172.457630412657,454.0
14172.45769290987,469.0
14172.457755407082,482.0
14172.457817904295,430.0
14172.457880401505,447.0
14172.457942898718,411.0
14172.45800539593,318.0
14172.458067893143,385.0
14172.458130390356,418.0
14172.458192887569,407.0
14172.458255384781,383.0
14172.458317881994,367.0
14172.458380379207,265.0
14172.45844287642,173.0
14172.458505373632,181.0
14172.458567870843,72.0
14172.458630368055,6.0
14172.458692865268,51.0
14172.45875536248,55.0
14172.458817859693,94.0
14172.458880356906,268.0
14172.458942854119,437.0
14172.459005351331,548.0
14172.459067848544,500.0
14172.459130345756,294.0
14172.459192842969,232.0
14172.45925534018,180.0
14172.459317837393,104.0
14172.459380334605,138.0
14172.459442831818,236.0
14172.45950532903,329.0
14172.459567826243,258.0
14172.459630323456,176.0
14172.459692820668,129.0
14172.459755317881,90.0
14172.459817815094,137.0
14172.459880312306,164.0
14172.459942809517,117.0
14172.46000530673,136.0
14172.460067803942,258.0
14172.460130301155,194.0
14172.460192798368,103.0
14172.46025529558,143.0
14172.460317792793,60.0
14172.460380290006,-8.0
14172.460442787218,17.0
14172.46050528443,-1.0
14172.460567781643,-18.0
14172.460630278854,6.0
14172.460692776067,79.0
14172.46075527328,68.0
14172.460817770492,-88.0
14172.460880267705,-139.0
14172.460942764917,-158.0
14172.46100526213,-167.0
14172.461067759343,-126.0
14172.461130256555,-85.0
14172.461192753768,47.0
14172.461255250979,251.0
14172.461317748192,354.0
14172.461380245404,300.0
14172.461442742617,254.0
14172.46150523983,149.0
14172.461567737042,-23.0
14172.461630234255,-118.0
14172.461692731467,-87.0
14172.46175522868,43.0
14172.461817725893,169.0
14172.461880223105,274.0
14172.461942720318,198.0
14172.462005217529,52.0
14172.462067714741,12.0
14172.462130211954,-89.0
14172.462192709167,1.0
14172.46225520638,169.0
14172.462317703592,250.0
14172.462380200805,308.0
14172.462442698017,181.0
14172.46250519523,99.0
14172.462567692442,102.0
14172.462630189653,63.0
14172.462692686866,77.0
14172.462755184079,43.0
14172.462817681291,-99.0
14172.462880178504,-96.0
14172.462942675716,-49.0
14172.46300517293,-35.0
14172.463067670142,62.0
14172.463130167354,86.0
14172.463192664567,53.0
14172.46325516178,-23.0
14172.463317658992,-33.0
14172.463380156203,73.0
14172.463442653416,98.0
14172.463505150628,71.0
14172.463567647841,35.0
14172.463630145054,-43.0
14172.463692642266,-47.0
14172.463755139479,56.0
14172.463817636692,67.0
14172.463880133904,50.0
14172.463942631117,81.0
14172.464005128328,194.0
14172.46406762554,350.0
14172.464130122753,292.0
14172.464192619966,269.0
14172.464255117178,328.0
14172.46431761439,200.0
14172.464380111604,140.0
14172.464442608816,101.0
14172.464505106029,83.0
14172.464567603241,185.0
14172.464630100454,222.0
14172.464692597667,145.0
14172.464755094878,142.0
14172.46481759209,344.0
14172.464880089303,420.0
14172.464942586515,421.0
14172.465005083728,565.0
14172.46506758094,566.0
14172.465130078153,460.0
14172.465192575366,483.0
14172.465255072579,487.0
14172.465317569791,461.0
14172.465380067002,426.0
14172.465442564215,302.0
14172.465505061427,329.0
14172.46556755864,345.0
14172.465630055853,335.0
14172.465692553065,374.0
14172.465755050278,436.0
14172.46581754749,512.0
14172.465880044703,448.0
14172.465942541916,364.0
14172.466005039129,244.0
14172.466067536341,82.0
14172.466130033552,-42.0
14172.466192530765,-85.0
14172.466255027977,-154.0
14172.46631752519,-149.0
14172.466380022403,16.0
14172.466442519615,39.0
14172.466505016828,-13.0
14172.46656751404,-8.0
14172.466630011253,-24.0
14172.466692508466,-74.0
14172.466755005677,-164.0
14172.46681750289,-236.0
14172.466880000102,-258.0
14172.466942497314,-281.0
14172.467004994527,-283.0
14172.46706749174,-196.0
14172.467129988952,-136.0
14172.467192486165,-53.0
14172.467254983378,94.0
14172.46731748059,140.0
14172.467379977803,129.0
14172.467442475016,119.0
14172.467504972226,33.0
14172.467567469439,-128.0
14172.467629966652,-204.0
14172.467692463864,-284.0
14172.467754961077,-299.0
14172.46781745829,-219.0
14172.467879955502,-148.0
14172.467942452715,-40.0
14172.468004949927,44.0
14172.46806744714,97.0
14172.468129944351,45.0
14172.468192441564,30.0
14172.468254938776,21.0
14172.468317435989,-33.0
14172.468379933202,-10.0
14172.468442430414,-7.0
14172.468504927627,17.0
14172.46856742484,98.0
14172.468629922052,211.0
14172.468692419265,257.0
14172.468754916477,246.0
14172.468817413688,212.0
14172.4688799109,172.0
14172.468942408113,175.0
14172.469004905326,121.0
14172.469067402539,64.0
14172.469129899751,38.0
14172.469192396964,46.0
14172.469254894177,87.0
14172.46931739139,99.0
14172.469379888602,106.0
14172.469442385815,75.0
14172.469504883025,85.0
14172.469567380238,164.0
14172.46962987745,169.0
14172.469692374663,94.0
14172.469754871876,29.0
14172.469817369089,91.0
14172.469879866301,157.0
14172.469942363514,166.0
14172.470004860726,229.0
14172.47006735794,133.0
14172.470129855152,-28.0
14172.470192352363,58.0
14172.470254849575,79.0
14172.470317346788,-79.0
14172.470379844,-62.0
14172.470442341213,92.0
14172.470504838426,154.0
14172.470567335638,195.0
14172.470629832851,225.0
14172.470692330064,140.0
14172.470754827276,191.0
14172.470817324489,325.0
14172.4708798217,294.0
14172.470942318912,329.0
14172.471004816125,488.0
14172.471067313338,501.0
14172.47112981055,368.0
14172.471192307763,443.0
14172.471254804976,500.0
14172.471317302188,364.0
14172.4713797994,411.0
14172.471442296614,442.0
14172.471504793826,321.0
14172.471567291037,275.0
14172.47162978825,273.0
14172.471692285462,126.0
14172.471754782675,0.0
14172.471817279888,146.0
14172.4718797771,243.0
14172.471942274313,291.0
14172.472004771525,413.0
14172.472067268738,391.0
14172.47212976595,162.0
14172.472192263162,93.0
14172.472254760374,144.0
14172.472317257587,71.0
14172.4723797548,93.0
14172.472442252012,198.0
14172.472504749225,208.0
14172.472567246437,258.0
14172.47262974365,366.0
14172.472692240863,287.0
14172.472754738075,213.0
14172.472817235288,234.0
14172.4728797325,293.0
14172.472942229711,418.0
14172.473004726924,602.0
14172.473067224137,786.0
14172.47312972135,806.0
14172.473192218562,874.0
14172.473254715775,885.0
14172.473317212987,689.0
14172.4733797102,639.0
14172.473442207413,629.0
14172.473504704625,488.0
14172.473567201836,412.0
14172.473629699049,416.0
14172.473692196261,395.0
14172.473754693474,281.0
14172.473817190687,192.0
14172.4738796879,224.0
14172.473942185112,236.0
14172.474004682324,271.0
14172.474067179537,316.0
14172.47412967675,257.0
14172.474192173962,252.0
14172.474254671175,325.0
14172.474317168386,226.0
14172.474379665598,141.0
14172.474442162811,183.0
14172.474504660024,199.0
14172.474567157236,164.0
14172.474629654449,184.0
14172.474692151662,247.0
14172.474754648874,306.0
14172.474817146087,392.0
14172.4748796433,415.0
14172.47494214051,381.0
14172.475004637723,256.0
14172.475067134936,180.0
14172.475129632148,116.0
14172.475192129361,147.0
14172.475254626574,252.0
14172.475317123786,234.0
14172.475379620999,251.0
14172.475442118212,209.0
14172.475504615424,87.0
14172.475567112637,-44.0
14172.47562960985,-110.0
14172.47569210706,-113.0
14172.475754604273,-202.0
14172.475817101486,-272.0
14172.475879598698,-257.0
14172.47594209591,-252.0
14172.476004593123,-116.0
14172.476067090336,-72.0
14172.476129587549,-146.0
14172.476192084761,-10.0
14172.476254581974,26.0
14172.476317079185,-100.0
14172.476379576397,-97.0
14172.47644207361,-114.0
14172.476504570823,-201.0
14172.476567068035,-193.0
14172.476629565248,-179.0
14172.47669206246,-205.0
14172.476754559673,-105.0
14172.476817056886,-29.0
14172.476879554099,-77.0
14172.476942051311,41.0
14172.477004548524,233.0
14172.477067045735,333.0
14172.477129542947,389.0
14172.47719204016,450.0
14172.477254537373,356.0
14172.477317034585,235.0
14172.477379531798,267.0
14172.47744202901,172.0
14172.477504526223,156.0
14172.477567023436,276.0
14172.477629520648,306.0
14172.47769201786,300.0
14172.477754515072,329.0
14172.477817012285,350.0
14172.477879509497,357.0
14172.47794200671,242.0
14172.478004503922,112.0
14172.478067001135,167.0
14172.478129498348,169.0
14172.47819199556,245.0
14172.478254492773,402.0
14172.478316989986,422.0
14172.478379487198,509.0
14172.478441984409,551.0
14172.478504481622,438.0
14172.478566978834,327.0
14172.478629476047,205.0
14172.47869197326,159.0
14172.478754470472,109.0
14172.478816967685,81.0
14172.478879464898,96.0
14172.47894196211,87.0
14172.479004459323,114.0
14172.479066956534,103.0
14172.479129453746,156.0
14172.479191950959,242.0
14172.479254448172,139.0
14172.479316945384,-83.0
14172.479379442597,-184.0
14172.47944193981,-112.0
14172.479504437022,-65.0
14172.479566934235,-74.0
14172.479629431447,-72.0
14172.47969192866,-108.0
14172.479754425873,-85.0
14172.479816923083,-86.0
14172.479879420296,-93.0
14172.479941917509,-53.0
14172.480004414721,-61.0
14172.480066911934,-11.0
14172.480129409147,40.0
14172.48019190636,114.0
14172.480254403572,47.0
14172.480316900785,-92.0
14172.480379397997,10.0
14172.480441895208,158.0
14172.48050439242,279.0
14172.480566889633,391.0
14172.480629386846,355.0
14172.480691884059,257.0
14172.480754381271,259.0
14172.480816878484,307.0
14172.480879375697,281.0
14172.48094187291,268.0
14172.481004370122,309.0
14172.481066867334,269.0
14172.481129364545,234.0
14172.481191861758,300.0
14172.48125435897,268.0
14172.481316856183,160.0
14172.481379353396,163.0
14172.481441850608,132.0
14172.481504347821,24.0
14172.481566845034,-73.0
14172.481629342246,-177.0
14172.481691839459,-149.0
14172.481754336672,38.0
14172.481816833882,277.0
14172.481879331095,450.0
14172.481941828308,543.0
14172.48200432552,579.0
14172.482066822733,532.0
14172.482129319946,399.0
14172.482191817158,325.0
14172.482254314371,320.0
14172.482316811584,223.0
14172.482379308796,172.0
14172.482441806009,165.0
14172.48250430322,114.0
14172.482566800432,80.0
14172.482629297645,63.0
14172.482691794858,32.0
14172.48275429207,31.0
14172.482816789283,-62.0
14172.482879286496,-173.0
14172.482941783708,-235.0
14172.48300428092,-217.0
14172.483066778133,-158.0
14172.483129275346,-127.0
14172.483191772557,48.0
14172.48325426977,112.0
14172.483316766982,124.0
14172.483379264195,163.0
14172.483441761407,31.0
14172.48350425862,-51.0
14172.483566755833,-139.0
14172.483629253045,-190.0
14172.483691750258,-22.0
14172.48375424747,38.0
14172.483816744683,-26.0
14172.483879241894,64.0
14172.483941739107,204.0
14172.48400423632,342.0
14172.484066733532,503.0
14172.484129230745,492.0
14172.484191727957,419.0
14172.48425422517,314.0
14172.484316722383,177.0
14172.484379219595,105.0
14172.484441716808,39.0
14172.484504214019,100.0
14172.484566711231,85.0
14172.484629208444,-53.0
14172.484691705657,-120.0
14172.48475420287,-56.0
14172.484816700082,7.0
14172.484879197295,42.0
14172.484941694507,108.0
14172.48500419172,116.0
14172.485066688932,114.0
14172.485129186145,126.0
14172.485191683358,197.0
14172.485254180569,188.0
14172.485316677781,127.0
14172.485379174994,188.0
14172.485441672206,168.0
14172.485504169419,212.0
14172.485566666632,204.0
14172.485629163844,30.0
14172.485691661057,-92.0
14172.48575415827,-200.0
14172.485816655482,-340.0
14172.485879152693,-402.0
14172.485941649906,-428.0
14172.486004147118,-436.0
14172.486066644331,-314.0
14172.486129141544,-212.0
14172.486191638756,-46.0
14172.486254135969,31.0
14172.486316633182,25.0
14172.486379130394,117.0
14172.486441627607,86.0
14172.48650412482,50.0
14172.486566622032,-19.0
14172.486629119243,-135.0
14172.486691616456,-202.0
14172.486754113668,-307.0
14172.48681661088,-343.0
14172.486879108093,-316.0
14172.486941605306,-371.0
14172.487004102519,-368.0
14172.487066599731,-334.0
14172.487129096944,-296.0
14172.487191594157,-134.0
14172.487254091368,-78.0
14172.48731658858,-176.0
14172.487379085793,-219.0
14172.487441583005,-226.0
14172.487504080218,-212.0
14172.48756657743,-208.0
14172.487629074643,-137.0
14172.487691571856,-36.0
14172.487754069069,-81.0
14172.487816566281,-202.0
14172.487879063494,-290.0
14172.487941560707,-296.0
14172.488004057917,-273.0
14172.48806655513,-247.0
14172.488129052343,-277.0
14172.488191549555,-294.0
14172.488254046768,-292.0
14172.48831654398,-284.0
14172.488379041193,-151.0
14172.488441538406,27.0
14172.488504035618,158.0
14172.488566532831,199.0
14172.488629030042,173.0
14172.488691527255,63.0
14172.488754024467,-93.0
14172.48881652168,-122.0
14172.488879018892,-80.0
14172.488941516105,-33.0
14172.489004013318,105.0
14172.48906651053,156.0
14172.489129007743,18.0
14172.489191504956,44.0
14172.489254002168,102.0
14172.489316499381,78.0
14172.489378996592,164.0
14172.489441493804,257.0
14172.489503991017,287.0
14172.48956648823,196.0
14172.489628985442,112.0
14172.489691482655,177.0
14172.489753979868,216.0
14172.48981647708,165.0
14172.489878974293,117.0
14172.489941471506,70.0
14172.490003968716,-37.0
14172.490066465929,-170.0
14172.490128963142,-245.0
14172.490191460354,-230.0
14172.490253957567,-194.0
14172.49031645478,-279.0
14172.490378951992,-361.0
14172.490441449205,-225.0
14172.490503946417,-109.0
14172.49056644363,-83.0
14172.490628940843,-74.0
14172.490691438055,-155.0
14172.490753935266,-199.0
14172.490816432479,-220.0
14172.490878929691,-222.0
14172.490941426904,-127.0
14172.491003924117,-20.0
14172.49106642133,-77.0
14172.491128918542,-207.0
14172.491191415755,-213.0
14172.491253912967,-250.0
14172.49131641018,-211.0
14172.49137890739,-92.0
14172.491441404603,-103.0
14172.491503901816,-88.0
14172.491566399029,-74.0
14172.491628896241,-167.0
14172.491691393454,-231.0
14172.491753890667,-184.0
14172.49181638788,-69.0
14172.491878885092,-28.0
14172.491941382305,-120.0
14172.492003879517,-282.0
14172.492066376728,-399.0
14172.49212887394,-358.0
14172.492191371153,-244.0
14172.492253868366,-96.0
14172.492316365579,-64.0
14172.492378862791,-126.0
14172.492441360004,-133.0
14172.492503857216,-119.0
14172.492566354429,-58.0
14172.492628851642,98.0
14172.492691348854,211.0
14172.492753846065,290.0
14172.492816343278,375.0
14172.49287884049,342.0
14172.492941337703,267.0
14172.493003834916,130.0
14172.493066332128,-3.0
14172.493128829341,31.0
14172.493191326554,171.0
14172.493253823766,286.0
14172.493316320979,253.0
14172.493378818192,112.0
14172.493441315402,-85.0
14172.493503812615,-184.0
14172.493566309828,-253.0
14172.49362880704,-368.0
14172.493691304253,-367.0
14172.493753801466,-337.0
14172.493816298678,-368.0
14172.49387879589,-384.0
14172.493941293103,-391.0
14172.494003790316,-371.0
14172.494066287529,-358.0
14172.49412878474,-418.0
14172.494191281952,-457.0
14172.494253779165,-464.0
14172.494316276378,-454.0
14172.49437877359,-473.0
14172.494441270803,-421.0
14172.494503768015,-262.0
14172.494566265228,-238.0
14172.49462876244,-323.0
14172.494691259653,-269.0
14172.494753756866,-196.0
14172.494816254077,-193.0
14172.49487875129,-98.0
14172.494941248502,-10.0
14172.495003745715,-106.0
14172.495066242927,-221.0
14172.49512874014,-311.0
14172.495191237353,-379.0
14172.495253734565,-343.0
14172.495316231778,-305.0
14172.49537872899,-350.0
14172.495441226201,-435.0
14172.495503723414,-477.0
14172.495566220627,-412.0
14172.49562871784,-289.0
14172.495691215052,-205.0
14172.495753712265,-111.0
14172.495816209477,-90.0
14172.49587870669,-104.0
14172.495941203902,-104.0
14172.496003701115,-112.0
14172.496066198328,-50.0
14172.49612869554,-72.0
14172.496191192751,-166.0
14172.496253689964,-197.0
14172.496316187176,-228.0
14172.49637868439,-264.0
14172.496441181602,-226.0
14172.496503678814,-241.0
14172.496566176027,-269.0
14172.49662867324,-203.0
14172.496691170452,-244.0
14172.496753667665,-335.0
14172.496816164876,-435.0
14172.496878662088,-511.0
14172.496941159301,-433.0
14172.497003656514,-227.0
14172.497066153726,-80.0
14172.497128650939,-81.0
14172.497191148152,-51.0
14172.497253645364,-115.0
14172.497316142577,-243.0
14172.49737863979,-213.0
14172.497441137002,-210.0
14172.497503634215,-147.0
14172.497566131426,-49.0
14172.497628628638,-58.0
14172.49769112585,-118.0
14172.497753623064,-137.0
14172.497816120276,-52.0
14172.497878617489,-37.0
14172.497941114701,-141.0
14172.498003611914,-193.0
14172.498066109127,-270.0
14172.49812860634,-419.0
14172.49819110355,-404.0
14172.498253600763,-388.0
14172.498316097975,-446.0
14172.498378595188,-336.0
14172.4984410924,-206.0
14172.498503589613,-168.0
14172.498566086826,-123.0
14172.498628584039,-112.0
14172.498691081251,-263.0
14172.498753578464,-367.0
14172.498816075677,-375.0
14172.49887857289,-350.0
14172.4989410701,-272.0
14172.499003567313,-199.0
14172.499066064525,-96.0
14172.499128561738,-84.0
14172.49919105895,-30.0
14172.499253556163,3.0
14172.499316053376,-152.0
14172.499378550589,-193.0
14172.499441047801,-105.0
14172.499503545014,-15.0
14172.499566042225,-72.0
14172.499628539437,-236.0
14172.49969103665,-367.0
14172.499753533863,-453.0
14172.499816031075,-448.0
14172.499878528288,-469.0
14172.4999410255,-459.0
14172.500003522713,-355.0
14172.500066019926,-292.0
14172.500128517138,-324.0
14172.500191014351,-292.0
14172.500253511564,-287.0
14172.500316008774,-305.0
14172.500378505987,-195.0
14172.5004410032,-170.0
14172.500503500412,-246.0
14172.500565997625,-244.0
14172.500628494838,-198.0
14172.50069099205,-117.0
14172.500753489263,-24.0
14172.500815986476,-54.0
14172.500878483688,-159.0
14172.500940980899,-297.0
14172.501003478112,-410.0
14172.501065975324,-494.0
14172.501128472537,-547.0
14172.50119096975,-429.0
14172.501253466962,-305.0
14172.501315964175,-310.0
14172.501378461388,-245.0
14172.5014409586,-204.0
14172.501503455813,-290.0
14172.501565953025,-331.0
14172.501628450238,-358.0
14172.501690947449,-330.0
14172.501753444662,-320.0
14172.501815941874,-461.0
14172.501878439087,-548.0
14172.5019409363,-520.0
14172.502003433512,-419.0
14172.502065930725,-444.0
14172.502128427937,-476.0
14172.50219092515,-305.0
14172.502253422363,-195.0
14172.502315919573,-173.0
14172.502378416786,-197.0
14172.502440913999,-206.0
14172.502503411211,-206.0
14172.502565908424,-244.0
14172.502628405637,-223.0
14172.50269090285,-163.0
14172.502753400062,-169.0
14172.502815897275,-172.0
14172.502878394487,-144.0
14172.5029408917,-229.0
14172.50300338891,-304.0
14172.503065886123,-324.0
14172.503128383336,-433.0
14172.503190880549,-452.0
14172.503253377761,-511.0
14172.503315874974,-673.0
14172.503378372186,-629.0
14172.5034408694,-537.0
14172.503503366612,-452.0
14172.503565863824,-339.0
14172.503628361037,-331.0
14172.503690858248,-338.0
14172.50375335546,-375.0
14172.503815852673,-539.0
14172.503878349886,-675.0
14172.503940847098,-767.0
14172.504003344311,-764.0
14172.504065841524,-612.0
14172.504128338736,-484.0
14172.504190835949,-373.0
14172.504253333162,-350.0
14172.504315830374,-349.0
14172.504378327585,-321.0
14172.504440824798,-378.0
14172.50450332201,-415.0
14172.504565819223,-501.0
14172.504628316436,-618.0
14172.504690813648,-668.0
14172.50475331086,-630.0
14172.504815808074,-546.0
14172.504878305286,-399.0
14172.504940802499,-230.0
14172.505003299711,-184.0
14172.505065796922,-258.0
14172.505128294135,-364.0
14172.505190791348,-348.0
14172.50525328856,-422.0
14172.505315785773,-526.0
14172.505378282985,-483.0
14172.505440780198,-404.0
14172.50550327741,-310.0
14172.505565774623,-310.0
14172.505628271836,-335.0
14172.505690769049,-340.0
14172.50575326626,-335.0
14172.505815763472,-350.0
14172.505878260685,-409.0
14172.505940757897,-459.0
14172.50600325511,-488.0
14172.506065752323,-509.0
14172.506128249535,-566.0
14172.506190746748,-455.0
14172.50625324396,-274.0
14172.506315741173,-139.0
14172.506378238384,18.0
14172.506440735597,-31.0
14172.50650323281,-161.0
14172.506565730022,-153.0
14172.506628227235,-142.0
14172.506690724447,-113.0
14172.50675322166,-134.0
14172.506815718873,-291.0
14172.506878216085,-400.0
14172.506940713298,-406.0
14172.50700321051,-443.0
14172.507065707723,-495.0
14172.507128204934,-425.0
14172.507190702147,-232.0
14172.50725319936,-228.0
14172.507315696572,-310.0
14172.507378193784,-247.0
14172.507440690997,-299.0
14172.50750318821,-346.0
14172.507565685422,-240.0
14172.507628182635,-178.0
14172.507690679848,-233.0
14172.507753177058,-236.0
14172.507815674271,-308.0
14172.507878171484,-484.0
14172.507940668696,-539.0
14172.508003165909,-578.0
14172.508065663122,-628.0
14172.508128160334,-627.0
14172.508190657547,-532.0
14172.50825315476,-456.0
14172.508315651972,-520.0
14172.508378149185,-559.0
14172.508440646398,-596.0
14172.508503143608,-589.0
14172.508565640821,-497.0
14172.508628138034,-505.0
14172.508690635246,-548.0
14172.508753132459,-507.0
14172.508815629672,-468.0
14172.508878126884,-512.0
14172.508940624097,-625.0
14172.50900312131,-781.0
14172.509065618522,-947.0
14172.509128115733,-924.0
14172.509190612946,-819.0
14172.509253110158,-924.0
14172.50931560737,-1002.0
14172.509378104583,-823.0
14172.509440601796,-704.0
14172.509503099009,-729.0
14172.509565596221,-732.0
14172.509628093434,-827.0
14172.509690590647,-965.0
14172.50975308786,-886.0
14172.509815585072,-728.0
14172.509878082283,-592.0
14172.509940579495,-482.0
14172.510003076708,-519.0
14172.51006557392,-670.0
14172.510128071133,-856.0
14172.510190568346,-902.0
14172.510253065559,-868.0
14172.510315562771,-668.0
14172.510378059984,-341.0
14172.510440557196,-206.0
14172.510503054407,-236.0
14172.51056555162,-354.0
14172.510628048833,-409.0
14172.510690546045,-395.0
14172.510753043258,-354.0
14172.51081554047,-217.0
14172.510878037683,-10.0
14172.510940534896,84.0
14172.511003032108,30.0
14172.511065529321,-109.0
14172.511128026534,-317.0
14172.511190523746,-419.0
14172.511253020957,-519.0
14172.51131551817,-618.0
14172.511378015382,-584.0
14172.511440512595,-511.0
14172.511503009808,-370.0
14172.51156550702,-239.0
14172.511628004233,-138.0
14172.511690501446,-137.0
14172.511752998658,-279.0
14172.51181549587,-445.0
14172.511877993082,-525.0
14172.511940490294,-408.0
14172.512002987507,-295.0
14172.51206548472,-206.0
14172.512127981932,-134.0
14172.512190479145,-218.0
14172.512252976358,-367.0
14172.51231547357,-475.0
14172.512377970783,-463.0
14172.512440467995,-493.0
14172.512502965208,-488.0
14172.51256546242,-415.0
14172.512627959632,-465.0
14172.512690456844,-529.0
14172.512752954057,-535.0
14172.51281545127,-547.0
14172.512877948482,-509.0
14172.512940445695,-448.0
14172.513002942907,-394.0
14172.51306544012,-413.0
14172.513127937333,-573.0
14172.513190434545,-633.0
14172.513252931756,-684.0
14172.513315428969,-773.0
14172.513377926181,-802.0
14172.513440423394,-847.0
14172.513502920607,-874.0
14172.51356541782,-945.0
14172.513627915032,-906.0
14172.513690412245,-809.0
14172.513752909457,-744.0
14172.51381540667,-606.0
14172.513877903883,-634.0
14172.513940401093,-766.0
14172.514002898306,-772.0
14172.514065395519,-676.0
14172.514127892731,-549.0
14172.514190389944,-392.0
14172.514252887157,-253.0
14172.51431538437,-306.0
14172.514377881582,-436.0
14172.514440378794,-611.0
14172.514502876007,-834.0
14172.51456537322,-922.0
14172.51462787043,-985.0
14172.514690367643,-1029.0
14172.514752864856,-935.0
14172.514815362068,-746.0
14172.514877859281,-504.0
14172.514940356494,-324.0
14172.515002853706,-296.0
14172.515065350919,-310.0
14172.515127848132,-392.0
14172.515190345344,-469.0
14172.515252842557,-461.0
14172.515315339768,-420.0
14172.51537783698,-281.0
14172.515440334193,-159.0
14172.515502831406,-148.0
14172.515565328618,-326.0
14172.515627825831,-505.0
14172.515690323044,-482.0
14172.515752820256,-385.0
14172.515815317469,-277.0
14172.515877814682,-242.0
14172.515940311894,-277.0
14172.516002809105,-280.0
14172.516065306318,-332.0
14172.51612780353,-446.0
14172.516190300743,-372.0
14172.516252797956,-250.0
14172.516315295168,-195.0
14172.51637779238,-120.0
14172.516440289593,-222.0
14172.516502786806,-399.0
14172.516565284019,-497.0
14172.516627781231,-562.0
14172.516690278442,-655.0
14172.516752775655,-665.0
14172.516815272867,-585.0
14172.51687777008,-569.0
14172.516940267293,-576.0
14172.517002764505,-587.0
14172.517065261718,-497.0
14172.51712775893,-448.0
14172.517190256143,-462.0
14172.517252753356,-506.0
14172.517315250567,-608.0
14172.51737774778,-558.0
14172.517440244992,-615.0
14172.517502742205,-687.0
14172.517565239417,-538.0
14172.51762773663,-434.0
14172.517690233843,-399.0
14172.517752731055,-316.0
14172.517815228268,-448.0
14172.51787772548,-712.0
14172.517940222693,-764.0
14172.518002719906,-790.0
14172.518065217117,-821.0
14172.51812771433,-760.0
14172.518190211542,-687.0
14172.518252708755,-596.0
14172.518315205967,-630.0
14172.51837770318,-653.0
14172.518440200392,-632.0
14172.518502697605,-658.0
14172.518565194818,-659.0
14172.51862769203,-662.0
14172.518690189241,-706.0
14172.518752686454,-748.0
14172.518815183666,-782.0
14172.518877680879,-870.0
14172.518940178092,-960.0
14172.519002675304,-903.0
14172.519065172517,-841.0
14172.51912766973,-838.0
14172.519190166942,-768.0
14172.519252664155,-710.0
14172.519315161368,-722.0
14172.51937765858,-712.0
14172.519440155791,-609.0
14172.519502653004,-629.0
14172.519565150216,-710.0
14172.519627647429,-756.0
14172.519690144642,-836.0
14172.519752641854,-797.0
14172.519815139067,-700.0
14172.51987763628,-720.0
14172.519940133492,-688.0
14172.520002630705,-669.0
14172.520065127916,-829.0
14172.520127625128,-880.0
14172.52019012234,-718.0
14172.520252619554,-718.0
14172.520315116766,-772.0
14172.520377613979,-675.0
14172.520440111191,-745.0
14172.520502608404,-879.0
14172.520565105617,-915.0
14172.52062760283,-938.0
14172.520690100042,-844.0
14172.520752597255,-783.0
14172.520815094465,-725.0
14172.520877591678,-682.0
14172.52094008889,-711.0
14172.521002586103,-721.0
14172.521065083316,-694.0
14172.521127580529,-655.0
14172.521190077741,-680.0
14172.521252574954,-837.0
14172.521315072167,-880.0
14172.52137756938,-722.0
14172.52144006659,-682.0
14172.521502563803,-583.0
14172.521565061015,-522.0
14172.521627558228,-665.0
14172.52169005544,-756.0
14172.521752552653,-721.0
14172.521815049866,-772.0
14172.521877547078,-602.0
14172.521940044291,-438.0
14172.522002541504,-415.0
14172.522065038716,-442.0
14172.522127535929,-717.0
14172.52219003314,-847.0
14172.522252530352,-901.0
14172.522315027565,-978.0
14172.522377524778,-804.0
14172.52244002199,-596.0
14172.522502519203,-509.0
14172.522565016416,-437.0
14172.522627513628,-623.0
14172.522690010841,-833.0
14172.522752508054,-1047.0
14172.522815005264,-1168.0
14172.522877502477,-1028.0
14172.52293999969,-940.0
14172.523002496902,-912.0
14172.523064994115,-872.0
14172.523127491328,-796.0
14172.52318998854,-588.0
14172.523252485753,-493.0
14172.523314982966,-559.0
14172.523377480178,-735.0
14172.52343997739,-806.0
14172.523502474603,-806.0
14172.523564971814,-817.0
14172.523627469027,-793.0
14172.52368996624,-802.0
14172.523752463452,-809.0
14172.523814960665,-717.0
14172.523877457877,-615.0
14172.52393995509,-655.0
14172.524002452303,-689.0
14172.524064949515,-773.0
14172.524127446728,-813.0
14172.524189943939,-598.0
14172.524252441151,-510.0
14172.524314938364,-637.0
14172.524377435577,-783.0
14172.52443993279,-848.0
14172.524502430002,-731.0
14172.524564927215,-579.0
14172.524627424427,-542.0
14172.52468992164,-525.0
14172.524752418853,-481.0
14172.524814916065,-545.0
14172.524877413276,-762.0
14172.524939910489,-845.0
14172.525002407701,-745.0
14172.525064904914,-743.0
14172.525127402127,-792.0
14172.52518989934,-657.0
14172.525252396552,-531.0
14172.525314893765,-553.0
14172.525377390977,-613.0
14172.52543988819,-729.0
14172.525502385402,-761.0
14172.525564882613,-700.0
14172.525627379826,-589.0
14172.525689877039,-437.0
14172.525752374251,-445.0
14172.525814871464,-606.0
14172.525877368676,-681.0
14172.525939865889,-549.0
14172.526002363102,-398.0
14172.526064860314,-334.0
14172.526127357527,-271.0
14172.52618985474,-313.0
14172.52625235195,-444.0
14172.526314849163,-473.0
14172.526377346376,-314.0
14172.526439843588,-141.0
14172.526502340801,-45.0
14172.526564838014,-86.0
14172.526627335226,-273.0
14172.526689832439,-434.0
14172.526752329652,-492.0
14172.526814826864,-388.0
14172.526877324077,-209.0
14172.526939821288,-133.0
14172.5270023185,-154.0
14172.527064815713,-239.0
14172.527127312926,-390.0
14172.527189810138,-445.0
14172.52725230735,-424.0
14172.527314804564,-430.0
14172.527377301776,-373.0
14172.527439798989,-209.0
14172.527502296201,-25.0
14172.527564793414,17.0
14172.527627290625,-100.0
14172.527689787838,-185.0
14172.52775228505,-328.0
14172.527814782263,-592.0
14172.527877279475,-710.0
14172.527939776688,-598.0
14172.5280022739,-424.0
14172.528064771113,-271.0
14172.528127268326,-138.0
14172.528189765539,43.0
14172.528252262751,109.0
14172.528314759962,-32.0
14172.528377257175,-237.0
14172.528439754387,-317.0
14172.5285022516,-130.0
14172.528564748813,13.0
14172.528627246025,-4.0
14172.528689743238,28.0
14172.52875224045,-59.0
14172.528814737663,-291.0
14172.528877234876,-340.0
14172.528939732088,-283.0
14172.5290022293,-253.0
14172.529064726512,-211.0
14172.529127223725,-234.0
14172.529189720937,-170.0
14172.52925221815,-114.0
14172.529314715362,-176.0
14172.529377212575,-239.0
14172.529439709788,-288.0
14172.529502207,-379.0
14172.529564704213,-487.0
14172.529627201424,-464.0
14172.529689698637,-369.0
14172.52975219585,-344.0
14172.529814693062,-278.0
14172.529877190274,-220.0
14172.529939687487,-157.0
14172.5300021847,-172.0
14172.530064681912,-445.0
14172.530127179125,-664.0
14172.530189676338,-705.0
14172.53025217355,-761.0
14172.530314670763,-712.0
14172.530377167974,-552.0
14172.530439665186,-470.0
14172.530502162399,-314.0
14172.530564659612,-227.0
14172.530627156824,-316.0
14172.530689654037,-383.0
14172.53075215125,-422.0
14172.530814648462,-464.0
14172.530877145675,-464.0
14172.530939642887,-489.0
14172.531002140098,-526.0
14172.531064637311,-507.0
14172.531127134524,-471.0
14172.531189631736,-455.0
14172.531252128949,-542.0
14172.531314626161,-586.0
14172.531377123374,-462.0
14172.531439620587,-310.0
14172.5315021178,-267.0
14172.531564615012,-296.0
14172.531627112225,-304.0
14172.531689609437,-460.0
14172.531752106648,-541.0
14172.53181460386,-348.0
14172.531877101073,-150.0
14172.531939598286,-62.0
14172.532002095499,-96.0
14172.532064592711,-65.0
14172.532127089924,52.0
14172.532189587137,14.0
14172.53225208435,-139.0
14172.532314581562,-236.0
14172.532377078773,-213.0
14172.532439575985,-206.0
14172.532502073198,-223.0
14172.53256457041,-206.0
14172.532627067623,-214.0
14172.532689564836,-173.0
14172.532752062049,-278.0
14172.532814559261,-382.0
14172.532877056474,-316.0
14172.532939553686,-458.0
14172.533002050899,-624.0
14172.533064548112,-542.0
14172.533127045323,-493.0
14172.533189542535,-400.0
14172.533252039748,-205.0
14172.53331453696,-119.0
14172.533377034173,-149.0
14172.533439531386,-244.0
14172.533502028598,-392.0
14172.533564525811,-499.0
14172.533627023024,-291.0
14172.533689520236,-50.0
14172.533752017447,-38.0
14172.53381451466,-135.0
14172.533877011872,-395.0
14172.533939509085,-543.0
14172.534002006298,-346.0
14172.53406450351,-85.0
14172.534127000723,-80.0
14172.534189497936,-137.0
14172.534251995148,-153.0
14172.53431449236,-340.0
14172.534376989574,-368.0
14172.534439486786,-363.0
14172.534501983997,-421.0
14172.53456448121,-254.0
14172.534626978422,-184.0
14172.534689475635,-270.0
14172.534751972848,-234.0
14172.53481447006,-204.0
14172.534876967273,-284.0
14172.534939464485,-284.0
14172.535001961698,-210.0
14172.53506445891,-262.0
14172.535126956122,-408.0
14172.535189453334,-490.0
14172.535251950547,-401.0
14172.53531444776,-184.0
14172.535376944972,-26.0
14172.535439442185,26.0
14172.535501939397,-10.0
14172.53556443661,-8.0
14172.535626933823,-158.0
14172.535689431035,-377.0
14172.535751928248,-320.0
14172.53581442546,-237.0
14172.535876922671,-116.0
14172.535939419884,-1.0
14172.536001917097,-60.0
14172.53606441431,-216.0
14172.536126911522,-221.0
14172.536189408735,-177.0
14172.536251905947,-309.0
14172.53631440316,-222.0
14172.536376900372,-63.0
14172.536439397585,-4.0
14172.536501894796,209.0
14172.536564392009,212.0
14172.536626889221,10.0
14172.536689386434,-264.0
14172.536751883647,-468.0
14172.53681438086,-350.0
14172.536876878072,-16.0
14172.536939375284,277.0
14172.537001872497,249.0
14172.53706436971,89.0
14172.537126866922,-223.0
14172.537189364133,-539.0
14172.537251861346,-418.0
14172.537314358558,-72.0
14172.537376855771,208.0
14172.537439352984,179.0
14172.537501850196,97.0
14172.537564347409,177.0
14172.537626844622,123.0
14172.537689341834,184.0
14172.537751839047,254.0
14172.53781433626,133.0
14172.53787683347,20.0
14172.537939330683,-144.0
14172.538001827896,-234.0
14172.538064325108,-226.0
14172.538126822321,-195.0
14172.538189319534,27.0
14172.538251816746,122.0
14172.538314313959,-18.0
14172.538376811171,-83.0
14172.538439308384,-141.0
14172.538501805597,-221.0
14172.538564302808,-273.0
14172.53862680002,-176.0
14172.538689297233,5.0
14172.538751794445,158.0
14172.538814291658,157.0
14172.53887678887,-53.0
14172.538939286083,-68.0
14172.539001783296,83.0
14172.539064280509,241.0
14172.539126777721,280.0
14172.539189274934,126.0
14172.539251772145,73.0
14172.539314269357,-43.0
14172.53937676657,-122.0
14172.539439263783,-12.0
14172.539501760995,-14.0
14172.539564258208,-124.0
14172.53962675542,-166.0
14172.539689252633,-161.0
14172.539751749846,-112.0
14172.539814247059,-35.0
14172.539876744271,19.0
14172.539939241482,71.0
14172.540001738695,192.0
14172.540064235907,239.0
14172.54012673312,152.0
14172.540189230333,252.0
14172.540251727545,341.0
14172.540314224758,225.0
14172.54037672197,192.0
14172.540439219183,186.0
14172.540501716396,152.0
14172.540564213607,177.0
14172.54062671082,171.0
14172.540689208032,28.0
14172.540751705244,-145.0
14172.540814202457,-273.0
14172.54087669967,-411.0
14172.540939196882,-402.0
14172.541001694095,-243.0
14172.541064191308,-209.0
14172.54112668852,-349.0
14172.541189185733,-329.0
14172.541251682946,-306.0
14172.541314180156,-360.0
14172.541376677369,-282.0
14172.541439174582,-234.0
14172.541501671794,-169.0
14172.541564169007,-66.0
14172.54162666622,22.0
14172.541689163432,-39.0
14172.541751660645,-186.0
14172.541814157858,-260.0
14172.54187665507,-351.0
14172.541939152281,-312.0
14172.542001649494,-222.0
14172.542064146706,-92.0
14172.542126643919,5.0
14172.542189141132,-76.0
14172.542251638344,-99.0
14172.542314135557,-180.0
14172.54237663277,-273.0
14172.542439129982,-211.0
14172.542501627195,-117.0
14172.542564124407,-109.0
14172.54262662162,-134.0
14172.54268911883,-28.0
14172.542751616043,57.0
14172.542814113256,119.0
14172.542876610469,329.0
14172.542939107681,230.0
14172.543001604894,-102.0
14172.543064102107,-105.0
14172.54312659932,-60.0
14172.543189096532,-13.0
14172.543251593745,115.0
14172.543314090955,134.0
14172.543376588168,151.0
14172.54343908538,233.0
14172.543501582593,284.0
14172.543564079806,220.0
14172.543626577019,162.0
14172.543689074231,63.0
14172.543751571444,-112.0
14172.543814068657,-203.0
14172.54387656587,-122.0
14172.543939063082,-13.0
14172.544001560294,77.0
14172.544064057505,122.0
14172.544126554718,-71.0
14172.54418905193,-108.0
14172.544251549143,1.0
14172.544314046356,-71.0
14172.544376543568,-73.0
14172.544439040781,-109.0
14172.544501537994,-145.0
14172.544564035206,-160.0
14172.544626532419,-183.0
14172.54468902963,-216.0
14172.544751526842,-202.0
14172.544814024055,-120.0
14172.544876521268,-52.0
14172.54493901848,86.0
14172.545001515693,93.0
14172.545064012906,-194.0
14172.545126510118,-265.0
14172.545189007331,-11.0
14172.545251504544,73.0
14172.545314001756,-66.0
14172.545376498969,-193.0
14172.54543899618,-176.0
14172.545501493392,-57.0
14172.545563990605,175.0
14172.545626487818,403.0
14172.54568898503,412.0
14172.545751482243,245.0
14172.545813979455,-6.0
14172.545876476668,-89.0
14172.54593897388,-68.0
14172.546001471093,-105.0
14172.546063968304,13.0
14172.546126465517,-43.0
14172.54618896273,-67.0
14172.546251459942,63.0
14172.546313957155,-47.0
14172.546376454367,-140.0
14172.54643895158,-216.0
14172.546501448793,-259.0
14172.546563946005,-169.0
14172.546626443218,-88.0
14172.54668894043,-144.0
14172.546751437643,-212.0
14172.546813934854,-230.0
14172.546876432067,-273.0
14172.54693892928,-280.0
14172.547001426492,-211.0
14172.547063923705,-117.0
14172.547126420917,-113.0
14172.54718891813,-148.0
14172.547251415343,-183.0
14172.547313912555,-324.0
14172.547376409768,-320.0
14172.547438906979,-103.0
14172.547501404191,-9.0
14172.547563901404,-120.0
14172.547626398617,-380.0
14172.54768889583,-576.0
14172.547751393042,-498.0
14172.547813890254,-325.0
14172.547876387467,-129.0
14172.54793888468,24.0
14172.548001381892,-12.0
14172.548063879105,-150.0
14172.548126376316,-254.0
14172.548188873528,-118.0
14172.548251370741,-37.0
14172.548313867954,-43.0
14172.548376365166,33.0
14172.548438862379,41.0
14172.548501359592,97.0
14172.548563856804,119.0
14172.548626354017,163.0
14172.54868885123,246.0
14172.548751348442,101.0
14172.548813845653,-242.0
14172.548876342866,-339.0
14172.548938840078,-229.0
14172.549001337291,-218.0
14172.549063834504,-177.0
14172.549126331716,-164.0
14172.549188828929,-79.0
14172.549251326142,-91.0
14172.549313823354,-292.0
14172.549376320567,-275.0
14172.54943881778,-169.0
14172.54950131499,-125.0
14172.549563812203,25.0
14172.549626309416,207.0
14172.549688806628,220.0
14172.54975130384,291.0
14172.549813801053,356.0
14172.549876298266,173.0
14172.549938795479,98.0
14172.550001292691,-101.0
14172.550063789904,-419.0
14172.550126287117,-417.0
14172.550188784327,-250.0
14172.55025128154,-148.0
14172.550313778753,-155.0
14172.550376275965,-125.0
14172.550438773178,-276.0
14172.55050127039,-465.0
14172.550563767603,-513.0
14172.550626264816,-527.0
14172.550688762029,-357.0
14172.550751259241,-279.0
14172.550813756454,-280.0
14172.550876253665,-247.0
14172.550938750877,-358.0
14172.55100124809,-359.0
14172.551063745303,-207.0
14172.551126242515,-160.0
14172.551188739728,-196.0
14172.55125123694,-229.0
14172.551313734153,-337.0
14172.551376231366,-355.0
14172.551438728578,-274.0
14172.55150122579,-194.0
14172.551563723002,-47.0
14172.551626220215,-107.0
14172.551688717427,-313.0
14172.55175121464,-255.0
14172.551813711852,-136.0
14172.551876209065,-132.0
14172.551938706278,26.0
14172.55200120349,255.0
14172.552063700703,278.0
14172.552126197916,63.0
14172.552188695128,-94.0
14172.55225119234,-13.0
14172.552313689552,-104.0
14172.552376186764,-188.0
14172.552438683977,-14.0
14172.55250118119,-61.0
14172.552563678402,-193.0
14172.552626175615,-40.0
14172.552688672828,186.0
14172.55275117004,87.0
14172.552813667253,-217.0
14172.552876164464,-191.0
14172.552938661676,-14.0
14172.553001158889,12.0
14172.553063656102,-36.0
14172.553126153314,33.0
14172.553188650527,217.0
14172.55325114774,212.0
14172.553313644952,156.0
14172.553376142165,207.0
14172.553438639377,122.0
14172.55350113659,-38.0
14172.553563633803,-42.0
14172.553626131014,43.0
14172.553688628226,-55.0
14172.553751125439,-182.0
14172.553813622651,-243.0
14172.553876119864,-224.0
14172.553938617077,-57.0
14172.55400111429,163.0
14172.554063611502,183.0
14172.554126108715,32.0
14172.554188605927,-17.0
14172.554251103138,74.0
14172.55431360035,241.0
14172.554376097563,125.0
14172.554438594776,-56.0
14172.554501091989,106.0
14172.554563589201,266.0
14172.554626086414,241.0
14172.554688583627,337.0
14172.55475108084,341.0
14172.554813578052,212.0
14172.554876075264,52.0
14172.554938572477,94.0
14172.555001069688,387.0
14172.5550635669,343.0
14172.555126064113,35.0
14172.555188561326,-195.0
14172.555251058538,-97.0
14172.555313555751,231.0
14172.555376052964,495.0
14172.555438550176,550.0
14172.555501047389,469.0
14172.555563544602,367.0
14172.555626041813,64.0
14172.555688539025,-100.0
14172.555751036238,16.0
14172.55581353345,111.0
14172.555876030663,327.0
14172.555938527876,485.0
14172.556001025088,431.0
14172.556063522301,354.0
14172.556126019514,181.0
14172.556188516726,64.0
14172.556251013939,178.0
14172.556313511152,360.0
14172.556376008362,360.0
14172.556438505575,260.0
14172.556501002788,260.0
14172.5565635,275.0
14172.556625997213,238.0
14172.556688494426,85.0
14172.556750991638,40.0
14172.55681348885,137.0
14172.556875986063,168.0
14172.556938483276,98.0
14172.557000980487,91.0
14172.5570634777,198.0
14172.557125974912,220.0
14172.557188472125,353.0
14172.557250969337,512.0
14172.55731346655,396.0
14172.557375963763,207.0
14172.557438460975,231.0
14172.557500958188,149.0
14172.5575634554,182.0
14172.557625952613,662.0
14172.557688449826,879.0
14172.557750947037,757.0
14172.55781344425,522.0
14172.557875941462,163.0
14172.557938438675,-200.0
14172.558000935887,-205.0
14172.5580634331,-24.0
14172.558125930313,145.0
14172.558188427525,406.0
14172.558250924738,326.0
14172.55831342195,136.0
14172.558375919161,91.0
14172.558438416374,-6.0
14172.558500913587,131.0
14172.5585634108,455.0
14172.558625908012,555.0
14172.558688405225,507.0
14172.558750902437,392.0
14172.55881339965,120.0
14172.558875896862,97.0
14172.558938394075,160.0
14172.559000891288,5.0
14172.559063388499,-3.0
14172.559125885711,-43.0
14172.559188382924,-19.0
14172.559250880136,76.0
14172.55931337735,-48.0
14172.559375874562,-80.0
14172.559438371774,-210.0
14172.559500868987,-248.0
14172.5595633662,14.0
14172.559625863412,23.0
14172.559688360625,172.0
14172.559750857836,318.0
14172.559813355048,54.0
14172.559875852261,-60.0
14172.559938349474,49.0
14172.560000846686,221.0
14172.560063343899,269.0
14172.560125841112,-7.0
14172.560188338324,-188.0
14172.560250835537,-117.0
14172.56031333275,-36.0
14172.560375829962,126.0
14172.560438327173,342.0
14172.560500824386,366.0
14172.560563321598,87.0
14172.56062581881,43.0
14172.560688316024,131.0
14172.560750813236,158.0
14172.560813310449,456.0
14172.560875807661,566.0
14172.560938304874,384.0
14172.561000802087,199.0
14172.5610632993,93.0
14172.56112579651,-11.0
14172.561188293723,59.0
14172.561250790935,354.0
14172.561313288148,286.0
14172.56137578536,62.0
14172.561438282573,61.0
14172.561500779786,57.0
14172.561563276999,83.0
14172.561625774211,261.0
14172.561688271424,138.0
14172.561750768637,-170.0
14172.561813265847,-165.0
14172.56187576306,215.0
14172.561938260273,469.0
14172.562000757485,312.0
14172.562063254698,78.0
14172.56212575191,-226.0
14172.562188249123,-237.0
14172.562250746336,-258.0
14172.562313243548,-442.0
14172.562375740761,-373.0
14172.562438237972,-305.0
14172.562500735185,-299.0
14172.562563232397,-286.0
14172.56262572961,-102.0
14172.562688226823,-131.0
14172.562750724035,-307.0
14172.562813221248,-19.0
14172.56287571846,226.0
14172.562938215673,179.0
14172.563000712886,224.0
14172.563063210098,398.0
14172.563125707311,474.0
14172.563188204522,296.0
14172.563250701734,283.0
14172.563313198947,395.0
14172.56337569616,327.0
14172.563438193372,320.0
14172.563500690585,326.0
14172.563563187798,349.0
14172.56362568501,215.0
14172.563688182223,154.0
14172.563750679436,248.0
14172.563813176646,109.0
14172.563875673859,98.0
14172.563938171072,108.0
14172.564000668284,18.0
14172.564063165497,104.0
14172.56412566271,117.0
14172.564188159922,77.0
14172.564250657135,97.0
14172.564313154347,191.0
14172.56437565156,156.0
14172.564438148773,-141.0
14172.564500645985,-249.0
14172.564563143196,-213.0
14172.564625640409,-132.0
14172.564688137621,22.0
14172.564750634834,108.0
14172.564813132047,127.0
14172.56487562926,66.0
14172.564938126472,-29.0
14172.565000623685,-15.0
14172.565063120897,209.0
14172.56512561811,298.0
14172.56518811532,375.0
14172.565250612533,409.0
14172.565313109746,98.0
14172.565375606959,-147.0
14172.565438104171,-130.0
14172.565500601384,128.0
14172.565563098597,340.0
14172.56562559581,240.0
14172.565688093022,154.0
14172.565750590235,121.0
14172.565813087447,65.0
14172.56587558466,189.0
14172.56593808187,375.0
14172.566000579083,366.0
14172.566063076296,226.0
14172.566125573509,90.0
14172.566188070721,132.0
14172.566250567934,286.0
14172.566313065146,328.0
14172.56637556236,527.0
14172.566438059572,517.0
14172.566500556784,171.0
14172.566563053995,160.0
14172.566625551208,272.0
14172.56668804842,224.0
14172.566750545633,257.0
14172.566813042846,222.0
14172.566875540058,91.0
14172.566938037271,185.0
14172.567000534484,164.0
14172.567063031696,119.0
14172.567125528909,57.0
14172.567188026122,114.0
14172.567250523334,400.0
14172.567313020545,484.0
14172.567375517758,505.0
14172.56743801497,504.0
14172.567500512183,396.0
14172.567563009396,191.0
14172.567625506608,111.0
14172.56768800382,31.0
14172.567750501034,-11.0
14172.567812998246,-36.0
14172.567875495459,-112.0
14172.56793799267,148.0
14172.568000489882,223.0
14172.568062987095,38.0
14172.568125484308,68.0
14172.56818798152,25.0
14172.568250478733,-139.0
14172.568312975945,-245.0
14172.568375473158,-390.0
14172.56843797037,-502.0
14172.568500467583,-358.0
14172.568562964796,-188.0
14172.568625462009,-128.0
14172.56868795922,-10.0
14172.568750456432,-76.0
14172.568812953645,-242.0
14172.568875450857,-88.0
14172.56893794807,-100.0
14172.569000445283,-230.0
14172.569062942495,-249.0
14172.569125439708,-282.0
14172.56918793692,-150.0
14172.569250434133,-39.0
14172.569312931344,-72.0
14172.569375428557,-102.0
14172.56943792577,-57.0
14172.569500422982,14.0
14172.569562920195,71.0
14172.569625417407,157.0
14172.56968791462,138.0
14172.569750411833,-9.0
14172.569812909045,-129.0
14172.569875406258,-98.0
14172.56993790347,58.0
14172.570000400681,106.0
14172.570062897894,-52.0
14172.570125395107,-183.0
14172.57018789232,7.0
14172.570250389532,159.0
14172.570312886744,104.0
14172.570375383957,132.0
14172.57043788117,103.0
14172.570500378382,-93.0
14172.570562875595,-99.0
14172.570625372808,-22.0
14172.570687870018,-49.0
14172.570750367231,51.0
14172.570812864444,221.0
14172.570875361656,338.0
14172.570937858869,397.0
14172.571000356082,358.0
14172.571062853294,210.0
14172.571125350507,45.0
14172.57118784772,-149.0
14172.571250344932,-305.0
14172.571312842145,-208.0
14172.571375339356,-75.0
14172.571437836568,-1.0
14172.571500333781,111.0
14172.571562830994,25.0
14172.571625328206,-104.0
14172.571687825419,-176.0
14172.571750322631,-310.0
14172.571812819844,-317.0
14172.571875317057,-280.0
14172.57193781427,-304.0
14172.572000311482,-314.0
14172.572062808693,-376.0
14172.572125305906,-365.0
14172.572187803118,-187.0
14172.57225030033,-104.0
14172.572312797543,50.0
14172.572375294756,291.0
14172.572437791969,174.0
14172.572500289181,-88.0
14172.572562786394,-12.0
14172.572625283607,53.0
14172.57268778082,-147.0
14172.57275027803,-41.0
14172.572812775243,96.0
14172.572875272455,84.0
14172.572937769668,222.0
14172.57300026688,279.0
14172.573062764093,64.0
14172.573125261306,-43.0
14172.573187758519,6.0
14172.573250255731,-174.0
14172.573312752944,-399.0
14172.573375250155,-439.0
14172.573437747367,-273.0
14172.57350024458,40.0
14172.573562741793,128.0
14172.573625239005,-104.0
14172.573687736218,-298.0
14172.57375023343,-214.0
14172.573812730643,64.0
14172.573875227856,176.0
14172.573937725068,-26.0
14172.574000222281,-148.0
14172.574062719494,-83.0
14172.574125216704,44.0
14172.574187713917,178.0
14172.57425021113,257.0
14172.574312708342,145.0
14172.574375205555,26.0
14172.574437702768,49.0
14172.57450019998,259.0
14172.574562697193,494.0
14172.574625194406,306.0
14172.574687691618,33.0
14172.574750188829,71.0
14172.574812686042,164.0
14172.574875183254,284.0
14172.574937680467,257.0
14172.57500017768,177.0
14172.575062674892,162.0
14172.575125172105,47.0
14172.575187669318,149.0
14172.57525016653,372.0
14172.575312663743,224.0
14172.575375160955,-116.0
14172.575437658168,-236.0
14172.575500155379,-167.0
14172.575562652592,-114.0
14172.575625149804,46.0
14172.575687647017,282.0
14172.57575014423,402.0
14172.575812641442,360.0
14172.575875138655,78.0
14172.575937635867,-13.0
14172.57600013308,104.0
14172.576062630293,-126.0
14172.576125127503,-318.0
14172.576187624716,-184.0
14172.576250121929,-168.0
14172.576312619141,-54.0
14172.576375116354,179.0
14172.576437613567,48.0
14172.57650011078,-191.0
14172.576562607992,-366.0
14172.576625105205,-313.0
14172.576687602417,149.0
14172.57675009963,468.0
14172.576812596843,406.0
14172.576875094053,555.0
14172.576937591266,525.0
14172.577000088479,360.0
14172.577062585691,472.0
14172.577125082904,234.0
14172.577187580117,129.0
14172.57725007733,404.0
14172.577312574542,331.0
14172.577375071754,234.0
14172.577437568967,214.0
14172.577500066178,163.0
14172.57756256339,224.0
14172.577625060603,239.0
14172.577687557816,175.0
14172.577750055028,169.0
14172.577812552241,200.0
14172.577875049454,244.0
14172.577937546666,281.0
14172.578000043879,245.0
14172.578062541092,249.0
14172.578125038304,324.0
14172.578187535517,398.0
14172.578250032728,360.0
14172.57831252994,386.0
14172.578375027153,540.0
14172.578437524366,410.0
14172.578500021578,334.0
14172.578562518791,404.0
14172.578625016004,382.0
14172.578687513216,545.0
14172.578750010429,557.0
14172.578812507641,353.0
14172.578875004852,396.0
14172.578937502065,447.0
14172.578999999278,305.0
14172.57906249649,387.0
14172.579124993703,590.0
14172.579187490916,572.0
14172.579249988128,547.0
14172.57931248534,408.0
14172.579374982553,384.0
14172.579437479766,497.0
14172.579499976979,528.0
14172.579562474191,480.0
14172.579624971402,347.0
14172.579687468615,432.0
14172.579749965827,468.0
14172.57981246304,300.0
14172.579874960253,247.0
14172.579937457465,142.0
14172.579999954678,22.0
14172.58006245189,139.0
14172.580124949103,425.0
14172.580187446316,551.0
14172.580249943527,399.0
14172.58031244074,254.0
14172.580374937952,235.0
14172.580437435165,235.0
14172.580499932377,279.0
14172.58056242959,321.0
14172.580624926803,306.0
14172.580687424015,284.0
14172.580749921228,269.0
14172.58081241844,286.0
14172.580874915653,263.0
14172.580937412866,353.0
14172.580999910077,520.0
14172.58106240729,570.0
14172.581124904502,699.0
14172.581187401714,769.0
14172.581249898927,571.0
14172.58131239614,394.0
14172.581374893352,394.0
14172.581437390565,397.0
14172.581499887778,320.0
14172.58156238499,320.0
14172.581624882201,356.0
14172.581687379414,295.0
14172.581749876626,256.0
14172.581812373839,162.0
14172.581874871052,32.0
14172.581937368264,-71.0
14172.581999865477,-45.0
14172.58206236269,46.0
14172.582124859902,93.0
14172.582187357115,100.0
14172.582249854328,90.0
14172.582312351538,184.0
14172.582374848751,204.0
14172.582437345964,36.0
14172.582499843176,58.0
14172.582562340389,240.0
14172.582624837602,329.0
14172.582687334814,391.0
14172.582749832027,485.0
14172.58281232924,422.0
14172.582874826452,264.0
14172.582937323665,192.0
14172.582999820876,107.0
14172.583062318088,56.0
14172.5831248153,79.0
14172.583187312513,87.0
14172.583249809726,41.0
14172.583312306939,-48.0
14172.583374804151,-64.0
14172.583437301364,10.0
14172.583499798577,19.0
14172.58356229579,-195.0
14172.583624793002,-273.0
14172.583687290213,-36.0
14172.583749787425,134.0
14172.583812284638,326.0
14172.58387478185,376.0
14172.583937279063,197.0
14172.583999776276,92.0
14172.584062273489,66.0
14172.584124770701,130.0
14172.584187267914,77.0
14172.584249765127,-83.0
14172.58431226234,58.0
14172.58437475955,352.0
14172.584437256763,514.0
14172.584499753975,451.0
14172.584562251188,261.0
14172.5846247484,226.0
14172.584687245613,91.0
14172.584749742826,41.0
14172.584812240038,249.0
14172.584874737251,218.0
14172.584937234464,11.0
14172.584999731676,21.0
14172.585062228887,163.0
14172.5851247261,40.0
14172.585187223312,-65.0
14172.585249720525,3.0
14172.585312217738,-59.0
14172.58537471495,-121.0
14172.585437212163,6.0
14172.585499709376,132.0
14172.585562206588,134.0
14172.585624703801,203.0
14172.585687201012,72.0
14172.585749698224,-104.0
14172.585812195437,-111.0
14172.58587469265,-244.0
14172.585937189862,-165.0
14172.585999687075,10.0
14172.586062184288,-125.0
14172.5861246815,-160.0
14172.586187178713,-34.0
14172.586249675926,82.0
14172.586312173138,51.0
14172.58637467035,-151.0
14172.586437167562,-181.0
14172.586499664774,-34.0
14172.586562161987,145.0
14172.5866246592,208.0
14172.586687156412,196.0
14172.586749653625,275.0
14172.586812150837,158.0
14172.58687464805,-28.0
14172.586937145263,-36.0
14172.586999642475,-20.0
14172.587062139686,-9.0
14172.587124636899,42.0
14172.587187134111,133.0
14172.587249631324,207.0
14172.587312128537,199.0
14172.58737462575,210.0
14172.587437122962,158.0
14172.587499620175,183.0
14172.587562117387,287.0
14172.5876246146,26.0
14172.587687111813,-273.0
14172.587749609025,-202.0
