0,1
14293.127248254681,24.0
14293.127310751894,28.0
14293.127373249106,18.0
14293.127435746319,21.0
14293.127498243532,36.0
14293.127560740744,63.0
14293.127623237957,49.0
14293.12768573517,37.0
14293.127748232382,48.0
14293.127810729593,33.0
14293.127873226806,53.0
14293.127935724018,25.0
14293.12799822123,30.0
14293.128060718444,62.0
14293.128123215656,43.0
14293.128185712869,68.0
14293.128248210081,83.0
14293.128310707294,61.0
14293.128373204507,67.0
14293.12843570172,95.0
14293.12849819893,96.0
14293.128560696143,89.0
14293.128623193355,91.0
14293.128685690568,111.0
14293.12874818778,97.0
14293.128810684993,80.0
14293.128873182206,112.0
14293.128935679419,59.0
14293.128998176631,70.0
14293.129060673844,122.0
14293.129123171057,104.0
14293.129185668267,129.0
14293.12924816548,120.0
14293.129310662693,105.0
14293.129373159905,118.0
14293.129435657118,92.0
14293.12949815433,71.0
14293.129560651543,72.0
14293.129623148756,68.0
14293.129685645968,65.0
14293.129748143181,74.0
14293.129810640394,98.0
14293.129873137605,103.0
14293.129935634817,52.0
14293.12999813203,84.0
14293.130060629243,109.0
14293.130123126455,54.0
14293.130185623668,68.0
14293.13024812088,75.0
14293.130310618093,84.0
14293.130373115306,90.0
14293.130435612518,104.0
14293.130498109731,110.0
14293.130560606942,99.0
14293.130623104154,87.0
14293.130685601367,100.0
14293.13074809858,93.0
14293.130810595792,77.0
14293.130873093005,94.0
14293.130935590218,64.0
14293.13099808743,84.0
14293.131060584643,102.0
14293.131123081856,69.0
14293.131185579066,88.0
14293.131248076279,61.0
14293.131310573492,58.0
14293.131373070704,60.0
14293.131435567917,56.0
14293.13149806513,55.0
14293.131560562342,55.0
14293.131623059555,57.0
14293.131685556767,55.0
14293.13174805398,56.0
14293.131810551193,59.0
14293.131873048405,55.0
14293.131935545616,15.0
14293.131998042829,63.0
14293.132060540041,96.0
14293.132123037254,34.0
14293.132185534467,48.0
14293.13224803168,60.0
14293.132310528892,62.0
14293.132373026105,39.0
14293.132435523317,32.0
14293.13249802053,28.0
14293.13256051774,25.0
14293.132623014953,55.0
14293.132685512166,50.0
14293.132748009379,36.0
14293.132810506591,38.0
14293.132873003804,45.0
14293.132935501017,33.0
14293.13299799823,104.0
14293.133060495442,121.0
14293.133122992655,62.0
14293.133185489867,58.0
14293.13324798708,47.0
14293.13331048429,56.0
14293.133372981503,71.0
14293.133435478716,47.0
14293.133497975929,76.0
14293.133560473141,73.0
14293.133622970354,30.0
14293.133685467566,40.0
14293.13374796478,33.0
14293.133810461992,50.0
14293.133872959204,26.0
14293.133935456415,-37.0
14293.133997953628,-21.0
14293.13406045084,12.0
14293.134122948053,-26.0
14293.134185445266,-22.0
14293.134247942478,4.0
14293.134310439691,-15.0
14293.134372936904,1.0
14293.134435434116,-2.0
14293.134497931329,-19.0
14293.134560428542,26.0
14293.134622925754,63.0
14293.134685422965,55.0
14293.134747920178,41.0
14293.13481041739,54.0
14293.134872914603,54.0
14293.134935411816,-1.0
14293.134997909028,13.0
14293.13506040624,31.0
14293.135122903454,-1.0
14293.135185400666,21.0
14293.135247897879,11.0
14293.13531039509,19.0
14293.135372892302,31.0
14293.135435389515,31.0
14293.135497886728,27.0
14293.13556038394,33.0
14293.135622881153,28.0
14293.135685378365,36.0
14293.135747875578,28.0
14293.13581037279,17.0
14293.135872870003,26.0
14293.135935367216,2.0
14293.135997864429,43.0
14293.13606036164,63.0
14293.136122858852,35.0
14293.136185356065,35.0
14293.136247853277,12.0
14293.13631035049,2.0
14293.136372847703,20.0
14293.136435344915,-1.0
14293.136497842128,-9.0
14293.13656033934,-1.0
14293.136622836553,-10.0
14293.136685333764,17.0
14293.136747830977,16.0
14293.13681032819,4.0
14293.136872825402,30.0
14293.136935322615,-13.0
14293.136997819827,-11.0
14293.13706031704,34.0
14293.137122814253,18.0
14293.137185311465,20.0
14293.137247808678,24.0
14293.13731030589,24.0
14293.137372803103,17.0
14293.137435300314,7.0
14293.137497797527,25.0
14293.13756029474,29.0
14293.137622791952,-23.0
14293.137685289164,-24.0
14293.137747786377,-17.0
14293.13781028359,-24.0
14293.137872780802,2.0
14293.137935278015,-42.0
14293.137997775228,-14.0
14293.138060272438,-5.0
14293.138122769651,-51.0
14293.138185266864,-43.0
14293.138247764076,-64.0
14293.138310261289,-48.0
14293.138372758502,-21.0
14293.138435255714,-20.0
14293.138497752927,-30.0
14293.13856025014,-32.0
14293.138622747352,-10.0
14293.138685244565,-17.0
14293.138747741777,-38.0
14293.138810238988,-50.0
14293.138872736201,-53.0
14293.138935233414,-83.0
14293.138997730626,-80.0
14293.139060227839,-48.0
14293.139122725051,-49.0
14293.139185222264,-52.0
14293.139247719477,-41.0
14293.13931021669,-51.0
14293.139372713902,-49.0
14293.139435211113,-38.0
14293.139497708326,-49.0
14293.139560205538,-29.0
14293.13962270275,-28.0
14293.139685199963,-24.0
14293.139747697176,-15.0
14293.139810194389,-52.0
14293.139872691601,-56.0
14293.139935188814,-66.0
14293.139997686027,-60.0
14293.14006018324,-34.0
14293.14012268045,-19.0
14293.140185177663,-21.0
14293.140247674875,-44.0
14293.140310172088,-40.0
14293.1403726693,-25.0
14293.140435166513,-35.0
14293.140497663726,-50.0
14293.140560160939,-35.0
14293.140622658151,-35.0
14293.140685155364,-42.0
14293.140747652576,-29.0
14293.140810149787,-31.0
14293.140872647,-45.0
14293.140935144213,-88.0
14293.140997641425,-72.0
14293.141060138638,-46.0
14293.14112263585,-63.0
14293.141185133063,-64.0
14293.141247630276,-61.0
14293.141310127488,-71.0
14293.141372624701,-64.0
14293.141435121914,-56.0
14293.141497619124,-63.0
14293.141560116337,-46.0
14293.14162261355,-31.0
14293.141685110762,-29.0
14293.141747607975,-16.0
14293.141810105188,-37.0
14293.1418726024,-32.0
14293.141935099613,-30.0
14293.141997596826,-30.0
14293.142060094038,7.0
14293.14212259125,-1.0
14293.142185088462,21.0
14293.142247585674,33.0
14293.142310082887,17.0
14293.1423725801,35.0
14293.142435077312,53.0
14293.142497574525,39.0
14293.142560071738,26.0
14293.14262256895,56.0
14293.142685066163,69.0
14293.142747563375,55.0
14293.142810060588,69.0
14293.142872557799,65.0
14293.142935055012,10.0
14293.142997552224,37.0
14293.143060049437,75.0
14293.14312254665,46.0
14293.143185043862,29.0
14293.143247541075,16.0
14293.143310038287,37.0
14293.1433725355,51.0
14293.143435032713,41.0
14293.143497529923,15.0
14293.143560027136,38.0
14293.143622524349,37.0
14293.143685021561,33.0
14293.143747518774,57.0
14293.143810015987,55.0
14293.1438725132,66.0
14293.143935010412,25.0
14293.143997507625,40.0
14293.144060004837,76.0
14293.14412250205,48.0
14293.144184999263,54.0
14293.144247496473,60.0
14293.144309993686,66.0
14293.144372490899,80.0
14293.144434988111,75.0
14293.144497485324,85.0
14293.144559982537,112.0
14293.14462247975,99.0
14293.144684976962,95.0
14293.144747474174,69.0
14293.144809971387,65.0
14293.144872468598,97.0
14293.14493496581,37.0
14293.144997463023,85.0
14293.145059960236,140.0
14293.145122457448,69.0
14293.145184954661,75.0
14293.145247451874,105.0
14293.145309949086,98.0
14293.145372446299,88.0
14293.145434943512,88.0
14293.145497440724,87.0
14293.145559937937,69.0
14293.145622435148,67.0
14293.14568493236,79.0
14293.145747429573,85.0
14293.145809926786,72.0
14293.145872423998,72.0
14293.145934921211,70.0
14293.145997418424,87.0
14293.146059915636,119.0
14293.146122412849,101.0
14293.146184910061,99.0
14293.146247407272,98.0
14293.146309904485,117.0
14293.146372401698,117.0
14293.14643489891,103.0
14293.146497396123,103.0
14293.146559893336,100.0
14293.146622390548,123.0
14293.14668488776,123.0
14293.146747384973,94.0
14293.146809882186,94.0
14293.146872379399,123.0
14293.146934876611,110.0
14293.146997373822,155.0
14293.147059871035,174.0
14293.147122368247,146.0
14293.14718486546,170.0
14293.147247362673,155.0
14293.147309859885,163.0
14293.147372357098,177.0
14293.14743485431,180.0
14293.147497351523,184.0
14293.147559848736,180.0
14293.147622345947,187.0
14293.14768484316,178.0
14293.147747340372,179.0
14293.147809837585,174.0
14293.147872334797,186.0
14293.14793483201,147.0
14293.147997329223,150.0
14293.148059826435,169.0
14293.148122323648,137.0
14293.14818482086,166.0
14293.148247318073,184.0
14293.148309815286,195.0
14293.148372312497,203.0
14293.14843480971,185.0
14293.148497306922,181.0
14293.148559804134,187.0
14293.148622301347,188.0
14293.14868479856,185.0
14293.148747295772,188.0
14293.148809792985,198.0
14293.148872290198,179.0
14293.14893478741,142.0
14293.148997284621,202.0
14293.149059781834,259.0
14293.149122279046,218.0
14293.149184776259,208.0
14293.149247273472,212.0
14293.149309770684,195.0
14293.149372267897,197.0
14293.14943476511,240.0
14293.149497262322,246.0
14293.149559759535,237.0
14293.149622256748,235.0
14293.14968475396,238.0
14293.149747251171,253.0
14293.149809748384,250.0
14293.149872245596,266.0
14293.149934742809,238.0
14293.149997240022,261.0
14293.150059737234,295.0
14293.150122234447,259.0
14293.15018473166,243.0
14293.150247228872,243.0
14293.150309726085,253.0
14293.150372223296,227.0
14293.150434720508,214.0
14293.15049721772,232.0
14293.150559714933,239.0
14293.150622212146,243.0
14293.150684709359,248.0
14293.150747206571,237.0
14293.150809703784,219.0
14293.150872200997,228.0
14293.15093469821,199.0
14293.150997195422,211.0
14293.151059692633,230.0
14293.151122189845,217.0
14293.151184687058,198.0
14293.15124718427,184.0
14293.151309681483,197.0
14293.151372178696,177.0
14293.151434675909,184.0
14293.151497173121,202.0
14293.151559670334,187.0
14293.151622167547,188.0
14293.15168466476,207.0
14293.15174716197,202.0
14293.151809659183,199.0
14293.151872156395,193.0
14293.151934653608,161.0
14293.15199715082,192.0
14293.152059648033,231.0
14293.152122145246,201.0
14293.152184642458,179.0
14293.152247139671,191.0
14293.152309636884,197.0
14293.152372134096,212.0
14293.152434631307,196.0
14293.15249712852,198.0
14293.152559625732,201.0
14293.152622122945,146.0
14293.152684620158,156.0
14293.15274711737,173.0
14293.152809614583,177.0
14293.152872111796,204.0
14293.152934609008,160.0
14293.152997106221,195.0
14293.153059603434,242.0
14293.153122100644,174.0
14293.153184597857,171.0
14293.15324709507,199.0
14293.153309592282,214.0
14293.153372089495,232.0
14293.153434586708,243.0
14293.15349708392,246.0
14293.153559581133,238.0
14293.153622078346,235.0
14293.153684575558,240.0
14293.15374707277,232.0
14293.153809569982,231.0
14293.153872067194,236.0
14293.153934564407,214.0
14293.15399706162,227.0
14293.154059558832,257.0
14293.154122056045,245.0
14293.154184553257,243.0
14293.15424705047,235.0
14293.154309547683,213.0
14293.154372044895,206.0
14293.154434542106,231.0
14293.154497039319,239.0
14293.154559536531,229.0
14293.154622033744,211.0
14293.154684530957,240.0
14293.15474702817,262.0
14293.154809525382,254.0
14293.154872022595,253.0
14293.154934519807,215.0
14293.15499701702,239.0
14293.155059514233,276.0
14293.155122011445,246.0
14293.155184508656,254.0
14293.155247005869,266.0
14293.155309503081,248.0
14293.155372000294,249.0
14293.155434497507,265.0
14293.15549699472,248.0
14293.155559491932,257.0
14293.155621989144,253.0
14293.155684486357,244.0
14293.15574698357,258.0
14293.15580948078,242.0
14293.155871977993,258.0
14293.155934475206,244.0
14293.155996972419,272.0
14293.156059469631,317.0
14293.156121966844,280.0
14293.156184464056,283.0
14293.156246961269,287.0
14293.156309458482,272.0
14293.156371955694,275.0
14293.156434452907,269.0
14293.15649695012,278.0
14293.15655944733,303.0
14293.156621944543,267.0
14293.156684441756,257.0
14293.156746938968,315.0
14293.156809436181,285.0
14293.156871933394,291.0
14293.156934430606,271.0
14293.156996927819,288.0
14293.157059425032,331.0
14293.157121922244,285.0
14293.157184419455,297.0
14293.157246916668,313.0
14293.15730941388,344.0
14293.157371911093,348.0
14293.157434408306,316.0
14293.157496905518,312.0
14293.15755940273,327.0
14293.157621899943,318.0
14293.157684397156,328.0
14293.157746894369,339.0
14293.157809391581,302.0
14293.157871888794,310.0
14293.157934386005,277.0
14293.157996883217,286.0
14293.15805938043,313.0
14293.158121877643,294.0
14293.158184374855,326.0
14293.158246872068,336.0
14293.15830936928,325.0
14293.158371866493,333.0
14293.158434363706,332.0
14293.158496860919,348.0
14293.15855935813,371.0
14293.158621855342,345.0
14293.158684352555,335.0
14293.158746849767,323.0
14293.15880934698,324.0
14293.158871844193,349.0
14293.158934341405,310.0
14293.158996838618,342.0
14293.15905933583,391.0
14293.159121833043,363.0
14293.159184330256,349.0
14293.159246827468,332.0
14293.15930932468,337.0
14293.159371821892,329.0
14293.159434319105,322.0
14293.159496816317,326.0
14293.15955931353,327.0
14293.159621810742,333.0
14293.159684307955,334.0
14293.159746805168,309.0
14293.15980930238,318.0
14293.159871799593,344.0
14293.159934296804,290.0
14293.159996794016,314.0
14293.16005929123,334.0
14293.160121788442,316.0
14293.160184285654,342.0
14293.160246782867,319.0
14293.16030928008,328.0
14293.160371777292,336.0
14293.160434274505,351.0
14293.160496771718,363.0
14293.16055926893,349.0
14293.160621766143,369.0
14293.160684263354,381.0
14293.160746760566,378.0
14293.160809257779,385.0
14293.160871754992,393.0
14293.160934252204,340.0
14293.160996749417,354.0
14293.16105924663,417.0
14293.161121743842,352.0
14293.161184241055,335.0
14293.161246738267,394.0
14293.161309235478,374.0
14293.16137173269,355.0
14293.161434229904,371.0
14293.161496727116,371.0
14293.161559224329,356.0
14293.161621721541,333.0
14293.161684218754,374.0
14293.161746715967,379.0
14293.16180921318,365.0
14293.161871710392,389.0
14293.161934207605,339.0
14293.161996704815,358.0
14293.162059202028,388.0
14293.16212169924,325.0
14293.162184196453,353.0
14293.162246693666,350.0
14293.162309190879,299.0
14293.162371688091,344.0
14293.162434185304,251.0
14293.162496682517,355.0
14293.16255917973,389.0
14293.162621676942,338.0
14293.162684174153,156.0
14293.162746671365,172.0
14293.162809168578,486.0
14293.16287166579,451.0
14293.162934163003,440.0
14293.162996660216,247.0
14293.163059157429,203.0
14293.163121654641,269.0
14293.163184151854,480.0
14293.163246649066,492.0
14293.163309146279,381.0
14293.16337164349,251.0
14293.163434140703,179.0
14293.163496637915,333.0
14293.163559135128,510.0
14293.16362163234,470.0
14293.163684129553,323.0
14293.163746626766,273.0
14293.163809123978,275.0
14293.163871621191,438.0
14293.163934118404,451.0
14293.163996615616,397.0
14293.164059112827,366.0
14293.16412161004,324.0
14293.164184107252,354.0
14293.164246604465,387.0
14293.164309101678,392.0
14293.16437159889,342.0
14293.164434096103,328.0
14293.164496593316,369.0
14293.164559090528,384.0
14293.16462158774,339.0
14293.164684084953,325.0
14293.164746582164,338.0
14293.164809079377,363.0
14293.16487157659,384.0
14293.164934073802,331.0
14293.164996571015,318.0
14293.165059068227,325.0
14293.16512156544,335.0
14293.165184062653,382.0
14293.165246559865,435.0
14293.165309057078,407.0
14293.165371554289,335.0
14293.165434051502,353.0
14293.165496548714,410.0
14293.165559045927,450.0
14293.16562154314,435.0
14293.165684040352,409.0
14293.165746537565,369.0
14293.165809034777,381.0
14293.16587153199,432.0
14293.165934029203,393.0
14293.165996526415,426.0
14293.166059023628,437.0
14293.166121520839,360.0
14293.166184018051,389.0
14293.166246515264,419.0
14293.166309012477,412.0
14293.16637150969,374.0
14293.166434006902,374.0
14293.166496504115,410.0
14293.166559001327,417.0
14293.16662149854,423.0
14293.166683995752,428.0
14293.166746492963,423.0
14293.166808990176,443.0
14293.166871487389,453.0
14293.166933984601,393.0
14293.166996481814,419.0
14293.167058979026,442.0
14293.16712147624,412.0
14293.167183973452,427.0
14293.167246470664,402.0
14293.167308967877,387.0
14293.16737146509,406.0
14293.167433962302,408.0
14293.167496459513,416.0
14293.167558956726,446.0
14293.167621453938,442.0
14293.167683951151,398.0
14293.167746448364,423.0
14293.167808945576,459.0
14293.167871442789,466.0
14293.167933940002,454.0
14293.167996437214,477.0
14293.168058934427,522.0
14293.168121431638,506.0
14293.16818392885,525.0
14293.168246426063,548.0
14293.168308923276,550.0
14293.168371420488,600.0
14293.1684339177,644.0
14293.168496414914,756.0
14293.168558912126,882.0
14293.168621409339,1042.0
14293.168683906551,3370.0
14293.168746403764,8081.0
14293.168808900977,11386.0
14293.168871398188,11229.0
14293.1689338954,9123.0
14293.168996392613,6303.0
14293.169058889825,2436.0
14293.169121387038,-1250.0
14293.16918388425,-2402.0
14293.169246381463,-2075.0
14293.169308878676,-1588.0
14293.169371375889,-467.0
14293.169433873101,961.0
14293.169496370312,1844.0
14293.169558867525,1889.0
14293.169621364737,1451.0
14293.16968386195,731.0
14293.169746359163,-213.0
14293.169808856375,-835.0
14293.169871353588,-315.0
14293.1699338508,1322.0
14293.169996348013,2889.0
14293.170058845226,3080.0
14293.170121342439,2178.0
14293.170183839651,468.0
14293.170246336862,-1758.0
14293.170308834075,-3434.0
14293.170371331287,-4045.0
14293.1704338285,-4055.0
14293.170496325713,-3803.0
14293.170558822925,-3095.0
14293.170621320138,-2383.0
14293.17068381735,-2603.0
14293.170746314563,-4006.0
14293.170808811776,-6140.0
14293.170871308987,-8427.0
14293.1709338062,-10413.0
14293.170996303412,-11292.0
14293.171058800624,-10181.0
14293.171121297837,-7261.0
14293.17118379505,-3570.0
14293.171246292262,-335.0
14293.171308789475,1783.0
14293.171371286688,2520.0
14293.1714337839,1736.0
14293.171496281113,264.0
14293.171558778326,-914.0
14293.171621275536,-1483.0
14293.171683772749,-1664.0
14293.171746269962,-1429.0
14293.171808767174,-660.0
14293.171871264387,210.0
14293.1719337616,473.0
14293.171996258812,208.0
14293.172058756025,-318.0
14293.172121253237,-1143.0
14293.17218375045,-1926.0
14293.172246247661,-1967.0
14293.172308744874,-906.0
14293.172371242086,964.0
14293.172433739299,2988.0
14293.172496236512,4687.0
14293.172558733724,5692.0
14293.172621230937,5704.0
14293.17268372815,4809.0
14293.172746225362,3634.0
14293.172808722575,2562.0
14293.172871219787,1715.0
14293.172933716998,1340.0
14293.17299621421,1700.0
14293.173058711423,2545.0
14293.173121208636,3306.0
14293.173183705849,3861.0
14293.173246203061,4140.0
14293.173308700274,4072.0
14293.173371197487,3799.0
14293.1734336947,3643.0
14293.173496191912,3965.0
14293.173558689125,4695.0
14293.173621186335,5555.0
14293.173683683548,6294.0
14293.17374618076,6631.0
14293.173808677973,6386.0
14293.173871175186,5654.0
14293.173933672399,4641.0
14293.173996169611,3653.0
14293.174058666824,2813.0
14293.174121164036,2281.0
14293.17418366125,2253.0
14293.174246158462,2607.0
14293.174308655673,3139.0
14293.174371152885,3493.0
14293.174433650098,3518.0
14293.17449614731,3217.0
14293.174558644523,2501.0
14293.174621141736,1441.0
14293.174683638948,107.0
14293.174746136161,-1251.0
14293.174808633374,-2564.0
14293.174871130586,-4175.0
14293.174933627799,-6009.0
14293.17499612501,-8347.0
14293.175058622222,-11788.0
14293.175121119435,-16080.0
14293.175183616648,-20586.0
14293.17524611386,-24748.0
14293.175308611073,-28063.0
14293.175371108286,-28728.0
14293.175433605498,-24838.0
14293.17549610271,-17954.0
14293.175558599924,-9329.0
14293.175621097136,1967.0
14293.175683594347,14584.0
14293.17574609156,22852.0
14293.175808588772,23008.0
14293.175871085985,18154.0
14293.175933583198,12505.0
14293.17599608041,6376.0
14293.176058577623,94.0
14293.176121074835,-4054.0
14293.176183572048,-4686.0
14293.17624606926,-4177.0
14293.176308566472,-4830.0
14293.176371063684,-5630.0
14293.176433560897,-5595.0
14293.17649605811,-5832.0
14293.176558555322,-6704.0
14293.176621052535,-6538.0
14293.176683549747,-3813.0
14293.17674604696,778.0
14293.176808544173,6326.0
14293.176871041385,12232.0
14293.176933538598,16650.0
14293.17699603581,17690.0
14293.177058533021,14928.0
14293.177121030234,9807.0
14293.177183527447,4136.0
14293.17724602466,-971.0
14293.177308521872,-4412.0
14293.177371019085,-5755.0
14293.177433516297,-5354.0
14293.17749601351,-3704.0
14293.177558510723,-1280.0
14293.177621007935,1080.0
14293.177683505146,2385.0
14293.177746002359,2602.0
14293.177808499571,2611.0
14293.177870996784,3004.0
14293.177933493997,4095.0
14293.17799599121,6193.0
14293.178058488422,8909.0
14293.178120985634,11143.0
14293.178183482847,11811.0
14293.17824598006,10611.0
14293.178308477272,8043.0
14293.178370974485,4425.0
14293.178433471696,474.0
14293.178495968908,-2727.0
14293.178558466121,-4438.0
14293.178620963334,-4633.0
14293.178683460546,-3743.0
14293.178745957759,-1934.0
14293.178808454972,245.0
14293.178870952184,1901.0
14293.178933449397,2829.0
14293.17899594661,3540.0
14293.17905844382,4060.0
14293.179120941033,3895.0
14293.179183438246,4168.0
14293.179245935458,6759.0
14293.179308432671,10782.0
14293.179370929884,13301.0
14293.179433427096,13053.0
14293.179495924309,10962.0
14293.179558421522,7374.0
14293.179620918734,2752.0
14293.179683415947,-940.0
14293.17974591316,-2568.0
14293.17980841037,-2684.0
14293.179870907583,-1636.0
14293.179933404796,310.0
14293.179995902008,2613.0
14293.18005839922,4566.0
14293.180120896433,5729.0
14293.180183393646,5846.0
14293.180245890859,4892.0
14293.180308388071,3201.0
14293.180370885284,1463.0
14293.180433382495,425.0
14293.180495879707,306.0
14293.18055837692,177.0
14293.180620874133,-620.0
14293.180683371345,-2308.0
14293.180745868558,-4905.0
14293.18080836577,-7923.0
14293.180870862983,-10584.0
14293.180933360196,-12697.0
14293.180995857409,-14658.0
14293.181058354621,-16957.0
14293.181120851834,-19838.0
14293.181183349045,-23850.0
14293.181245846257,-29012.0
14293.18130834347,-32768.0
14293.181370840683,-29539.0
14293.181433337895,-10553.0
14293.181495835108,14897.0
14293.18155833232,28350.0
14293.181620829533,28176.0
14293.181683326746,24621.0
14293.181745823958,20019.0
14293.18180832117,9406.0
14293.181870818382,-2606.0
14293.181933315595,-8142.0
14293.181995812807,-8211.0
14293.18205831002,-8976.0
14293.182120807232,-10016.0
14293.182183304445,-6623.0
14293.182245801658,-1726.0
14293.18230829887,-1585.0
14293.182370796083,-5621.0
14293.182433293296,-9387.0
14293.182495790508,-10973.0
14293.182558287719,-9705.0
14293.182620784932,-3212.0
14293.182683282144,7774.0
14293.182745779357,16802.0
14293.18280827657,20064.0
14293.182870773782,18518.0
14293.182933270995,14115.0
14293.182995768208,7577.0
14293.18305826542,194.0
14293.183120762633,-5774.0
14293.183183259844,-9564.0
14293.183245757056,-11032.0
14293.183308254269,-8804.0
14293.183370751482,-3128.0
14293.183433248694,2548.0
14293.183495745907,5094.0
14293.18355824312,4964.0
14293.183620740332,3857.0
14293.183683237545,2119.0
14293.183745734757,895.0
14293.18380823197,2305.0
14293.18387072918,6196.0
14293.183933226393,10030.0
14293.183995723606,12106.0
14293.184058220819,12556.0
14293.184120718031,11295.0
14293.184183215244,7783.0
14293.184245712457,2767.0
14293.18430820967,-1574.0
14293.184370706882,-4257.0
14293.184433204095,-5485.0
14293.184495701307,-4366.0
14293.184558198518,1343.0
14293.18462069573,9644.0
14293.184683192943,14675.0
14293.184745690156,14258.0
14293.184808187369,10730.0
14293.184870684581,5949.0
14293.184933181794,779.0
14293.184995679007,-2047.0
14293.18505817622,-319.0
14293.185120673432,3465.0
14293.185183170644,6336.0
14293.185245667855,7924.0
14293.185308165068,8082.0
14293.18537066228,6296.0
14293.185433159493,2832.0
14293.185495656706,-968.0
14293.185558153918,-3503.0
14293.185620651131,-4595.0
14293.185683148344,-4215.0
14293.185745645556,-2206.0
14293.185808142769,497.0
14293.185870639982,1698.0
14293.185933137192,-54.0
14293.185995634405,-3711.0
14293.186058131618,-7978.0
14293.18612062883,-12193.0
14293.186183126043,-14997.0
14293.186245623256,-16216.0
14293.186308120468,-16924.0
14293.186370617681,-18731.0
14293.186433114894,-22169.0
14293.186495612106,-27042.0
14293.186558109319,-32033.0
14293.18662060653,-29279.0
14293.186683103742,-12552.0
14293.186745600955,9885.0
14293.186808098168,23222.0
14293.18687059538,24699.0
14293.186933092593,22755.0
14293.186995589806,20067.0
14293.187058087018,12459.0
14293.18712058423,2881.0
14293.187183081443,-2195.0
14293.187245578654,-3235.0
14293.187308075867,-4917.0
14293.18737057308,-6578.0
14293.187433070292,-4345.0
14293.187495567505,-431.0
14293.187558064717,-322.0
14293.18762056193,-4273.0
14293.187683059143,-8701.0
14293.187745556355,-11187.0
14293.187808053568,-10606.0
14293.18787055078,-5158.0
14293.187933047993,4090.0
14293.187995545204,11885.0
14293.188058042417,15276.0
14293.18812053963,15090.0
14293.188183036842,12887.0
14293.188245534055,9039.0
14293.188308031267,4053.0
14293.18837052848,-584.0
14293.188433025693,-4114.0
14293.188495522905,-5816.0
14293.188558020118,-4438.0
14293.188620517329,-410.0
14293.188683014541,3500.0
14293.188745511754,4806.0
14293.188808008967,3864.0
14293.18887050618,2153.0
14293.188933003392,73.0
14293.188995500605,-1195.0
14293.189057997817,-83.0
14293.18912049503,3258.0
14293.189182992242,7000.0
14293.189245489455,9419.0
14293.189307986668,10595.0
14293.189370483879,10684.0
14293.189432981091,8901.0
14293.189495478304,5567.0
14293.189557975516,1914.0
14293.189620472729,-251.0
14293.189682969942,1063.0
14293.189745467154,4904.0
14293.189807964367,8660.0
14293.18987046158,10568.0
14293.189932958792,9499.0
14293.189995456003,5855.0
14293.190057953216,2047.0
14293.190120450428,-25.0
14293.190182947641,-416.0
14293.190245444854,60.0
14293.190307942066,1793.0
14293.190370439279,4105.0
14293.190432936492,5943.0
14293.190495433704,7039.0
14293.190557930917,7205.0
14293.19062042813,5862.0
14293.190682925342,3195.0
14293.190745422553,-10.0
14293.190807919766,-2279.0
14293.190870416978,-2957.0
14293.19093291419,-2818.0
14293.190995411403,-2927.0
14293.191057908616,-3669.0
14293.191120405829,-5245.0
14293.191182903041,-7538.0
14293.191245400254,-9791.0
14293.191307897467,-11432.0
14293.191370394678,-12677.0
14293.19143289189,-13744.0
14293.191495389103,-14939.0
14293.191557886315,-16656.0
14293.191620383528,-19172.0
14293.19168288074,-22874.0
14293.191745377953,-27011.0
14293.191807875166,-27099.0
14293.191870372379,-18002.0
14293.191932869591,-905.0
14293.191995366804,15527.0
14293.192057864017,23838.0
14293.192120361227,24030.0
14293.19218285844,20143.0
14293.192245355653,13507.0
14293.192307852865,5214.0
14293.192370350078,-1410.0
14293.19243284729,-4101.0
14293.192495344503,-4856.0
14293.192557841716,-5054.0
14293.192620338928,-3862.0
14293.192682836141,-1152.0
14293.192745333352,369.0
14293.192807830565,-1362.0
14293.192870327777,-5349.0
14293.19293282499,-9065.0
14293.192995322202,-10219.0
14293.193057819415,-7263.0
14293.193120316628,-412.0
14293.19318281384,7451.0
14293.193245311053,12804.0
14293.193307808266,14578.0
14293.193370305478,13478.0
14293.193432802691,10200.0
14293.193495299902,5638.0
14293.193557797114,1054.0
14293.193620294327,-2463.0
14293.19368279154,-4317.0
14293.193745288752,-3865.0
14293.193807785965,-1009.0
14293.193870283178,2755.0
14293.19393278039,5150.0
14293.193995277603,5296.0
14293.194057774816,3835.0
14293.194120272026,1676.0
14293.194182769239,-180.0
14293.194245266452,-471.0
14293.194307763664,1508.0
14293.194370260877,5833.0
14293.19443275809,11002.0
14293.194495255302,14865.0
14293.194557752515,16758.0
14293.194620249727,16380.0
14293.19468274694,12929.0
14293.194745244153,7233.0
14293.194807741365,1703.0
14293.194870238576,-1680.0
14293.194932735789,-2741.0
14293.194995233001,-1383.0
14293.195057730214,1988.0
14293.195120227427,5341.0
14293.19518272464,6881.0
14293.195245221852,6261.0
14293.195307719065,4297.0
14293.195370216277,2157.0
14293.19543271349,528.0
14293.1954952107,142.0
14293.195557707913,1451.0
14293.195620205126,3761.0
14293.195682702339,5725.0
14293.195745199551,6432.0
14293.195807696764,5768.0
14293.195870193977,3388.0
14293.19593269119,-370.0
14293.195995188402,-4018.0
14293.196057685615,-6787.0
14293.196120182827,-8492.0
14293.196182680038,-9025.0
14293.19624517725,-8796.0
14293.196307674463,-8504.0
14293.196370171676,-9097.0
14293.196432668889,-11012.0
14293.196495166101,-14145.0
14293.196557663314,-18332.0
14293.196620160526,-23023.0
14293.196682657739,-28727.0
14293.196745154952,-32212.0
14293.196807652164,-32768.0
14293.196870149375,-30093.0
14293.196932646588,-10105.0
14293.1969951438,16336.0
14293.197057641013,29780.0
14293.197120138226,29991.0
14293.197182635438,25357.0
14293.197245132651,18165.0
14293.197307629864,6808.0
14293.197370127076,-3077.0
14293.197432624289,-6040.0
14293.197495121502,-4731.0
14293.197557618712,-4387.0
14293.197620115925,-3817.0
14293.197682613138,-132.0
14293.19774511035,3359.0
14293.197807607563,1562.0
14293.197870104776,-4440.0
14293.197932601988,-10299.0
14293.1979950992,-13073.0
14293.198057596413,-11102.0
14293.198120093626,-3165.0
14293.198182590839,7758.0
14293.19824508805,15659.0
14293.198307585262,18211.0
14293.198370082475,16560.0
14293.198432579688,12210.0
14293.1984950769,5978.0
14293.198557574113,-412.0
14293.198620071325,-4946.0
14293.198682568538,-7061.0
14293.19874506575,-6555.0
14293.198807562963,-2918.0
14293.198870060176,2660.0
14293.198932557387,6946.0
14293.1989950546,7935.0
14293.199057551812,6326.0
14293.199120049025,3604.0
14293.199182546237,746.0
14293.19924504345,-689.0
14293.199307540663,1001.0
14293.199370037875,5268.0
14293.199432535088,8993.0
14293.1994950323,11469.0
14293.199557529511,15638.0
14293.199620026724,19376.0
14293.199682523937,17409.0
14293.19974502115,10808.0
14293.199807518362,4104.0
14293.199870015575,-1195.0
14293.199932512787,-4548.0
14293.19999501,-3991.0
14293.200057507212,421.0
14293.200120004425,5016.0
14293.200182501638,7709.0
14293.20024499885,7874.0
14293.200307496061,6512.0
14293.200369993274,4702.0
14293.200432490486,2415.0
14293.2004949877,220.0
14293.200557484912,-59.0
14293.200619982124,1462.0
14293.200682479337,3803.0
14293.20074497655,6449.0
14293.200807473762,8209.0
14293.200869970975,7014.0
14293.200932468186,2986.0
14293.200994965398,-1773.0
14293.201057462611,-6020.0
14293.201119959824,-8860.0
14293.201182457036,-9877.0
14293.201244954249,-9743.0
14293.201307451462,-9434.0
14293.201369948674,-9734.0
14293.201432445887,-11063.0
14293.2014949431,-13738.0
14293.201557440312,-17872.0
14293.201619937525,-23215.0
14293.201682434736,-29797.0
14293.201744931948,-32608.0
14293.20180742916,-32768.0
14293.201869926374,-31220.0
14293.201932423586,-8209.0
14293.201994920799,22736.0
14293.202057418011,32767.0
14293.202119915224,29217.0
14293.202182412437,22235.0
14293.20224490965,12550.0
14293.20230740686,-1345.0
14293.202369904073,-9860.0
14293.202432401285,-7788.0
14293.202494898498,-4584.0
14293.20255739571,-4771.0
14293.202619892923,-3100.0
14293.202682390136,2558.0
14293.202744887349,5544.0
14293.202807384561,1863.0
14293.202869881774,-5083.0
14293.202932378987,-11332.0
14293.2029948762,-14786.0
14293.20305737341,-12130.0
14293.203119870623,-1751.0
14293.203182367835,11173.0
14293.203244865048,17855.0
14293.20330736226,18118.0
14293.203369859473,15200.0
14293.203432356686,9571.0
14293.203494853899,2167.0
14293.203557351111,-3859.0
14293.203619848324,-6667.0
14293.203682345535,-7348.0
14293.203744842747,-6052.0
14293.20380733996,-1144.0
14293.203869837173,5698.0
14293.203932334385,9870.0
14293.203994831598,9379.0
14293.20405732881,6424.0
14293.204119826023,2826.0
14293.204182323236,-797.0
14293.204244820448,-2151.0
14293.204307317661,896.0
14293.204369814874,6129.0
14293.204432312084,9767.0
14293.204494809297,10808.0
14293.20455730651,11753.0
14293.204619803722,13086.0
14293.204682300935,12105.0
14293.204744798148,8563.0
14293.20480729536,5159.0
14293.204869792573,2633.0
14293.204932289786,462.0
14293.204994786998,-36.0
14293.205057284209,2339.0
14293.205119781422,5144.0
14293.205182278634,5995.0
14293.205244775847,5257.0
14293.20530727306,4446.0
14293.205369770272,4018.0
14293.205432267485,3623.0
14293.205494764698,3364.0
14293.20555726191,3726.0
14293.205619759123,4457.0
14293.205682256335,4813.0
14293.205744753548,5013.0
14293.205807250759,5392.0
14293.205869747972,5084.0
14293.205932245184,3181.0
14293.205994742397,236.0
14293.20605723961,-2604.0
14293.206119736822,-4710.0
14293.206182234035,-5968.0
14293.206244731247,-6558.0
14293.20630722846,-6901.0
14293.206369725673,-7517.0
14293.206432222883,-8744.0
14293.206494720096,-10572.0
14293.206557217309,-12826.0
14293.206619714521,-16016.0
14293.206682211734,-20425.0
14293.206744708947,-25450.0
14293.20680720616,-31036.0
14293.206869703372,-32768.0
14293.206932200585,-32537.0
14293.206994697797,-32768.0
14293.20705719501,-18728.0
14293.20711969222,7629.0
14293.207182189433,23788.0
14293.207244686646,28621.0
14293.207307183859,27376.0
14293.207369681071,21164.0
14293.207432178284,10577.0
14293.207494675496,1802.0
14293.20755717271,-2025.0
14293.207619669922,-3408.0
14293.207682167134,-4984.0
14293.207744664347,-4404.0
14293.207807161558,-512.0
14293.20786965877,2711.0
14293.207932155983,1218.0
14293.207994653196,-3644.0
14293.208057150408,-9345.0
14293.208119647621,-13139.0
14293.208182144834,-12252.0
14293.208244642046,-5069.0
14293.208307139259,5107.0
14293.208369636472,12801.0
14293.208432133684,16426.0
14293.208494630895,16487.0
14293.208557128108,13558.0
14293.20861962532,8271.0
14293.208682122533,2427.0
14293.208744619746,-2048.0
14293.208807116958,-4607.0
14293.20886961417,-4831.0
14293.208932111384,-2024.0
14293.208994608596,2880.0
14293.209057105809,6989.0
14293.209119603021,8042.0
14293.209182100232,6517.0
14293.209244597445,3565.0
14293.209307094658,515.0
14293.20936959187,-886.0
14293.209432089083,568.0
14293.209494586295,4104.0
14293.209557083508,8706.0
14293.20961958072,13595.0
14293.209682077933,16841.0
14293.209744575146,16589.0
14293.209807072359,13319.0
14293.20986956957,8825.0
14293.209932066782,4656.0
14293.209994563995,1724.0
14293.210057061207,790.0
14293.21011955842,1817.0
14293.210182055633,4017.0
14293.210244552845,6042.0
14293.210307050058,7003.0
14293.21036954727,6647.0
14293.210432044483,5100.0
14293.210494541694,2600.0
14293.210557038907,342.0
14293.21061953612,-303.0
14293.210682033332,1082.0
14293.210744530545,3984.0
14293.210807027757,6991.0
14293.21086952497,8512.0
14293.210932022183,7890.0
14293.210994519395,5454.0
14293.211057016608,1972.0
14293.21111951382,-1809.0
14293.211182011033,-4592.0
14293.211244508244,-6056.0
14293.211307005457,-6808.0
14293.21136950267,-7403.0
14293.211431999882,-8132.0
14293.211494497094,-9280.0
14293.211556994307,-11454.0
14293.21161949152,-15132.0
14293.211681988732,-19723.0
14293.211744485945,-24497.0
14293.211806983158,-29639.0
14293.211869480368,-32768.0
14293.211931977581,-32579.0
14293.211994474794,-32768.0
14293.212056972006,-31946.0
14293.212119469219,-15862.0
14293.212181966432,7857.0
14293.212244463644,22999.0
14293.212306960857,28557.0
14293.21236945807,26999.0
14293.212431955282,19808.0
14293.212494452495,9824.0
14293.212556949708,2084.0
14293.212619446918,-1570.0
14293.212681944131,-3208.0
14293.212744441344,-4424.0
14293.212806938556,-3706.0
14293.212869435769,-806.0
14293.212931932982,1203.0
14293.212994430194,-345.0
14293.213056927407,-4847.0
14293.21311942462,-9862.0
14293.213181921832,-12539.0
14293.213244419043,-10543.0
14293.213306916256,-3212.0
14293.213369413468,6077.0
14293.21343191068,13141.0
14293.213494407893,16304.0
14293.213556905106,15836.0
14293.213619402319,12445.0
14293.213681899531,7236.0
14293.213744396744,1956.0
14293.213806893957,-1989.0
14293.21386939117,-4136.0
14293.213931888382,-4025.0
14293.213994385593,-1121.0
14293.214056882805,3451.0
14293.214119380018,7110.0
14293.21418187723,8188.0
14293.214244374443,6768.0
14293.214306871656,4004.0
14293.214369368869,1241.0
14293.214431866081,16.0
14293.214494363294,1443.0
14293.214556860506,4566.0
14293.214619357717,8216.0
14293.21468185493,12505.0
14293.214744352143,16036.0
14293.214806849355,16554.0
14293.214869346568,14329.0
14293.21493184378,10561.0
14293.214994340993,6055.0
14293.215056838206,2282.0
14293.215119335418,507.0
14293.215181832631,816.0
14293.215244329844,2400.0
14293.215306827056,4663.0
14293.215369324267,6225.0
14293.21543182148,6185.0
14293.215494318692,5228.0
14293.215556815905,3683.0
14293.215619313118,1878.0
14293.21568181033,962.0
14293.215744307543,1470.0
14293.215806804756,3364.0
14293.215869301968,5900.0
14293.21593179918,7761.0
14293.215994296392,7880.0
14293.216056793604,6168.0
14293.216119290817,2783.0
14293.21618178803,-1692.0
14293.216244285242,-5680.0
14293.216306782455,-8090.0
14293.216369279668,-9275.0
14293.21643177688,-9805.0
14293.216494274093,-10122.0
14293.216556771305,-10888.0
14293.216619268518,-12606.0
14293.21668176573,-15768.0
14293.216744262942,-20045.0
14293.216806760154,-25680.0
14293.216869257367,-31337.0
14293.21693175458,-32768.0
14293.216994251792,-32345.0
14293.217056749005,-32768.0
14293.217119246217,-29309.0
14293.21718174343,-11799.0
14293.217244240643,8245.0
14293.217306737855,21570.0
14293.217369235066,26783.0
14293.217431732279,24592.0
14293.217494229491,17668.0
14293.217556726704,9381.0
14293.217619223917,2331.0
14293.21768172113,-1854.0
14293.217744218342,-3725.0
14293.217806715555,-3809.0
14293.217869212767,-2260.0
14293.21793170998,174.0
14293.217994207193,1064.0
14293.218056704403,-1143.0
14293.218119201616,-5731.0
14293.218181698829,-9884.0
14293.218244196041,-11205.0
14293.218306693254,-8067.0
14293.218369190467,-1109.0
14293.21843168768,6712.0
14293.218494184892,12701.0
14293.218556682104,15411.0
14293.218619179317,14745.0
14293.21868167653,11304.0
14293.21874417374,6219.0
14293.218806670953,1124.0
14293.218869168166,-2570.0
14293.218931665378,-4112.0
14293.218994162591,-2993.0
14293.219056659804,452.0
14293.219119157016,4656.0
14293.219181654229,7517.0
14293.219244151442,8021.0
14293.219306648654,6426.0
14293.219369145867,3869.0
14293.219431643078,1746.0
14293.21949414029,1415.0
14293.219556637503,3022.0
14293.219619134716,6045.0
14293.219681631928,10424.0
14293.219744129141,14754.0
14293.219806626354,16680.0
14293.219869123566,15903.0
14293.219931620779,13039.0
14293.219994117992,8762.0
14293.220056615204,4576.0
14293.220119112415,1907.0
14293.220181609628,1186.0
14293.22024410684,1824.0
14293.220306604053,3493.0
14293.220369101266,5291.0
14293.220431598478,6052.0
14293.22049409569,5763.0
14293.220556592903,4684.0
14293.220619090116,3087.0
14293.220681587329,2021.0
14293.220744084541,2071.0
14293.220806581752,3251.0
14293.220869078965,5333.0
14293.220931576177,7182.0
14293.22099407339,7656.0
14293.221056570603,6490.0
14293.221119067815,3951.0
14293.221181565028,291.0
14293.22124406224,-3685.0
14293.221306559453,-6948.0
14293.221369056666,-8906.0
14293.221431553877,-9689.0
14293.22149405109,-10032.0
14293.221556548302,-10695.0
14293.221619045515,-12083.0
14293.221681542727,-14765.0
14293.22174403994,-18826.0
14293.221806537153,-24091.0
14293.221869034365,-30088.0
14293.221931531578,-32768.0
14293.22199402879,-32647.0
14293.222056526003,-32733.0
14293.222119023216,-32768.0
14293.222181520427,-24180.0
14293.22224401764,-6749.0
14293.222306514852,9094.0
14293.222369012065,19625.0
14293.222431509277,23136.0
14293.22249400649,20407.0
14293.222556503702,14705.0
14293.222619000915,8275.0
14293.222681498128,2912.0
14293.22274399534,-495.0
14293.222806492551,-2000.0
14293.222868989764,-1986.0
14293.222931486976,-1069.0
14293.222993984189,-202.0
14293.223056481402,-813.0
14293.223118978614,-3512.0
14293.223181475827,-7067.0
14293.22324397304,-9352.0
14293.223306470252,-8534.0
14293.223368967465,-4230.0
14293.223431464678,2016.0
14293.22349396189,8319.0
14293.223556459101,12660.0
14293.223618956314,14005.0
14293.223681453526,12458.0
14293.223743950739,8914.0
14293.223806447952,4545.0
14293.223868945164,671.0
14293.223931442377,-1762.0
14293.22399393959,-2075.0
14293.224056436802,-332.0
14293.224118934015,2611.0
14293.224181431226,5510.0
14293.224243928438,7052.0
14293.22430642565,6761.0
14293.224368922864,5251.0
14293.224431420076,3625.0
14293.224493917289,2966.0
14293.224556414501,3853.0
14293.224618911714,6770.0
14293.224681408927,11274.0
14293.22474390614,15157.0
14293.224806403352,16647.0
14293.224868900565,15686.0
14293.224931397775,12670.0
14293.224993894988,8605.0
14293.2250563922,4839.0
14293.225118889413,2585.0
14293.225181386626,2130.0
14293.225243883839,2919.0
14293.225306381051,4492.0
14293.225368878264,6114.0
14293.225431375477,6964.0
14293.22549387269,6534.0
14293.2255563699,4875.0
14293.225618867113,2886.0
14293.225681364325,1563.0
14293.225743861538,1350.0
14293.22580635875,2458.0
14293.225868855963,4575.0
14293.225931353176,6641.0
14293.225993850388,7396.0
14293.226056347601,6405.0
14293.226118844814,3976.0
14293.226181342026,706.0
14293.226243839239,-2927.0
14293.22630633645,-6159.0
14293.226368833662,-8186.0
14293.226431330875,-9086.0
14293.226493828088,-9746.0
14293.2265563253,-10708.0
14293.226618822513,-12302.0
14293.226681319726,-14944.0
14293.226743816938,-18899.0
14293.226806314151,-23767.0
14293.226868811364,-29341.0
14293.226931308574,-32768.0
14293.226993805787,-32768.0
14293.227056303,-32652.0
14293.227118800212,-32768.0
14293.227181297425,-27040.0
14293.227243794638,-13422.0
14293.22730629185,654.0
14293.227368789063,12150.0
14293.227431286276,18623.0
14293.227493783488,18837.0
14293.2275562807,14711.0
14293.227618777913,9072.0
14293.227681275124,3978.0
14293.227743772337,381.0
14293.22780626955,-1536.0
14293.227868766762,-1828.0
14293.227931263975,-1132.0
14293.227993761187,-547.0
14293.2280562584,-989.0
14293.228118755613,-2666.0
14293.228181252825,-4912.0
14293.228243750038,-6799.0
14293.228306247249,-6899.0
14293.228368744461,-4313.0
14293.228431241674,520.0
14293.228493738887,6004.0
14293.2285562361,10440.0
14293.228618733312,12542.0
14293.228681230525,11926.0
14293.228743727737,9159.0
14293.22880622495,5492.0
14293.228868722163,2130.0
14293.228931219375,-221.0
14293.228993716586,-815.0
14293.229056213799,298.0
14293.229118711011,2275.0
14293.229181208224,4871.0
14293.229243705437,7411.0
14293.22930620265,7782.0
14293.229368699862,5508.0
14293.229431197075,4073.0
14293.229493694287,4737.0
14293.2295561915,6323.0
14293.229618688712,8268.0
14293.229681185923,10448.0
14293.229743683136,12506.0
14293.229806180349,13610.0
14293.229868677561,13113.0
14293.229931174774,10291.0
14293.229993671986,6942.0
14293.230056169199,4784.0
14293.230118666412,3822.0
14293.230181163624,3734.0
14293.230243660837,4252.0
14293.23030615805,5342.0
14293.23036865526,6807.0
14293.230431152473,7462.0
14293.230493649686,6373.0
14293.230556146898,4361.0
14293.230618644111,2825.0
14293.230681141324,2199.0
14293.230743638536,2315.0
14293.230806135749,3126.0
14293.230868632962,4238.0
14293.230931130174,5414.0
14293.230993627387,6217.0
14293.231056124598,5838.0
14293.23111862181,4121.0
14293.231181119023,1800.0
14293.231243616236,-753.0
14293.231306113448,-3213.0
14293.23136861066,-5503.0
14293.231431107874,-7445.0
14293.231493605086,-8759.0
14293.231556102299,-9887.0
14293.231618599511,-11734.0
14293.231681096724,-14620.0
14293.231743593935,-18000.0
14293.231806091148,-21763.0
14293.23186858836,-26238.0
14293.231931085573,-30887.0
14293.231993582785,-32768.0
14293.232056079998,-32636.0
14293.23211857721,-32768.0
14293.232181074423,-32340.0
14293.232243571636,-25792.0
14293.232306068849,-14799.0
14293.23236856606,-3338.0
14293.232431063272,7238.0
14293.232493560485,14591.0
14293.232556057697,17287.0
14293.23261855491,16164.0
14293.232681052123,12966.0
14293.232743549335,8707.0
14293.232806046548,4515.0
14293.23286854376,1297.0
14293.232931040973,-619.0
14293.232993538186,-1368.0
14293.233056035398,-1916.0
14293.23311853261,-2699.0
14293.233181029822,-3587.0
14293.233243527035,-4552.0
14293.233306024247,-5173.0
14293.23336852146,-4626.0
14293.233431018672,-2478.0
14293.233493515885,941.0
14293.233556013098,4776.0
14293.23361851031,8172.0
14293.233681007523,10199.0
14293.233743504734,10498.0
14293.233806001947,9353.0
14293.23386849916,7418.0
14293.233930996372,5109.0
14293.233993493584,3126.0
14293.234055990797,2045.0
14293.23411848801,2060.0
14293.234180985222,3044.0
14293.234243482435,4354.0
14293.234305979648,5464.0
14293.23436847686,6360.0
14293.234430974073,7126.0
14293.234493471284,7380.0
14293.234555968496,6939.0
14293.234618465709,6589.0
14293.234680962922,7035.0
14293.234743460134,8157.0
14293.234805957347,9662.0
14293.23486845456,11213.0
14293.234930951772,11972.0
14293.234993448985,11376.0
14293.235055946197,9825.0
14293.235118443408,7938.0
14293.235180940621,6536.0
14293.235243437834,5728.0
14293.235305935046,5305.0
14293.235368432259,5273.0
14293.235430929471,5467.0
14293.235493426684,5472.0
14293.235555923897,5186.0
14293.23561842111,4684.0
14293.235680918322,3994.0
14293.235743415535,3100.0
14293.235805912747,2486.0
14293.235868409958,2522.0
14293.23593090717,3122.0
14293.235993404383,3911.0
14293.236055901596,4427.0
14293.236118398809,4270.0
14293.236180896021,3231.0
14293.236243393234,1199.0
14293.236305890447,-1531.0
14293.23636838766,-4469.0
14293.236430884872,-7361.0
14293.236493382083,-9954.0
14293.236555879295,-11991.0
14293.236618376508,-13472.0
14293.23668087372,-15037.0
14293.236743370933,-17625.0
14293.236805868146,-21429.0
14293.236868365359,-26499.0
14293.236930862571,-31308.0
14293.236993359784,-32768.0
14293.237055856996,-32639.0
14293.237118354209,-32768.0
14293.237180851422,-32739.0
14293.237243348633,-25992.0
14293.237305845845,-13249.0
14293.237368343058,-359.0
14293.23743084027,10272.0
14293.237493337483,16006.0
14293.237555834696,16340.0
14293.237618331908,12964.0
14293.237680829121,8347.0
14293.237743326334,4238.0
14293.237805823546,1075.0
14293.237868320757,-906.0
14293.23793081797,-1516.0
14293.237993315182,-1302.0
14293.238055812395,-1096.0
14293.238118309608,-1485.0
14293.23818080682,-2548.0
14293.238243304033,-4165.0
14293.238305801246,-5458.0
14293.238368298458,-5045.0
14293.23843079567,-2402.0
14293.238493292884,1874.0
14293.238555790096,6423.0
14293.238618287307,9844.0
14293.23868078452,11240.0
14293.238743281732,10415.0
14293.238805778945,8037.0
14293.238868276158,5212.0
14293.23893077337,2650.0
14293.238993270583,996.0
14293.239055767795,696.0
14293.239118265008,1686.0
14293.23918076222,3571.0
14293.239243259432,5539.0
14293.239305756644,6971.0
14293.239368253857,7482.0
14293.23943075107,7293.0
14293.239493248282,7105.0
14293.239555745495,7265.0
14293.239618242707,7670.0
14293.23968073992,8338.0
14293.239743237133,9444.0
14293.239805734345,10901.0
14293.239868231558,12037.0
14293.239930728769,12257.0
14293.239993225981,11250.0
14293.240055723194,9203.0
14293.240118220407,6751.0
14293.24018071762,4849.0
14293.240243214832,4224.0
14293.240305712045,4988.0
14293.240368209257,6211.0
14293.24043070647,7015.0
14293.240493203682,7025.0
14293.240555700895,6389.0
14293.240618198106,5318.0
14293.240680695319,4155.0
14293.240743192531,3266.0
14293.240805689744,2739.0
14293.240868186957,2750.0
14293.24093068417,3443.0
14293.240993181382,4512.0
14293.241055678594,5283.0
14293.241118175807,5142.0
14293.24118067302,3734.0
14293.241243170232,1088.0
14293.241305667443,-2289.0
14293.241368164656,-5583.0
14293.241430661868,-8171.0
14293.241493159081,-9766.0
14293.241555656294,-10778.0
14293.241618153506,-11663.0
14293.241680650719,-12906.0
14293.241743147932,-15028.0
14293.241805645144,-18711.0
14293.241868142357,-23603.0
14293.24193063957,-28827.0
14293.24199313678,-32409.0
14293.242055633993,-32768.0
14293.242118131206,-32552.0
14293.242180628418,-32768.0
14293.242243125631,-30297.0
14293.242305622844,-21169.0
14293.242368120056,-10146.0
14293.242430617269,598.0
14293.242493114481,9309.0
14293.242555611694,13752.0
14293.242618108907,13775.0
14293.242680606118,11054.0
14293.24274310333,7369.0
14293.242805600543,3601.0
14293.242868097755,616.0
14293.242930594968,-1101.0
14293.24299309218,-1583.0
14293.243055589393,-1624.0
14293.243118086606,-2121.0
14293.243180583819,-2776.0
14293.243243081031,-3573.0
14293.243305578244,-4470.0
14293.243368075455,-4785.0
14293.243430572667,-3540.0
14293.24349306988,-626.0
14293.243555567093,3116.0
14293.243618064305,6688.0
14293.243680561518,9407.0
14293.24374305873,10458.0
14293.243805555943,9728.0
14293.243868053156,7629.0
14293.243930550369,5219.0
14293.243993047581,3220.0
14293.244055544792,1895.0
14293.244118042005,1654.0
14293.244180539217,2773.0
14293.24424303643,4475.0
14293.244305533643,5998.0
14293.244368030855,6952.0
14293.244430528068,7491.0
14293.24449302528,7569.0
14293.244555522493,7094.0
14293.244618019706,6510.0
14293.244680516917,6408.0
14293.24474301413,6947.0
14293.244805511342,8247.0
14293.244868008554,10555.0
14293.244930505767,12817.0
14293.24499300298,13607.0
14293.245055500192,12485.0
14293.245117997405,10111.0
14293.245180494618,7498.0
14293.24524299183,5530.0
14293.245305489043,4716.0
14293.245367986256,5066.0
14293.245430483466,5796.0
14293.245492980679,6292.0
14293.245555477892,6306.0
14293.245617975104,5971.0
14293.245680472317,5201.0
14293.24574296953,4075.0
14293.245805466742,2986.0
14293.245867963955,2643.0
14293.245930461168,3111.0
14293.24599295838,4282.0
14293.246055455591,5601.0
14293.246117952804,6175.0
14293.246180450016,5350.0
14293.246242947229,3080.0
14293.246305444442,-125.0
14293.246367941654,-3537.0
14293.246430438867,-6588.0
14293.24649293608,-8864.0
14293.246555433292,-10261.0
14293.246617930505,-10942.0
14293.246680427717,-11619.0
14293.24674292493,-12975.0
14293.24680542214,-15389.0
14293.246867919353,-19339.0
14293.246930416566,-24288.0
14293.246992913779,-28794.0
14293.247055410991,-31884.0
14293.247117908204,-32768.0
14293.247180405417,-32626.0
14293.24724290263,-32768.0
14293.247305399842,-31438.0
14293.247367897055,-24188.0
14293.247430394265,-13594.0
14293.247492891478,-2712.0
14293.24755538869,6433.0
14293.247617885903,11762.0
14293.247680383116,12786.0
14293.247742880329,11110.0
14293.247805377541,8527.0
14293.247867874754,5631.0
14293.247930371967,2513.0
14293.24799286918,9.0
14293.248055366392,-1777.0
14293.248117863604,-2947.0
14293.248180360815,-3358.0
14293.248242858028,-3267.0
14293.24830535524,-3228.0
14293.248367852453,-3441.0
14293.248430349666,-3671.0
14293.248492846878,-2869.0
14293.248555344091,-572.0
14293.248617841304,2619.0
14293.248680338516,6007.0
14293.248742835729,8721.0
14293.24880533294,10024.0
14293.248867830152,9751.0
14293.248930327365,8548.0
14293.248992824578,6878.0
14293.24905532179,5100.0
14293.249117819003,3517.0
14293.249180316216,2880.0
14293.249242813428,3065.0
14293.249305310641,4105.0
14293.249367807854,5459.0
14293.249430305066,6719.0
14293.249492802279,7486.0
14293.24955529949,7682.0
14293.249617796702,7378.0
14293.249680293915,7041.0
14293.249742791128,7268.0
14293.24980528834,8511.0
14293.249867785553,10273.0
14293.249930282765,11699.0
14293.249992779978,12279.0
14293.25005527719,11712.0
14293.250117774403,10241.0
14293.250180271614,8559.0
14293.250242768827,7295.0
14293.25030526604,6620.0
14293.250367763252,6500.0
14293.250430260465,6654.0
14293.250492757677,6877.0
14293.25055525489,6975.0
14293.250617752103,6713.0
14293.250680249315,5753.0
14293.250742746528,4421.0
14293.25080524374,3220.0
14293.250867740953,2605.0
14293.250930238164,2736.0
14293.250992735377,3575.0
14293.25105523259,4539.0
14293.251117729802,5007.0
14293.251180227015,4764.0
14293.251242724227,3731.0
14293.25130522144,2032.0
14293.251367718653,-182.0
14293.251430215865,-2728.0
14293.251492713078,-5272.0
14293.251555210289,-7522.0
14293.251617707501,-9306.0
14293.251680204714,-10833.0
14293.251742701927,-12448.0
14293.25180519914,-14402.0
14293.251867696352,-17294.0
14293.251930193564,-21448.0
14293.251992690777,-25830.0
14293.25205518799,-29617.0
14293.252117685202,-32316.0
14293.252180182415,-32768.0
14293.252242679626,-32672.0
14293.252305176838,-32768.0
14293.252367674051,-30253.0
14293.252430171264,-23226.0
14293.252492668476,-14089.0
14293.252555165689,-4093.0
14293.252617662902,4868.0
14293.252680160114,10628.0
14293.252742657327,12415.0
14293.25280515454,11318.0
14293.252867651752,8430.0
14293.252930148963,4831.0
14293.252992646176,1684.0
14293.253055143388,-444.0
14293.253117640601,-1789.0
14293.253180137814,-2388.0
14293.253242635026,-2675.0
14293.253305132239,-2838.0
14293.253367629452,-3104.0
14293.253430126664,-3345.0
14293.253492623877,-3352.0
14293.25355512109,-2527.0
14293.2536176183,-525.0
14293.253680115513,2462.0
14293.253742612726,5726.0
14293.253805109938,8375.0
14293.25386760715,9773.0
14293.253930104363,9713.0
14293.253992601576,8544.0
14293.254055098789,6785.0
14293.254117596001,4954.0
14293.254180093214,3637.0
14293.254242590427,3130.0
14293.254305087637,3354.0
14293.25436758485,4388.0
14293.254430082063,5751.0
14293.254492579275,6988.0
14293.254555076488,7823.0
14293.2546175737,8096.0
14293.254680070913,7713.0
14293.254742568126,7312.0
14293.254805065339,7425.0
14293.254867562551,8364.0
14293.254930059764,9912.0
14293.254992556975,11633.0
14293.255055054187,12530.0
14293.2551175514,12154.0
14293.255180048613,10878.0
14293.255242545825,9272.0
14293.255305043038,7799.0
14293.25536754025,6826.0
14293.255430037463,6384.0
14293.255492534676,6333.0
14293.255555031888,6407.0
14293.2556175291,6386.0
14293.255680026312,6022.0
14293.255742523525,5233.0
14293.255805020737,4264.0
14293.25586751795,3357.0
14293.255930015162,2920.0
14293.255992512375,3150.0
14293.256055009588,3856.0
14293.2561175068,4675.0
14293.256180004013,5179.0
14293.256242501226,4857.0
14293.256304998438,3719.0
14293.25636749565,1874.0
14293.256429992862,-387.0
14293.256492490074,-2899.0
14293.256554987287,-5390.0
14293.2566174845,-7628.0
14293.256679981712,-9415.0
14293.256742478925,-10835.0
14293.256804976138,-12132.0
14293.25686747335,-13514.0
14293.256929970563,-15459.0
14293.256992467774,-18510.0
14293.257054964986,-22388.0
14293.257117462199,-26243.0
14293.257179959412,-29454.0
14293.257242456624,-32005.0
14293.257304953837,-32768.0
14293.25736745105,-32768.0
14293.257429948262,-32433.0
14293.257492445475,-27764.0
14293.257554942687,-19498.0
14293.2576174399,-9904.0
14293.257679937113,-180.0
14293.257742434324,7174.0
14293.257804931536,10758.0
14293.257867428749,11475.0
14293.257929925961,10207.0
14293.257992423174,7547.0
14293.258054920387,4139.0
14293.2581174176,1045.0
14293.258179914812,-1170.0
14293.258242412025,-2451.0
14293.258304909237,-3101.0
14293.258367406448,-3212.0
14293.25842990366,-3177.0
14293.258492400873,-3366.0
14293.258554898086,-3537.0
14293.258617395299,-3017.0
14293.258679892511,-1303.0
14293.258742389724,1238.0
14293.258804886937,4161.0
14293.25886738415,6936.0
14293.258929881362,9079.0
14293.258992378574,9992.0
14293.259054875787,9732.0
14293.259117372998,8451.0
14293.25917987021,6784.0
14293.259242367423,5024.0
14293.259304864636,3776.0
14293.259367361848,3432.0
14293.259429859061,4101.0
14293.259492356274,5327.0
14293.259554853486,6622.0
14293.259617350699,7420.0
14293.259679847912,7592.0
14293.259742345123,7256.0
14293.259804842335,6978.0
14293.259867339548,7384.0
14293.25992983676,8383.0
14293.259992333973,9636.0
14293.260054831186,10692.0
14293.260117328398,11121.0
14293.260179825611,10837.0
14293.260242322824,10169.0
14293.260304820036,9342.0
14293.260367317249,8715.0
14293.260429814462,8167.0
14293.260492311672,7781.0
14293.260554808885,7410.0
14293.260617306098,7035.0
14293.26067980331,6582.0
14293.260742300523,5925.0
14293.260804797736,4925.0
14293.260867294948,3892.0
14293.26092979216,3015.0
14293.260992289373,2667.0
14293.261054786586,2904.0
14293.261117283797,3521.0
14293.26117978101,4224.0
14293.261242278222,4742.0
14293.261304775435,4646.0
14293.261367272647,3775.0
14293.26142976986,2388.0
14293.261492267073,568.0
14293.261554764285,-1504.0
14293.261617261498,-3526.0
14293.26167975871,-5397.0
14293.261742255923,-7213.0
14293.261804753136,-8958.0
14293.261867250347,-10834.0
14293.26192974756,-12993.0
14293.261992244772,-15518.0
14293.262054741985,-18692.0
14293.262117239197,-22498.0
14293.26217973641,-25810.0
14293.262242233623,-28179.0
14293.262304730835,-29750.0
14293.262367228048,-30999.0
14293.26242972526,-31914.0
14293.262492222471,-32139.0
14293.262554719684,-30354.0
14293.262617216897,-25953.0
14293.26267971411,-18689.0
14293.262742211322,-9552.0
14293.262804708535,-92.0
14293.262867205747,7311.0
14293.26292970296,11685.0
14293.262992200172,12798.0
14293.263054697385,11152.0
14293.263117194598,7216.0
14293.263179691809,2812.0
14293.263242189021,-856.0
14293.263304686234,-3109.0
14293.263367183446,-4086.0
14293.26342968066,-3714.0
14293.263492177872,-2572.0
14293.263554675084,-1592.0
14293.263617172297,-1389.0
14293.26367966951,-1481.0
14293.263742166722,-1167.0
14293.263804663935,-504.0
14293.263867161146,831.0
14293.263929658358,2931.0
14293.263992155571,5792.0
14293.264054652784,8175.0
14293.264117149996,9637.0
14293.264179647209,9917.0
14293.264242144422,9198.0
14293.264304641634,7348.0
14293.264367138847,5264.0
14293.26442963606,3685.0
14293.264492133272,3272.0
14293.264554630483,3632.0
14293.264617127696,4641.0
14293.264679624908,5973.0
14293.26474212212,7410.0
14293.264804619334,8211.0
14293.264867116546,8293.0
14293.264929613759,7825.0
14293.264992110971,7440.0
14293.265054608184,7512.0
14293.265117105397,8367.0
14293.26517960261,10006.0
14293.26524209982,11581.0
14293.265304597033,12235.0
14293.265367094245,11889.0
14293.265429591458,10996.0
14293.26549208867,9840.0
14293.265554585883,8657.0
14293.265617083096,7547.0
14293.265679580309,6632.0
14293.265742077521,5791.0
14293.265804574734,5185.0
14293.265867071947,4894.0
14293.265929569157,4868.0
14293.26599206637,4743.0
14293.266054563583,4507.0
14293.266117060795,4092.0
14293.266179558008,3966.0
14293.26624205522,4138.0
14293.266304552433,4715.0
14293.266367049646,5263.0
14293.266429546858,5198.0
14293.266492044071,4149.0
14293.266554541282,2355.0
14293.266617038495,-5.0
14293.266679535707,-2557.0
14293.26674203292,-5074.0
14293.266804530133,-7239.0
14293.266867027345,-8993.0
14293.266929524558,-10339.0
14293.26699202177,-11468.0
14293.267054518983,-12607.0
14293.267117016196,-14040.0
14293.267179513408,-16151.0
14293.267242010621,-19222.0
14293.267304507832,-22547.0
14293.267367005044,-25575.0
14293.267429502257,-28071.0
14293.26749199947,-30224.0
14293.267554496682,-32126.0
14293.267616993895,-32768.0
14293.267679491108,-30986.0
14293.26774198832,-26146.0
14293.267804485533,-18962.0
14293.267866982746,-10394.0
14293.267929479956,-1741.0
14293.267991977169,5320.0
14293.268054474382,9461.0
14293.268116971594,10800.0
14293.268179468807,9948.0
14293.26824196602,7493.0
14293.268304463232,4245.0
14293.268366960445,1335.0
14293.268429457657,-768.0
14293.26849195487,-2111.0
14293.268554452083,-3156.0
14293.268616949295,-3669.0
14293.268679446506,-3720.0
14293.268741943719,-3355.0
14293.268804440931,-2821.0
14293.268866938144,-1674.0
14293.268929435357,116.0
14293.26899193257,2186.0
14293.269054429782,4305.0
14293.269116926995,6603.0
14293.269179424207,8663.0
14293.26924192142,9815.0
14293.26930441863,9707.0
14293.269366915843,8901.0
14293.269429413056,7747.0
14293.269491910269,6293.0
14293.269554407481,5083.0
14293.269616904694,4638.0
14293.269679401907,4906.0
14293.26974189912,5424.0
14293.269804396332,5942.0
14293.269866893545,6541.0
14293.269929390757,6979.0
14293.26999188797,7004.0
14293.27005438518,6832.0
14293.270116882393,6850.0
14293.270179379606,7578.0
14293.270241876819,8974.0
14293.270304374031,10576.0
14293.270366871244,11793.0
14293.270429368456,12135.0
14293.27049186567,11492.0
14293.270554362882,10312.0
14293.270616860094,9247.0
14293.270679357305,8590.0
14293.270741854518,7954.0
14293.27080435173,7163.0
14293.270866848943,6292.0
14293.270929346156,5474.0
14293.270991843368,4854.0
14293.271054340581,4358.0
14293.271116837794,3877.0
14293.271179335006,3563.0
14293.271241832219,3536.0
14293.271304329432,3913.0
14293.271366826644,4686.0
14293.271429323855,5506.0
14293.271491821068,6055.0
14293.27155431828,5651.0
14293.271616815493,4153.0
14293.271679312706,2117.0
14293.271741809918,-67.0
14293.27180430713,-2170.0
14293.271866804344,-3978.0
14293.271929301556,-5482.0
14293.271991798769,-6884.0
14293.27205429598,-8231.0
14293.272116793192,-9715.0
14293.272179290405,-11500.0
14293.272241787618,-13589.0
14293.27230428483,-16132.0
14293.272366782043,-19210.0
14293.272429279255,-22168.0
14293.272491776468,-24405.0
14293.27255427368,-26194.0
14293.272616770893,-27879.0
14293.272679268106,-29652.0
14293.272741765319,-31339.0
14293.27280426253,-31605.0
14293.272866759742,-29041.0
14293.272929256955,-23531.0
14293.272991754167,-15643.0
14293.27305425138,-6176.0
14293.273116748593,2696.0
14293.273179245805,8940.0
14293.273241743018,11807.0
14293.27330424023,11842.0
14293.273366737443,9406.0
14293.273429234654,5378.0
14293.273491731867,1453.0
14293.27355422908,-1208.0
14293.273616726292,-2762.0
14293.273679223505,-3297.0
14293.273741720717,-3170.0
14293.27380421793,-2667.0
14293.273866715143,-2423.0
14293.273929212355,-2400.0
14293.273991709568,-2109.0
14293.27405420678,-1276.0
14293.274116703991,195.0
14293.274179201204,2433.0
14293.274241698417,5329.0
14293.27430419563,8226.0
14293.274366692842,10277.0
14293.274429190054,11076.0
14293.274491687267,10645.0
14293.27455418448,9213.0
14293.274616681692,7299.0
14293.274679178905,5459.0
14293.274741676118,4320.0
14293.274804173328,4037.0
14293.274866670541,4538.0
14293.274929167754,5621.0
14293.274991664966,6863.0
14293.275054162179,7695.0
14293.275116659392,7824.0
14293.275179156604,7422.0
14293.275241653817,7054.0
14293.27530415103,7227.0
14293.275366648242,8071.0
14293.275429145455,9251.0
14293.275491642666,10195.0
14293.275554139878,10644.0
14293.275616637091,10657.0
14293.275679134304,10362.0
14293.275741631516,9826.0
14293.275804128729,9126.0
14293.275866625941,8443.0
14293.275929123154,7692.0
14293.275991620367,6946.0
14293.27605411758,6336.0
14293.276116614792,5830.0
14293.276179112003,5262.0
14293.276241609216,4510.0
14293.276304106428,3748.0
14293.27636660364,3305.0
14293.276429100853,3427.0
14293.276491598066,3976.0
14293.276554095279,4671.0
14293.276616592491,5298.0
14293.276679089704,5404.0
14293.276741586917,4679.0
14293.27680408413,3270.0
14293.27686658134,1507.0
14293.276929078553,-417.0
14293.276991575765,-2412.0
14293.277054072978,-4403.0
14293.27711657019,-6130.0
14293.277179067403,-7434.0
14293.277241564616,-8442.0
14293.277304061829,-9734.0
14293.277366559041,-11561.0
14293.277429056254,-13871.0
14293.277491553465,-16643.0
14293.277554050677,-19997.0
14293.27761654789,-23177.0
14293.277679045103,-25610.0
14293.277741542315,-27390.0
14293.277804039528,-29133.0
14293.27786653674,-30937.0
14293.277929033953,-31825.0
14293.277991531166,-29984.0
14293.278054028378,-25308.0
14293.278116525591,-18651.0
14293.278179022804,-10417.0
14293.278241520014,-1684.0
14293.278304017227,5445.0
14293.27836651444,9718.0
14293.278429011652,11442.0
14293.278491508865,11029.0
14293.278554006078,8377.0
14293.27861650329,4354.0
14293.278679000503,703.0
14293.278741497716,-1781.0
14293.278803994928,-3341.0
14293.278866492139,-3935.0
14293.278928989352,-3372.0
14293.278991486564,-2286.0
14293.279053983777,-1631.0
14293.27911648099,-1472.0
14293.279178978202,-839.0
14293.279241475415,526.0
14293.279303972628,2327.0
14293.27936646984,4403.0
14293.279428967053,6915.0
14293.279491464265,9272.0
14293.279553961478,10597.0
14293.279616458689,10785.0
14293.279678955902,10118.0
14293.279741453114,8721.0
14293.279803950327,6790.0
14293.27986644754,4867.0
14293.279928944752,3736.0
14293.279991441965,3742.0
14293.280053939177,4671.0
14293.28011643639,5933.0
14293.280178933603,7214.0
14293.280241430813,8054.0
14293.280303928026,8311.0
14293.280366425239,8149.0
14293.280428922451,7941.0
14293.280491419664,7906.0
14293.280553916877,8182.0
14293.28061641409,8583.0
14293.280678911302,8999.0
14293.280741408515,9303.0
14293.280803905727,9446.0
14293.28086640294,9311.0
14293.280928900153,8806.0
14293.280991397363,8044.0
14293.281053894576,7155.0
14293.281116391789,6312.0
14293.281178889001,5739.0
14293.281241386214,5526.0
14293.281303883427,5538.0
14293.28136638064,5546.0
14293.281428877852,5197.0
14293.281491375064,4618.0
14293.281553872277,4083.0
14293.281616369488,3796.0
14293.2816788667,3880.0
14293.281741363913,4297.0
14293.281803861126,4643.0
14293.281866358338,4617.0
14293.281928855551,4098.0
14293.281991352764,3206.0
14293.282053849976,1954.0
14293.282116347189,338.0
14293.282178844402,-1648.0
14293.282241341614,-3901.0
14293.282303838827,-6033.0
14293.282366336038,-7532.0
14293.28242883325,-8410.0
14293.282491330463,-8972.0
14293.282553827676,-9770.0
14293.282616324888,-11276.0
14293.282678822101,-13753.0
14293.282741319314,-17213.0
14293.282803816526,-20916.0
14293.282866313739,-23973.0
14293.282928810951,-26362.0
14293.282991308162,-28143.0
14293.283053805375,-29793.0
14293.283116302588,-31149.0
14293.2831787998,-30888.0
14293.283241297013,-27781.0
14293.283303794226,-22000.0
14293.283366291438,-14454.0
14293.28342878865,-6132.0
14293.283491285863,2139.0
14293.283553783076,8402.0
14293.283616280289,11757.0
14293.283678777501,12470.0
14293.283741274712,10946.0
14293.283803771925,7506.0
14293.283866269137,3318.0
14293.28392876635,-437.0
14293.283991263563,-2904.0
14293.284053760775,-4152.0
14293.284116257988,-4225.0
14293.2841787552,-3337.0
14293.284241252413,-2215.0
14293.284303749626,-1475.0
14293.284366246837,-1001.0
14293.28442874405,10.0
14293.284491241262,1541.0
14293.284553738475,3501.0
14293.284616235687,5910.0
14293.2846787329,8553.0
14293.284741230113,10378.0
14293.284803727325,11119.0
14293.284866224538,10840.0
14293.28492872175,9917.0
14293.284991218963,8169.0
14293.285053716174,6218.0
14293.285116213387,4615.0
14293.2851787106,4074.0
14293.285241207812,4270.0
14293.285303705024,5105.0
14293.285366202237,6327.0
14293.28542869945,7587.0
14293.285491196662,8217.0
14293.285553693875,8161.0
14293.285616191088,7792.0
14293.2856786883,7648.0
14293.285741185511,7664.0
14293.285803682724,7817.0
14293.285866179936,8196.0
14293.285928677149,8817.0
14293.285991174362,9426.0
14293.286053671574,9798.0
14293.286116168787,9970.0
14293.286178666,9942.0
14293.286241163212,9435.0
14293.286303660425,8274.0
14293.286366157638,6980.0
14293.286428654848,5806.0
14293.286491152061,4831.0
14293.286553649274,4090.0
14293.286616146486,3800.0
14293.286678643699,3742.0
14293.286741140912,3790.0
14293.286803638124,3764.0
14293.286866135337,3805.0
14293.28692863255,3884.0
14293.286991129762,4017.0
14293.287053626975,4064.0
14293.287116124186,3872.0
14293.287178621398,3274.0
14293.28724111861,2223.0
14293.287303615823,678.0
14293.287366113036,-1077.0
14293.287428610249,-2991.0
14293.287491107461,-4945.0
14293.287553604674,-6864.0
14293.287616101887,-8528.0
14293.2876785991,-9843.0
14293.287741096312,-10956.0
14293.287803593523,-12209.0
14293.287866090735,-13830.0
14293.287928587948,-16475.0
14293.28799108516,-19868.0
14293.288053582373,-23188.0
14293.288116079586,-25870.0
14293.288178576799,-27826.0
14293.288241074011,-29484.0
14293.288303571224,-30703.0
14293.288366068437,-30446.0
14293.288428565647,-27768.0
14293.28849106286,-22309.0
14293.288553560073,-14395.0
14293.288616057285,-5405.0
14293.288678554498,2736.0
14293.28874105171,8602.0
14293.288803548923,11644.0
14293.288866046136,12021.0
14293.288928543348,10092.0
14293.288991040561,6617.0
14293.289053537774,2860.0
14293.289116034986,-480.0
14293.289178532197,-2625.0
14293.28924102941,-3342.0
14293.289303526622,-2676.0
14293.289366023835,-1570.0
14293.289428521048,-691.0
14293.28949101826,-300.0
14293.289553515473,-124.0
14293.289616012686,300.0
14293.289678509898,1440.0
14293.289741007111,3318.0
14293.289803504322,5946.0
14293.289866001534,8456.0
14293.289928498747,10156.0
14293.28999099596,10816.0
14293.290053493172,10528.0
14293.290115990385,9185.0
14293.290178487598,7298.0
14293.29024098481,5456.0
14293.290303482023,4237.0
14293.290365979236,3904.0
14293.290428476448,4532.0
14293.29049097366,5847.0
14293.290553470872,7270.0
14293.290615968084,8332.0
14293.290678465297,8737.0
14293.29074096251,8562.0
14293.290803459722,8066.0
14293.290865956935,7625.0
14293.290928454147,7370.0
14293.29099095136,7491.0
14293.291053448573,7927.0
14293.291115945785,8445.0
14293.291178442996,8920.0
14293.291240940209,9270.0
14293.291303437421,9348.0
14293.291365934634,9051.0
14293.291428431847,8381.0
14293.29149092906,7622.0
14293.291553426272,6957.0
14293.291615923485,6371.0
14293.291678420697,5925.0
14293.29174091791,5486.0
14293.291803415123,4926.0
14293.291865912335,4342.0
14293.291928409546,3706.0
14293.291990906759,3284.0
14293.292053403971,3117.0
14293.292115901184,3079.0
14293.292178398397,3357.0
14293.29224089561,3737.0
14293.292303392822,3966.0
14293.292365890034,3880.0
14293.292428387247,3200.0
14293.29249088446,1875.0
14293.29255338167,58.0
14293.292615878883,-1985.0
14293.292678376096,-4029.0
14293.292740873309,-6000.0
14293.292803370521,-7795.0
14293.292865867734,-9210.0
14293.292928364946,-10553.0
14293.292990862159,-12095.0
14293.293053359372,-13943.0
14293.293115856584,-16616.0
14293.293178353797,-19986.0
14293.29324085101,-23233.0
14293.29330334822,-26010.0
14293.293365845433,-28241.0
14293.293428342646,-30140.0
14293.293490839858,-31441.0
14293.293553337071,-30846.0
14293.293615834284,-27477.0
14293.293678331496,-21591.0
14293.293740828709,-13483.0
14293.293803325922,-4388.0
14293.293865823134,3818.0
14293.293928320345,9497.0
14293.293990817558,12296.0
14293.29405331477,12479.0
14293.294115811983,10275.0
14293.294178309196,6438.0
14293.294240806408,2705.0
14293.29430330362,3.0
14293.294365800833,-1467.0
14293.294428298046,-2072.0
14293.294490795259,-1951.0
14293.294553292471,-1334.0
14293.294615789684,-997.0
14293.294678286895,-980.0
14293.294740784107,-661.0
14293.29480328132,282.0
14293.294865778533,1856.0
14293.294928275745,3941.0
14293.294990772958,6599.0
14293.29505327017,9244.0
14293.295115767383,10766.0
14293.295178264596,11166.0
14293.295240761809,10415.0
14293.29530325902,8868.0
14293.295365756232,6850.0
14293.295428253445,5111.0
14293.295490750657,4189.0
14293.29555324787,4085.0
14293.295615745083,4669.0
14293.295678242295,5911.0
14293.295740739508,7373.0
14293.29580323672,8515.0
14293.295865733933,8795.0
14293.295928231146,8389.0
14293.295990728358,7721.0
14293.29605322557,7052.0
14293.296115722782,6689.0
14293.296178219995,7076.0
14293.296240717207,7984.0
14293.29630321442,8951.0
14293.296365711632,9614.0
14293.296428208845,9900.0
14293.296490706058,9624.0
14293.29655320327,8804.0
14293.296615700483,7673.0
14293.296678197694,6535.0
14293.296740694906,5495.0
14293.29680319212,4663.0
14293.296865689332,4235.0
14293.296928186544,4127.0
14293.296990683757,4101.0
14293.29705318097,4003.0
14293.297115678182,3773.0
14293.297178175395,3534.0
14293.297240672608,3353.0
14293.29730316982,3248.0
14293.297365667031,3365.0
14293.297428164244,3545.0
14293.297490661456,3599.0
14293.297553158669,3458.0
14293.297615655882,2937.0
14293.297678153094,2017.0
14293.297740650307,606.0
14293.29780314752,-1339.0
14293.297865644732,-3472.0
14293.297928141945,-5472.0
14293.297990639157,-7162.0
14293.298053136368,-8405.0
14293.29811563358,-9540.0
14293.298178130794,-10849.0
14293.298240628006,-12338.0
14293.298303125219,-14139.0
14293.298365622431,-16679.0
14293.298428119644,-19874.0
14293.298490616857,-23108.0
14293.29855311407,-25657.0
14293.298615611282,-27648.0
14293.298678108495,-29762.0
14293.298740605705,-31213.0
14293.298803102918,-30235.0
14293.29886560013,-26091.0
14293.298928097343,-19524.0
14293.298990594556,-11070.0
14293.299053091769,-2010.0
14293.299115588981,5648.0
14293.299178086194,10216.0
14293.299240583407,11759.0
14293.29930308062,11110.0
14293.299365577832,8890.0
14293.299428075043,5690.0
14293.299490572255,2802.0
14293.299553069468,992.0
14293.29961556668,-2.0
14293.299678063893,-575.0
14293.299740561106,-586.0
14293.299803058319,-428.0
14293.299865555531,-566.0
14293.299928052744,-1173.0
14293.299990549956,-1230.0
14293.300053047169,-133.0
14293.30011554438,1813.0
14293.300178041593,4641.0
14293.300240538805,7666.0
14293.300303036018,10172.0
14293.30036553323,11301.0
14293.300428030443,11122.0
14293.300490527656,9925.0
14293.300553024868,8187.0
14293.300615522081,6279.0
14293.300678019294,4882.0
14293.300740516504,4282.0
14293.300803013717,4662.0
14293.30086551093,5748.0
14293.300928008142,7201.0
14293.300990505355,8285.0
14293.301053002568,8674.0
14293.30111549978,8234.0
14293.301177996993,7484.0
14293.301240494206,6624.0
14293.301302991418,6161.0
14293.30136548863,6371.0
14293.301427985843,7178.0
14293.301490483054,8141.0
14293.301552980267,9081.0
14293.30161547748,9791.0
14293.301677974692,10119.0
14293.301740471905,9751.0
14293.301802969117,8786.0
14293.30186546633,7657.0
14293.301927963543,6487.0
14293.301990460755,5354.0
14293.302052957968,4683.0
14293.302115455179,4400.0
14293.302177952392,4232.0
14293.302240449604,3886.0
14293.302302946817,3420.0
14293.30236544403,3076.0
14293.302427941242,2901.0
14293.302490438455,2948.0
14293.302552935667,3300.0
14293.30261543288,3885.0
14293.302677930093,4282.0
14293.302740427305,4195.0
14293.302802924518,3547.0
14293.302865421729,2354.0
14293.302927918941,660.0
14293.302990416154,-1305.0
14293.303052913367,-3242.0
14293.30311541058,-4944.0
14293.303177907792,-6296.0
14293.303240405005,-7321.0
14293.303302902217,-8219.0
14293.30336539943,-9429.0
14293.303427896642,-11170.0
14293.303490393853,-13395.0
14293.303552891066,-16357.0
14293.303615388279,-19901.0
14293.303677885491,-23362.0
14293.303740382704,-25896.0
14293.303802879916,-27370.0
14293.30386537713,-28692.0
14293.303927874342,-29920.0
14293.303990371554,-29469.0
14293.304052868767,-26290.0
14293.30411536598,-20587.0
14293.304177863192,-12954.0
14293.304240360403,-4346.0
14293.304302857616,3691.0
14293.304365354828,9259.0
14293.304427852041,11704.0
14293.304490349254,11766.0
14293.304552846466,10027.0
14293.304615343679,6902.0
14293.304677840892,3618.0
14293.304740338104,1362.0
14293.304802835317,190.0
14293.304865332528,-280.0
14293.30492782974,-369.0
14293.304990326953,-27.0
14293.305052824166,33.0
14293.305115321378,-391.0
14293.30517781859,-765.0
14293.305240315804,-63.0
14293.305302813016,1669.0
14293.305365310229,4138.0
14293.305427807441,6694.0
14293.305490304654,9175.0
14293.305552801867,10483.0
14293.305615299078,10533.0
14293.30567779629,9463.0
14293.305740293503,8113.0
14293.305802790715,6491.0
14293.305865287928,5247.0
14293.30592778514,4627.0
14293.305990282353,5056.0
14293.306052779566,5996.0
14293.306115276779,7154.0
14293.306177773991,8210.0
14293.306240271202,8846.0
14293.306302768415,8552.0
14293.306365265627,7675.0
14293.30642776284,6619.0
14293.306490260053,6012.0
14293.306552757265,6098.0
14293.306615254478,6831.0
14293.30667775169,7893.0
14293.306740248903,8795.0
14293.306802746116,9158.0
14293.306865243329,9089.0
14293.306927740541,8702.0
14293.306990237752,8195.0
14293.307052734965,7515.0
14293.307115232177,6717.0
14293.30717772939,6008.0
14293.307240226603,5360.0
14293.307302723815,4797.0
14293.307365221028,4411.0
14293.30742771824,4098.0
14293.307490215453,3615.0
14293.307552712666,2997.0
14293.307615209877,2518.0
14293.30767770709,2465.0
14293.307740204302,2779.0
14293.307802701514,3352.0
14293.307865198727,3922.0
14293.30792769594,4152.0
14293.307990193152,3814.0
14293.308052690365,2887.0
14293.308115187578,1476.0
14293.30817768479,-135.0
14293.308240182003,-1873.0
14293.308302679214,-3604.0
14293.308365176426,-5288.0
14293.308427673639,-6766.0
14293.308490170852,-8142.0
14293.308552668064,-9617.0
14293.308615165277,-11438.0
14293.30867766249,-13534.0
14293.308740159702,-16072.0
14293.308802656915,-18981.0
14293.308865154127,-21689.0
14293.30892765134,-23591.0
14293.308990148551,-25055.0
14293.309052645764,-26701.0
14293.309115142976,-28428.0
14293.309177640189,-29085.0
14293.309240137402,-27500.0
14293.309302634614,-23167.0
14293.309365131827,-16545.0
14293.30942762904,-8376.0
14293.309490126252,95.0
14293.309552623465,6862.0
14293.309615120677,10857.0
14293.309677617888,12151.0
14293.3097401151,11132.0
14293.309802612313,8533.0
14293.309865109526,5442.0
14293.309927606739,2981.0
14293.309990103951,1471.0
14293.310052601164,774.0
14293.310115098377,467.0
14293.31017759559,392.0
14293.310240092802,141.0
14293.310302590015,-426.0
14293.310365087225,-854.0
14293.310427584438,-459.0
14293.31049008165,849.0
14293.310552578863,2885.0
14293.310615076076,5316.0
14293.310677573289,7753.0
14293.310740070501,9396.0
14293.310802567714,9980.0
14293.310865064926,9439.0
14293.31092756214,8153.0
14293.310990059352,6619.0
14293.311052556563,5394.0
14293.311115053775,4731.0
14293.311177550988,5001.0
14293.3112400482,5947.0
14293.311302545413,7024.0
14293.311365042626,7939.0
14293.311427539838,8438.0
14293.311490037051,8448.0
14293.311552534264,8007.0
14293.311615031476,7332.0
14293.311677528687,6866.0
14293.3117400259,6873.0
14293.311802523112,7225.0
14293.311865020325,7896.0
14293.311927517538,8587.0
14293.31199001475,9177.0
14293.312052511963,9271.0
14293.312115009176,8856.0
14293.312177506388,8157.0
14293.3122400036,7323.0
14293.312302500814,6493.0
14293.312364998026,5903.0
14293.312427495237,5562.0
14293.31248999245,5306.0
14293.312552489662,5019.0
14293.312614986875,4591.0
14293.312677484088,4056.0
14293.3127399813,3498.0
14293.312802478513,3044.0
14293.312864975725,2841.0
14293.312927472938,2871.0
14293.31298997015,3225.0
14293.313052467362,3661.0
14293.313114964574,3808.0
14293.313177461787,3589.0
14293.313239959,2867.0
14293.313302456212,1473.0
14293.313364953425,-402.0
14293.313427450637,-2425.0
14293.31348994785,-4158.0
14293.313552445063,-5595.0
14293.313614942275,-6710.0
14293.313677439488,-7673.0
14293.3137399367,-8828.0
14293.313802433911,-10524.0
14293.313864931124,-12899.0
14293.313927428337,-16029.0
14293.31398992555,-19624.0
14293.314052422762,-22870.0
14293.314114919975,-25055.0
14293.314177417187,-25859.0
14293.3142399144,-26015.0
14293.314302411613,-26200.0
14293.314364908825,-25847.0
14293.314427406036,-23934.0
14293.314489903249,-20208.0
14293.314552400461,-14661.0
14293.314614897674,-7481.0
14293.314677394887,-86.0
14293.3147398921,5639.0
14293.314802389312,9003.0
14293.314864886524,10598.0
14293.314927383737,10620.0
14293.31498988095,9104.0
14293.315052378162,6656.0
14293.315114875375,4219.0
14293.315177372586,2046.0
14293.315239869798,424.0
14293.315302367011,-266.0
14293.315364864224,12.0
14293.315427361436,226.0
14293.315489858649,207.0
14293.315552355862,192.0
14293.315614853074,802.0
14293.315677350287,1736.0
14293.3157398475,3189.0
14293.31580234471,4905.0
14293.315864841923,6846.0
14293.315927339136,8108.0
14293.315989836348,8637.0
14293.316052333561,8704.0
14293.316114830774,8327.0
14293.316177327986,7379.0
14293.316239825199,6389.0
14293.316302322412,5734.0
14293.316364819624,5655.0
14293.316427316837,5943.0
14293.31648981405,6658.0
14293.31655231126,7638.0
14293.316614808473,8380.0
14293.316677305686,8546.0
14293.316739802898,8159.0
14293.31680230011,7619.0
14293.316864797323,7194.0
14293.316927294536,6948.0
14293.316989791749,7055.0
14293.317052288961,7447.0
14293.317114786174,7947.0
14293.317177283385,8379.0
14293.317239780597,8540.0
14293.31730227781,8430.0
14293.317364775023,7915.0
14293.317427272235,7072.0
14293.317489769448,6108.0
14293.31755226666,5282.0
14293.317614763873,4709.0
14293.317677261086,4496.0
14293.317739758299,4504.0
14293.317802255511,4462.0
14293.317864752724,4153.0
14293.317927249935,3712.0
14293.317989747147,3348.0
14293.31805224436,3166.0
14293.318114741573,3115.0
14293.318177238785,3352.0
14293.318239735998,3647.0
14293.31830223321,3777.0
14293.318364730423,3600.0
14293.318427227636,3013.0
14293.318489724848,1969.0
14293.31855222206,556.0
14293.318614719272,-1149.0
14293.318677216485,-2903.0
14293.318739713697,-4537.0
14293.31880221091,-5888.0
14293.318864708122,-7055.0
14293.318927205335,-8265.0
14293.318989702548,-9801.0
14293.31905219976,-11800.0
14293.319114696973,-14365.0
14293.319177194186,-17519.0
14293.319239691396,-20761.0
14293.319302188609,-23064.0
14293.319364685822,-24090.0
14293.319427183034,-24577.0
14293.319489680247,-25396.0
14293.31955217746,-26292.0
14293.319614674672,-25809.0
14293.319677171885,-23085.0
14293.319739669098,-18213.0
14293.31980216631,-11535.0
14293.319864663523,-4002.0
14293.319927160734,2871.0
14293.319989657946,7876.0
14293.320052155159,10786.0
14293.320114652372,11747.0
14293.320177149584,10869.0
14293.320239646797,8429.0
14293.32030214401,5287.0
14293.320364641222,2550.0
14293.320427138435,727.0
14293.320489635647,-61.0
14293.32055213286,-35.0
14293.32061463007,142.0
14293.320677127283,514.0
14293.320739624496,313.0
14293.320802121709,52.0
14293.320864618921,603.0
14293.320927116134,2001.0
14293.320989613347,3752.0
14293.32105211056,5547.0
14293.321114607772,7326.0
14293.321177104985,8666.0
14293.321239602197,9070.0
14293.321302099408,8839.0
14293.32136459662,8152.0
14293.321427093833,7218.0
14293.321489591046,6228.0
14293.321552088259,5669.0
14293.321614585471,5836.0
14293.321677082684,6744.0
14293.321739579897,7681.0
14293.32180207711,8358.0
14293.321864574322,8727.0
14293.321927071534,8441.0
14293.321989568745,7644.0
14293.322052065958,6893.0
14293.32211456317,6493.0
14293.322177060383,6674.0
14293.322239557596,7108.0
14293.322302054808,7768.0
14293.322364552021,8367.0
14293.322427049234,8611.0
14293.322489546446,8443.0
14293.322552043659,7910.0
14293.32261454087,7248.0
14293.322677038082,6585.0
14293.322739535295,6081.0
14293.322802032508,5811.0
14293.32286452972,5769.0
14293.322927026933,5669.0
14293.322989524146,5288.0
14293.323052021358,4640.0
14293.323114518571,3776.0
14293.323177015784,2943.0
14293.323239512996,2507.0
14293.323302010209,2568.0
14293.32336450742,3029.0
14293.323427004632,3540.0
14293.323489501845,3818.0
14293.323551999058,3680.0
14293.32361449627,2980.0
14293.323676993483,1760.0
14293.323739490696,202.0
14293.323801987908,-1478.0
14293.32386448512,-2994.0
14293.323926982333,-4363.0
14293.323989479544,-5478.0
14293.324051976757,-6466.0
14293.32411447397,-7953.0
14293.324176971182,-10133.0
14293.324239468395,-12918.0
14293.324301965607,-15929.0
14293.32436446282,-18886.0
14293.324426960033,-21417.0
14293.324489457245,-23131.0
14293.324551954458,-24094.0
14293.32461445167,-24892.0
14293.324676948883,-26046.0
14293.324739446094,-26799.0
14293.324801943307,-25580.0
14293.32486444052,-21808.0
14293.324926937732,-16108.0
14293.324989434945,-8676.0
14293.325051932157,-741.0
14293.32511442937,5845.0
14293.325176926583,9693.0
14293.325239423795,11110.0
14293.325301921008,10999.0
14293.325364418219,9475.0
14293.325426915431,6896.0
14293.325489412644,4341.0
14293.325551909857,2401.0
14293.32561440707,1085.0
14293.325676904282,226.0
14293.325739401495,101.0
14293.325801898707,199.0
14293.32586439592,-43.0
14293.325926893132,-446.0
14293.325989390345,-228.0
14293.326051887558,915.0
14293.326114384769,2473.0
14293.326176881981,4414.0
14293.326239379194,6477.0
14293.326301876406,8097.0
14293.326364373619,8745.0
14293.326426870832,8704.0
14293.326489368044,8132.0
14293.326551865257,7403.0
14293.32661436247,6435.0
14293.326676859682,5773.0
14293.326739356893,5721.0
14293.326801854106,6292.0
14293.326864351318,7048.0
14293.326926848531,7950.0
14293.326989345744,8633.0
14293.327051842956,8807.0
14293.327114340169,8253.0
14293.327176837382,7484.0
14293.327239334594,6831.0
14293.327301831807,6515.0
14293.32736432902,6665.0
14293.327426826232,7262.0
14293.327489323443,8083.0
14293.327551820656,8725.0
14293.327614317868,8965.0
14293.32767681508,8658.0
14293.327739312293,7849.0
14293.327801809506,6747.0
14293.327864306719,5769.0
14293.327926803931,5164.0
14293.327989301144,4985.0
14293.328051798357,5059.0
14293.328114295568,5098.0
14293.32817679278,4932.0
14293.328239289993,4410.0
14293.328301787205,3645.0
14293.328364284418,2924.0
14293.32842678163,2347.0
14293.328489278843,2190.0
14293.328551776056,2366.0
14293.328614273269,2864.0
14293.328676770481,3393.0
14293.328739267694,3664.0
14293.328801764907,3298.0
14293.328864262117,2278.0
14293.32892675933,582.0
14293.328989256543,-1467.0
14293.329051753755,-3265.0
14293.329114250968,-4558.0
14293.32917674818,-5345.0
14293.329239245393,-5976.0
14293.329301742606,-7019.0
14293.329364239818,-8758.0
14293.329426737031,-11236.0
14293.329489234242,-14276.0
14293.329551731455,-17545.0
14293.329614228667,-20661.0
14293.32967672588,-22966.0
14293.329739223092,-24206.0
14293.329801720305,-24988.0
14293.329864217518,-25952.0
14293.32992671473,-26743.0
14293.329989211943,-25841.0
14293.330051709156,-22422.0
14293.330114206368,-16866.0
14293.33017670358,-9684.0
14293.330239200792,-1736.0
14293.330301698004,5163.0
14293.330364195217,9549.0
14293.33042669243,11308.0
14293.330489189642,11355.0
14293.330551686855,9624.0
14293.330614184068,6909.0
14293.33067668128,4229.0
14293.330739178493,2392.0
14293.330801675706,1048.0
14293.330864172916,309.0
14293.330926670129,45.0
14293.330989167342,168.0
14293.331051664554,-108.0
14293.331114161767,-412.0
14293.33117665898,-378.0
14293.331239156192,582.0
14293.331301653405,2073.0
14293.331364150617,4156.0
14293.33142664783,6388.0
14293.331489145043,8252.0
14293.331551642254,9097.0
14293.331614139466,9039.0
14293.331676636679,8301.0
14293.331739133891,7273.0
14293.331801631104,6149.0
14293.331864128317,5353.0
14293.33192662553,5327.0
14293.331989122742,5930.0
14293.332051619955,6868.0
14293.332114117167,7680.0
14293.33217661438,8372.0
14293.33223911159,8434.0
14293.332301608803,7882.0
14293.332364106016,6977.0
14293.332426603229,6193.0
14293.332489100441,5831.0
14293.332551597654,6171.0
14293.332614094867,7025.0
14293.33267659208,8182.0
14293.332739089292,9026.0
14293.332801586505,9306.0
14293.332864083717,8859.0
14293.332926580928,8055.0
14293.33298907814,7084.0
14293.333051575353,6226.0
14293.333114072566,5410.0
14293.333176569779,4834.0
14293.333239066991,4453.0
14293.333301564204,4146.0
14293.333364061416,3680.0
14293.333426558629,3167.0
14293.333489055842,2659.0
14293.333551553053,2333.0
14293.333614050265,2273.0
14293.333676547478,2560.0
14293.33373904469,3177.0
14293.333801541903,3911.0
14293.333864039116,4397.0
14293.333926536328,4342.0
14293.333989033541,3721.0
14293.334051530754,2562.0
14293.334114027966,839.0
14293.334176525179,-1015.0
14293.334239022392,-2770.0
14293.334301519602,-4337.0
14293.334364016815,-5783.0
14293.334426514028,-7239.0
14293.33448901124,-8614.0
14293.334551508453,-10357.0
14293.334614005666,-12643.0
14293.334676502878,-15274.0
14293.33473900009,-18067.0
14293.334801497303,-20802.0
14293.334863994516,-22793.0
14293.334926491727,-23662.0
14293.33498898894,-24104.0
14293.335051486152,-25152.0
14293.335113983365,-26059.0
14293.335176480578,-25030.0
14293.33523897779,-21406.0
14293.335301475003,-15597.0
14293.335363972215,-7834.0
14293.335426469428,280.0
14293.33548896664,6456.0
14293.335551463853,9741.0
14293.335613961066,10894.0
14293.335676458277,10360.0
14293.33573895549,8241.0
14293.335801452702,5488.0
14293.335863949915,3154.0
14293.335926447127,1504.0
14293.33598894434,524.0
14293.336051441553,343.0
14293.336113938765,720.0
14293.336176435978,825.0
14293.33623893319,279.0
14293.336301430401,-350.0
14293.336363927614,-444.0
14293.336426424827,467.0
14293.33648892204,2109.0
14293.336551419252,4481.0
14293.336613916465,6774.0
14293.336676413677,8272.0
14293.33673891089,8538.0
14293.336801408102,8086.0
14293.336863905315,7224.0
14293.336926402528,6047.0
14293.33698889974,5002.0
14293.337051396951,4785.0
14293.337113894164,5181.0
14293.337176391376,6003.0
14293.33723888859,7073.0
14293.337301385802,8334.0
14293.337363883014,9065.0
14293.337426380227,8801.0
14293.33748887744,7891.0
14293.337551374652,6862.0
14293.337613871865,6163.0
14293.337676369076,6010.0
14293.337738866288,6460.0
14293.337801363501,7345.0
14293.337863860714,8045.0
14293.337926357926,8292.0
14293.337988855139,8200.0
14293.338051352352,7704.0
14293.338113849564,6835.0
14293.338176346777,5819.0
14293.33823884399,4966.0
14293.338301341202,4420.0
14293.338363838415,4244.0
14293.338426335626,4474.0
14293.338488832838,4687.0
14293.33855133005,4442.0
14293.338613827264,3826.0
14293.338676324476,2956.0
14293.338738821689,2257.0
14293.338801318901,1863.0
14293.338863816114,2017.0
14293.338926313327,2574.0
14293.33898881054,3342.0
14293.33905130775,3924.0
14293.339113804963,3943.0
14293.339176302175,3310.0
14293.339238799388,1992.0
14293.3393012966,24.0
14293.339363793813,-2145.0
14293.339426291026,-4186.0
14293.339488788239,-5797.0
14293.339551285451,-6846.0
14293.339613782664,-7534.0
14293.339676279877,-8168.0
14293.33973877709,-9139.0
14293.3398012743,-10796.0
14293.339863771513,-13159.0
14293.339926268725,-16396.0
14293.339988765938,-19904.0
14293.34005126315,-22678.0
14293.340113760363,-24230.0
14293.340176257576,-24823.0
14293.340238754789,-25636.0
14293.340301252001,-26636.0
14293.340363749214,-25719.0
14293.340426246425,-21863.0
14293.340488743637,-15522.0
14293.34055124085,-7833.0
14293.340613738063,37.0
14293.340676235275,6435.0
14293.340738732488,9947.0
14293.3408012297,10753.0
14293.340863726913,10423.0
14293.340926224126,8767.0
14293.340988721338,6036.0
14293.341051218551,3394.0
14293.341113715762,1551.0
14293.341176212974,642.0
14293.341238710187,204.0
14293.3413012074,159.0
14293.341363704612,325.0
14293.341426201825,-204.0
14293.341488699038,-910.0
14293.34155119625,-981.0
14293.341613693463,211.0
14293.341676190676,2268.0
14293.341738687888,4545.0
14293.341801185099,6916.0
14293.341863682312,8546.0
14293.341926179524,8984.0
14293.341988676737,8480.0
14293.34205117395,7598.0
14293.342113671162,6529.0
14293.342176168375,5408.0
14293.342238665588,4825.0
14293.3423011628,5165.0
14293.342363660013,5852.0
14293.342426157225,6798.0
14293.342488654436,7713.0
14293.342551151649,8318.0
14293.342613648862,8119.0
14293.342676146074,7228.0
14293.342738643287,6322.0
14293.3428011405,5765.0
14293.342863637712,5700.0
14293.342926134925,6166.0
14293.342988632137,6943.0
14293.34305112935,7859.0
14293.343113626563,8333.0
14293.343176123773,8305.0
14293.343238620986,7903.0
14293.343301118199,7081.0
14293.343363615411,6038.0
14293.343426112624,5153.0
14293.343488609837,4567.0
14293.34355110705,4255.0
14293.343613604262,4051.0
14293.343676101475,3936.0
14293.343738598687,3691.0
14293.3438010959,3140.0
14293.34386359311,2437.0
14293.343926090323,1722.0
14293.343988587536,1378.0
14293.344051084749,1444.0
14293.344113581961,1756.0
14293.344176079174,2256.0
14293.344238576386,2750.0
14293.3443010736,2948.0
14293.344363570812,2705.0
14293.344426068024,1874.0
14293.344488565237,629.0
14293.344551062448,-925.0
14293.34461355966,-2545.0
14293.344676056873,-3910.0
14293.344738554086,-5040.0
14293.344801051298,-6342.0
14293.344863548511,-8005.0
14293.344926045724,-10015.0
14293.344988542936,-12258.0
14293.345051040149,-14722.0
14293.345113537362,-17491.0
14293.345176034574,-20168.0
14293.345238531785,-22352.0
14293.345301028998,-23949.0
14293.34536352621,-24801.0
14293.345426023423,-25642.0
14293.345488520636,-26592.0
14293.345551017848,-25649.0
14293.34561351506,-21413.0
14293.345676012274,-14407.0
14293.345738509486,-5944.0
14293.345801006699,2442.0
14293.34586350391,8576.0
14293.345926001122,11114.0
14293.345988498335,10609.0
14293.346050995548,8940.0
14293.34611349276,6516.0
14293.346175989973,3940.0
14293.346238487185,2013.0
14293.346300984398,960.0
14293.34636348161,687.0
14293.346425978823,794.0
14293.346488476036,1025.0
14293.346550973249,1047.0
14293.34661347046,169.0
14293.346675967672,-822.0
14293.346738464885,-1179.0
14293.346800962097,55.0
14293.34686345931,2441.0
14293.346925956523,5268.0
14293.346988453735,7909.0
14293.347050950948,9480.0
14293.34711344816,9442.0
14293.347175945373,8278.0
14293.347238442584,6797.0
14293.347300939797,5342.0
14293.34736343701,4225.0
14293.347425934222,3927.0
14293.347488431435,4604.0
14293.347550928647,5838.0
14293.34761342586,7329.0
14293.347675923073,8455.0
14293.347738420285,8785.0
14293.347800917498,8019.0
14293.34786341471,6719.0
14293.347925911923,5491.0
14293.347988409134,5066.0
14293.348050906347,5524.0
14293.34811340356,6571.0
14293.348175900772,7584.0
14293.348238397984,8265.0
14293.348300895197,8308.0
14293.34836339241,7810.0
14293.348425889622,7001.0
14293.348488386835,6171.0
14293.348550884048,5461.0
14293.348613381258,5048.0
14293.348675878471,4771.0
14293.348738375684,4639.0
14293.348800872896,4438.0
14293.348863370109,4078.0
14293.348925867322,3232.0
14293.348988364534,2273.0
14293.349050861747,1457.0
14293.34911335896,1001.0
14293.349175856172,1073.0
14293.349238353385,1577.0
14293.349300850598,2377.0
14293.349363347808,3100.0
14293.349425845021,3345.0
14293.349488342234,3043.0
14293.349550839446,2182.0
14293.349613336659,856.0
14293.349675833872,-725.0
14293.349738331084,-2250.0
14293.349800828297,-3537.0
14293.34986332551,-4544.0
14293.349925822722,-5603.0
14293.349988319933,-6865.0
14293.350050817146,-8487.0
14293.350113314358,-10699.0
14293.35017581157,-13485.0
14293.350238308783,-16523.0
14293.350300805996,-19437.0
14293.350363303209,-21940.0
14293.350425800421,-23562.0
14293.350488297634,-24132.0
14293.350550794847,-24605.0
14293.35061329206,-25722.0
14293.350675789272,-25969.0
14293.350738286483,-23301.0
14293.350800783695,-17522.0
14293.350863280908,-9859.0
14293.35092577812,-1349.0
14293.350988275333,6233.0
14293.351050772546,10833.0
14293.351113269759,11775.0
14293.351175766971,10422.0
14293.351238264184,8037.0
14293.351300761396,5044.0
14293.351363258607,2136.0
14293.35142575582,384.0
14293.351488253033,-178.0
14293.351550750245,25.0
14293.351613247458,417.0
14293.35167574467,982.0
14293.351738241883,914.0
14293.351800739096,184.0
14293.351863236308,-599.0
14293.351925733521,-236.0
14293.351988230734,1353.0
14293.352050727946,3745.0
14293.352113225157,6355.0
14293.35217572237,8610.0
14293.352238219582,9474.0
14293.352300716795,8937.0
14293.352363214008,7528.0
14293.35242571122,6051.0
14293.352488208433,4684.0
14293.352550705646,3847.0
14293.352613202858,3875.0
14293.35267570007,4793.0
14293.352738197282,6044.0
14293.352800694494,7308.0
14293.352863191707,8282.0
14293.35292568892,8381.0
14293.352988186132,7637.0
14293.353050683345,6638.0
14293.353113180558,5877.0
14293.35317567777,5664.0
14293.353238174983,6054.0
14293.353300672195,6845.0
14293.353363169408,7570.0
14293.353425666619,7798.0
14293.353488163832,7567.0
14293.353550661044,6937.0
14293.353613158257,6147.0
14293.35367565547,5244.0
14293.353738152682,4541.0
14293.353800649895,4125.0
14293.353863147107,4048.0
14293.35392564432,3938.0
14293.353988141533,3874.0
14293.354050638745,3631.0
14293.354113135956,3028.0
14293.354175633169,2215.0
14293.354238130381,1590.0
14293.354300627594,1308.0
14293.354363124807,1417.0
14293.35442562202,1833.0
14293.354488119232,2399.0
14293.354550616445,2735.0
14293.354613113657,2689.0
14293.35467561087,2103.0
14293.354738108083,1132.0
14293.354800605293,-123.0
14293.354863102506,-1494.0
14293.354925599719,-2906.0
14293.354988096931,-4075.0
14293.355050594144,-5178.0
14293.355113091357,-6519.0
14293.35517558857,-8125.0
14293.355238085782,-10148.0
14293.355300582994,-12740.0
14293.355363080207,-15677.0
14293.35542557742,-18585.0
14293.35548807463,-21067.0
14293.355550571843,-22808.0
14293.355613069056,-23774.0
14293.355675566268,-24419.0
14293.355738063481,-25876.0
14293.355800560694,-26981.0
14293.355863057906,-25128.0
14293.355925555119,-19235.0
14293.355988052332,-10760.0
14293.356050549544,-1654.0
14293.356113046757,5713.0
14293.356175543968,10015.0
14293.35623804118,11025.0
14293.356300538393,9936.0
14293.356363035606,7972.0
14293.356425532818,5373.0
14293.356488030031,2595.0
14293.356550527244,432.0
14293.356613024456,-596.0
14293.356675521669,-128.0
14293.356738018882,714.0
14293.356800516092,1436.0
14293.356863013305,1214.0
14293.356925510518,212.0
14293.35698800773,-918.0
14293.357050504943,-1026.0
14293.357113002156,580.0
14293.357175499368,3199.0
14293.35723799658,5900.0
14293.357300493793,8020.0
14293.357362991006,8942.0
14293.357425488219,8709.0
14293.357487985431,7583.0
14293.357550482642,6118.0
14293.357612979855,4735.0
14293.357675477067,3608.0
14293.35773797428,3449.0
14293.357800471493,4260.0
14293.357862968705,5833.0
14293.357925465918,7541.0
14293.35798796313,8699.0
14293.358050460343,8675.0
14293.358112957556,7629.0
14293.358175454767,6256.0
14293.35823795198,5282.0
14293.358300449192,5064.0
14293.358362946405,5715.0
14293.358425443617,6706.0
14293.35848794083,7651.0
14293.358550438043,8123.0
14293.358612935255,8054.0
14293.358675432468,7424.0
14293.35873792968,6471.0
14293.358800426893,5360.0
14293.358862924106,4521.0
14293.358925421317,3944.0
14293.35898791853,3815.0
14293.359050415742,3851.0
14293.359112912955,3765.0
14293.359175410167,3447.0
14293.35923790738,2784.0
14293.359300404592,1939.0
14293.359362901805,1268.0
14293.359425399018,981.0
14293.35948789623,1190.0
14293.359550393441,1803.0
14293.359612890654,2499.0
14293.359675387866,2983.0
14293.359737885079,3062.0
14293.359800382292,2547.0
14293.359862879504,1444.0
14293.359925376717,-92.0
14293.35998787393,-1787.0
14293.360050371142,-3362.0
14293.360112868355,-4837.0
14293.360175365568,-6198.0
14293.36023786278,-7620.0
14293.360300359991,-9150.0
14293.360362857204,-10747.0
14293.360425354416,-12462.0
14293.360487851629,-14507.0
14293.360550348842,-16808.0
14293.360612846054,-19240.0
14293.360675343267,-21466.0
14293.36073784048,-23202.0
14293.360800337692,-24475.0
14293.360862834905,-26164.0
14293.360925332116,-27776.0
14293.360987829328,-26541.0
14293.36105032654,-20648.0
14293.361112823754,-11698.0
14293.361175320966,-1878.0
14293.361237818179,6345.0
14293.361300315391,11154.0
14293.361362812604,11849.0
14293.361425309817,9834.0
14293.36148780703,7306.0
14293.361550304242,4594.0
14293.361612801455,1984.0
14293.361675298665,345.0
14293.361737795878,-230.0
14293.36180029309,173.0
14293.361862790303,929.0
14293.361925287516,1551.0
14293.361987784729,1349.0
14293.362050281941,19.0
14293.362112779154,-1385.0
14293.362175276367,-1522.0
14293.36223777358,270.0
14293.36230027079,3306.0
14293.362362768003,6474.0
14293.362425265215,8870.0
14293.362487762428,9854.0
14293.36255025964,9117.0
14293.362612756853,7580.0
14293.362675254066,5737.0
14293.362737751278,4183.0
14293.362800248491,2921.0
14293.362862745704,2686.0
14293.362925242916,3674.0
14293.362987740129,5621.0
14293.36305023734,7621.0
14293.363112734552,8942.0
14293.363175231765,9005.0
14293.363237728978,7960.0
14293.36330022619,6313.0
14293.363362723403,5109.0
14293.363425220616,4907.0
14293.363487717828,5591.0
14293.363550215041,6594.0
14293.363612712254,7457.0
14293.363675209464,7846.0
14293.363737706677,7798.0
14293.36380020389,7259.0
14293.363862701102,6446.0
14293.363925198315,5398.0
14293.363987695528,4419.0
14293.36405019274,3712.0
14293.364112689953,3417.0
14293.364175187166,3585.0
14293.364237684378,3779.0
14293.36430018159,3623.0
14293.364362678802,3051.0
14293.364425176014,2222.0
14293.364487673227,1439.0
14293.36455017044,1031.0
14293.364612667652,1116.0
14293.364675164865,1555.0
14293.364737662077,1984.0
14293.36480015929,2154.0
14293.364862656503,1958.0
14293.364925153715,1355.0
14293.364987650928,263.0
14293.365050148139,-1198.0
14293.365112645351,-2867.0
14293.365175142564,-4405.0
14293.365237639777,-5649.0
14293.36530013699,-6708.0
14293.365362634202,-7721.0
14293.365425131415,-8919.0
14293.365487628627,-10523.0
14293.36555012584,-12899.0
14293.365612623053,-15922.0
14293.365675120265,-19196.0
14293.365737617476,-22212.0
14293.365800114689,-24524.0
14293.365862611901,-25796.0
14293.365925109114,-26939.0
14293.365987606327,-28246.0
14293.36605010354,-27219.0
14293.366112600752,-22158.0
14293.366175097965,-13869.0
14293.366237595177,-4442.0
14293.36630009239,4114.0
14293.366362589602,9804.0
14293.366425086813,11679.0
14293.366487584026,10563.0
14293.366550081239,8464.0
14293.366612578451,5900.0
14293.366675075664,3162.0
14293.366737572876,1005.0
14293.366800070089,-199.0
14293.366862567302,-420.0
14293.366925064514,92.0
14293.366987561727,593.0
14293.36705005894,914.0
14293.36711255615,201.0
14293.367175053363,-655.0
14293.367237550576,-918.0
14293.367300047788,524.0
14293.367362545001,3283.0
14293.367425042214,6254.0
14293.367487539426,8517.0
14293.367550036639,9616.0
14293.367612533852,9015.0
14293.367675031064,7431.0
14293.367737528275,5503.0
14293.367800025488,3908.0
14293.3678625227,2823.0
14293.367925019913,2621.0
14293.367987517126,3510.0
14293.368050014338,5300.0
14293.36811251155,7273.0
14293.368175008764,8771.0
14293.368237505976,9102.0
14293.368300003189,8311.0
14293.368362500401,6874.0
14293.368424997614,5507.0
14293.368487494825,4883.0
14293.368549992038,5178.0
14293.36861248925,6066.0
14293.368674986463,7055.0
14293.368737483675,7770.0
14293.368799980888,7828.0
14293.3688624781,7338.0
14293.368924975313,6413.0
14293.368987472526,5412.0
14293.369049969739,4563.0
14293.36911246695,4131.0
14293.369174964162,4102.0
14293.369237461375,4242.0
14293.369299958587,4253.0
14293.3693624558,3905.0
14293.369424953013,3051.0
14293.369487450225,1970.0
14293.369549947438,918.0
14293.36961244465,292.0
14293.369674941863,257.0
14293.369737439076,734.0
14293.369799936288,1626.0
14293.3698624335,2576.0
14293.369924930712,2947.0
14293.369987427925,2629.0
14293.370049925137,1699.0
14293.37011242235,269.0
14293.370174919562,-1394.0
14293.370237416775,-3115.0
14293.370299913988,-4734.0
14293.3703624112,-6221.0
14293.370424908413,-7572.0
14293.370487405624,-8991.0
14293.370549902837,-10485.0
14293.37061240005,-12256.0
14293.370674897262,-14651.0
14293.370737394474,-17629.0
14293.370799891687,-20608.0
14293.3708623889,-22596.0
14293.370924886112,-23626.0
14293.370987383325,-24062.0
14293.371049880538,-25265.0
14293.37111237775,-26774.0
14293.371174874963,-25771.0
14293.371237372174,-20544.0
14293.371299869386,-11881.0
14293.371362366599,-2306.0
14293.371424863812,5528.0
14293.371487361024,10222.0
14293.371549858237,11413.0
14293.37161235545,9970.0
14293.371674852662,7967.0
14293.371737349875,5544.0
14293.371799847087,2651.0
14293.371862344298,-62.0
14293.371924841511,-1581.0
14293.371987338724,-1228.0
14293.372049835936,-118.0
14293.372112333149,889.0
14293.372174830361,1339.0
14293.372237327574,468.0
14293.372299824787,-718.0
14293.372362322,-1086.0
14293.372424819212,709.0
14293.372487316425,3477.0
14293.372549813637,6461.0
14293.372612310848,8451.0
14293.37267480806,9264.0
14293.372737305273,8756.0
14293.372799802486,7630.0
14293.372862299699,6016.0
14293.372924796911,4586.0
14293.372987294124,3202.0
14293.373049791337,2708.0
14293.37311228855,3216.0
14293.373174785762,4936.0
14293.373237282973,6954.0
14293.373299780185,8351.0
14293.373362277398,8583.0
14293.37342477461,7850.0
14293.373487271823,6594.0
14293.373549769036,5641.0
14293.373612266249,5410.0
14293.373674763461,5952.0
14293.373737260674,6823.0
14293.373799757886,7539.0
14293.373862255099,7816.0
14293.373924752312,7554.0
14293.373987249523,6811.0
14293.374049746735,5800.0
14293.374112243948,4595.0
14293.37417474116,3739.0
14293.374237238373,3355.0
14293.374299735586,3403.0
14293.374362232798,3730.0
14293.374424730011,3892.0
14293.374487227224,3678.0
14293.374549724436,2856.0
14293.374612221647,1794.0
14293.37467471886,769.0
14293.374737216072,231.0
14293.374799713285,251.0
14293.374862210498,769.0
14293.37492470771,1436.0
14293.374987204923,2078.0
14293.375049702136,2254.0
14293.375112199348,1847.0
14293.37517469656,1001.0
14293.375237193774,-226.0
14293.375299690984,-1775.0
14293.375362188197,-3327.0
14293.37542468541,-4898.0
14293.375487182622,-6318.0
14293.375549679835,-7744.0
14293.375612177048,-9103.0
14293.37567467426,-10537.0
14293.375737171473,-12248.0
14293.375799668685,-14517.0
14293.375862165898,-17112.0
14293.37592466311,-19561.0
14293.375987160322,-21389.0
14293.376049657534,-22747.0
14293.376112154747,-23884.0
14293.37617465196,-25642.0
14293.376237149172,-27633.0
14293.376299646385,-26858.0
14293.376362143597,-20990.0
14293.37642464081,-11307.0
14293.376487138023,-1008.0
14293.376549635235,7154.0
14293.376612132448,11721.0
14293.376674629659,12128.0
14293.376737126871,9878.0
14293.376799624084,7301.0
14293.376862121297,4590.0
14293.37692461851,1806.0
14293.376987115722,-414.0
14293.377049612935,-1223.0
14293.377112110147,-627.0
14293.37717460736,610.0
14293.377237104572,1567.0
14293.377299601785,1376.0
14293.377362098996,-47.0
14293.377424596209,-1536.0
14293.377487093421,-1888.0
14293.377549590634,177.0
14293.377612087847,3548.0
14293.37767458506,6919.0
14293.377737082272,9143.0
14293.377799579484,9981.0
14293.377862076697,9334.0
14293.37792457391,7776.0
14293.377987071122,5913.0
14293.378049568333,4321.0
14293.378112065546,2886.0
14293.378174562758,2622.0
14293.378237059971,3733.0
14293.378299557184,5755.0
14293.378362054396,7620.0
14293.378424551609,8721.0
14293.378487048822,8513.0
14293.378549546034,7198.0
14293.378612043247,5599.0
14293.378674540458,4665.0
14293.37873703767,4605.0
14293.378799534883,5385.0
14293.378862032096,6491.0
14293.378924529308,7428.0
14293.378987026521,8007.0
14293.379049523734,8160.0
14293.379112020946,7542.0
14293.379174518159,6546.0
14293.379237015371,5351.0
14293.379299512584,4175.0
14293.379362009797,3415.0
14293.379424507008,3346.0
14293.37948700422,3487.0
14293.379549501433,3467.0
14293.379611998645,3181.0
14293.379674495858,2536.0
14293.37973699307,1649.0
14293.379799490283,772.0
14293.379861987496,318.0
14293.379924484709,256.0
14293.379986981921,573.0
14293.380049479132,1055.0
14293.380111976345,1439.0
14293.380174473557,1605.0
14293.38023697077,1267.0
14293.380299467983,248.0
14293.380361965195,-1192.0
14293.380424462408,-2856.0
14293.38048695962,-4558.0
14293.380549456833,-6110.0
14293.380611954046,-7378.0
14293.380674451259,-8648.0
14293.380736948471,-10186.0
14293.380799445682,-12099.0
14293.380861942895,-14456.0
14293.380924440107,-17175.0
14293.38098693732,-19631.0
14293.381049434533,-21380.0
14293.381111931745,-22394.0
14293.381174428958,-23048.0
14293.38123692617,-24668.0
14293.381299423383,-27177.0
14293.381361920596,-27333.0
14293.381424417807,-22549.0
14293.38148691502,-13408.0
14293.381549412232,-3152.0
14293.381611909444,5568.0
14293.381674406657,11041.0
14293.38173690387,12630.0
14293.381799401082,10833.0
14293.381861898295,8207.0
14293.381924395508,5280.0
14293.38198689272,2055.0
14293.382049389933,-784.0
14293.382111887146,-2039.0
14293.382174384356,-1322.0
14293.382236881569,301.0
14293.382299378782,1566.0
14293.382361875994,2025.0
14293.382424373207,921.0
14293.38248687042,-639.0
14293.382549367632,-1670.0
14293.382611864845,-222.0
14293.382674362058,2706.0
14293.38273685927,5960.0
14293.382799356481,8359.0
14293.382861853694,9672.0
14293.382924350906,9448.0
14293.382986848119,8261.0
14293.383049345332,6438.0
14293.383111842544,4789.0
14293.383174339757,3233.0
14293.38323683697,2420.0
14293.383299334182,2852.0
14293.383361831395,4710.0
14293.383424328607,6986.0
14293.38348682582,8584.0
14293.38354932303,8960.0
14293.383611820243,8101.0
14293.383674317456,6539.0
14293.383736814669,5175.0
14293.383799311881,4658.0
14293.383861809094,5035.0
14293.383924306307,5844.0
14293.38398680352,6646.0
14293.384049300732,7253.0
14293.384111797945,7462.0
14293.384174295155,7328.0
14293.384236792368,6661.0
14293.38429928958,5575.0
14293.384361786793,4348.0
14293.384424284006,3384.0
14293.384486781219,2935.0
14293.384549278431,3122.0
14293.384611775644,3343.0
14293.384674272857,3335.0
14293.38473677007,2667.0
14293.384799267282,1735.0
14293.384861764494,788.0
14293.384924261705,192.0
14293.384986758918,177.0
14293.38504925613,681.0
14293.385111753343,1123.0
14293.385174250556,1480.0
14293.385236747768,1566.0
14293.385299244981,1282.0
14293.385361742194,382.0
14293.385424239406,-937.0
14293.385486736619,-2666.0
14293.38554923383,-4492.0
14293.385611731042,-6290.0
14293.385674228255,-7694.0
14293.385736725468,-8574.0
14293.38579922268,-9475.0
14293.385861719893,-10919.0
14293.385924217106,-13043.0
14293.385986714318,-15728.0
14293.386049211531,-18508.0
14293.386111708744,-21051.0
14293.386174205956,-22884.0
14293.386236703167,-23887.0
14293.38629920038,-25017.0
14293.386361697592,-26937.0
14293.386424194805,-27302.0
14293.386486692018,-23320.0
14293.38654918923,-15046.0
14293.386611686443,-5155.0
14293.386674183655,3637.0
14293.386736680868,9654.0
14293.38679917808,11926.0
14293.386861675293,10868.0
14293.386924172504,8420.0
14293.386986669717,6035.0
14293.38704916693,3325.0
14293.387111664142,433.0
14293.387174161355,-1491.0
14293.387236658567,-1580.0
14293.38729915578,-479.0
14293.387361652993,587.0
14293.387424150205,1264.0
14293.387486647418,976.0
14293.38754914463,-148.0
14293.387611641841,-898.0
14293.387674139054,30.0
14293.387736636267,2679.0
14293.38779913348,5607.0
14293.387861630692,7892.0
14293.387924127905,9120.0
14293.387986625117,9218.0
14293.38804912233,8281.0
14293.388111619543,6671.0
14293.388174116755,5111.0
14293.388236613968,3843.0
14293.388299111179,3024.0
14293.388361608391,3373.0
14293.388424105604,4900.0
14293.388486602817,6878.0
14293.38854910003,8411.0
14293.388611597242,8831.0
14293.388674094454,8146.0
14293.388736591667,6752.0
14293.38879908888,5475.0
14293.388861586092,4988.0
14293.388924083305,5288.0
14293.388986580516,6048.0
14293.389049077728,6913.0
14293.389111574941,7404.0
14293.389174072154,7555.0
14293.389236569366,7324.0
14293.389299066579,6768.0
14293.389361563792,5945.0
14293.389424061004,5031.0
14293.389486558217,4332.0
14293.38954905543,3975.0
14293.38961155264,3939.0
14293.389674049853,3871.0
14293.389736547066,3469.0
14293.389799044278,2621.0
14293.389861541491,1467.0
14293.389924038704,507.0
14293.389986535916,6.0
14293.390049033129,96.0
14293.390111530342,597.0
14293.390174027554,1129.0
14293.390236524767,1476.0
14293.39029902198,1511.0
14293.39036151919,1118.0
14293.390424016403,228.0
14293.390486513616,-1043.0
14293.390549010828,-2514.0
14293.39061150804,-3934.0
14293.390674005253,-5215.0
14293.390736502466,-6503.0
14293.390798999679,-7909.0
14293.390861496891,-9525.0
14293.390923994104,-11463.0
14293.390986491315,-13536.0
14293.391048988527,-15704.0
14293.39111148574,-17791.0
14293.391173982953,-19483.0
14293.391236480165,-20794.0
14293.391298977378,-21945.0
14293.39136147459,-23327.0
14293.391423971803,-25680.0
14293.391486469016,-27291.0
14293.391548966229,-24903.0
14293.391611463441,-17611.0
14293.391673960654,-7826.0
14293.391736457865,1568.0
14293.391798955077,8630.0
14293.39186145229,12110.0
14293.391923949503,11753.0
14293.391986446715,9319.0
14293.392048943928,6581.0
14293.39211144114,3603.0
14293.392173938353,550.0
14293.392236435566,-1335.0
14293.392298932778,-1471.0
14293.39236142999,13.0
14293.392423927202,1631.0
14293.392486424415,2526.0
14293.392548921627,2109.0
14293.39261141884,541.0
14293.392673916052,-923.0
14293.392736413265,-939.0
14293.392798910478,1153.0
14293.39286140769,4299.0
14293.392923904903,7053.0
14293.392986402116,9019.0
14293.393048899328,9800.0
14293.39311139654,9360.0
14293.393173893752,8067.0
14293.393236390964,6416.0
14293.393298888177,4740.0
14293.39336138539,3359.0
14293.393423882602,3001.0
14293.393486379815,4147.0
14293.393548877028,6229.0
14293.39361137424,8210.0
14293.393673871453,9106.0
14293.393736368664,8703.0
14293.393798865876,7285.0
14293.393861363089,5669.0
14293.393923860302,4765.0
14293.393986357514,4937.0
14293.394048854727,5822.0
14293.39411135194,6667.0
14293.394173849152,7355.0
14293.394236346365,7764.0
14293.394298843577,7767.0
14293.39436134079,7364.0
14293.394423838003,6592.0
14293.394486335214,5473.0
14293.394548832426,4362.0
14293.394611329639,3507.0
14293.394673826851,3226.0
14293.394736324064,3306.0
14293.394798821277,3261.0
14293.39486131849,2894.0
14293.394923815702,2124.0
14293.394986312915,1262.0
14293.395048810127,711.0
14293.395111307338,535.0
14293.39517380455,870.0
14293.395236301763,1363.0
14293.395298798976,1653.0
14293.395361296189,1688.0
14293.395423793401,1467.0
14293.395486290614,826.0
14293.395548787827,-369.0
14293.39561128504,-2001.0
14293.395673782252,-3698.0
14293.395736279464,-5188.0
14293.395798776677,-6458.0
14293.395861273888,-7571.0
14293.3959237711,-8803.0
14293.395986268313,-10361.0
14293.396048765526,-12416.0
14293.396111262738,-15065.0
14293.396173759951,-17598.0
14293.396236257164,-19626.0
14293.396298754376,-20979.0
14293.396361251589,-21988.0
14293.396423748802,-22782.0
14293.396486246013,-24273.0
14293.396548743225,-25872.0
14293.396611240438,-24838.0
14293.39667373765,-19381.0
14293.396736234863,-10833.0
14293.396798732076,-1766.0
14293.396861229288,5598.0
14293.396923726501,10062.0
14293.396986223714,11339.0
14293.397048720926,10135.0
14293.397111218139,7949.0
14293.397173715352,5343.0
14293.397236212562,2300.0
14293.397298709775,-307.0
14293.397361206988,-1614.0
14293.3974237042,-929.0
14293.397486201413,466.0
14293.397548698626,1804.0
14293.397611195838,2305.0
14293.39767369305,1796.0
14293.397736190263,769.0
14293.397798687476,192.0
14293.397861184687,1470.0
14293.3979236819,3786.0
14293.397986179112,6189.0
14293.398048676325,7958.0
14293.398111173537,8918.0
14293.39817367075,8928.0
14293.398236167963,8187.0
14293.398298665175,6896.0
14293.398361162388,5679.0
14293.3984236596,4468.0
14293.398486156813,3883.0
14293.398548654024,4349.0
14293.398611151237,6014.0
14293.39867364845,7994.0
14293.398736145662,9310.0
14293.398798642875,9386.0
14293.398861140087,8459.0
14293.3989236373,6975.0
14293.398986134513,5784.0
14293.399048631725,5284.0
14293.399111128938,5605.0
14293.39917362615,6209.0
14293.399236123361,6707.0
14293.399298620574,7141.0
14293.399361117787,7529.0
14293.399423615,7675.0
14293.399486112212,7389.0
14293.399548609425,6601.0
14293.399611106637,5640.0
14293.39967360385,4739.0
14293.399736101062,4210.0
14293.399798598275,4084.0
14293.399861095488,4016.0
14293.399923592699,3652.0
14293.399986089911,2977.0
14293.400048587124,2269.0
14293.400111084336,1581.0
14293.40017358155,1231.0
14293.400236078762,1151.0
14293.400298575974,1318.0
14293.400361073187,1535.0
14293.4004235704,1637.0
14293.400486067612,1497.0
14293.400548564825,1012.0
14293.400611062036,-2.0
14293.400673559248,-1433.0
14293.400736056461,-3166.0
14293.400798553674,-4839.0
14293.400861050886,-6489.0
14293.400923548099,-7974.0
14293.400986045312,-9100.0
14293.401048542524,-10108.0
14293.401111039737,-11525.0
14293.40117353695,-13386.0
14293.401236034162,-15636.0
14293.401298531373,-17893.0
14293.401361028586,-19923.0
14293.401423525798,-21623.0
14293.40148602301,-23003.0
14293.401548520224,-24733.0
14293.401611017436,-26466.0
14293.401673514649,-25434.0
14293.401736011861,-20200.0
14293.401798509074,-11927.0
14293.401861006287,-3135.0
14293.401923503498,4439.0
14293.40198600071,9595.0
14293.402048497923,11462.0
14293.402110995135,10404.0
14293.402173492348,8434.0
14293.40223598956,6048.0
14293.402298486773,3188.0
14293.402360983986,585.0
14293.402423481199,-634.0
14293.402485978411,-205.0
14293.402548475624,936.0
14293.402610972837,1900.0
14293.402673470047,2357.0
14293.40273596726,1718.0
14293.402798464473,598.0
14293.402860961685,-96.0
14293.402923458898,1048.0
14293.40298595611,3299.0
14293.403048453323,5922.0
14293.403110950536,7956.0
14293.403173447748,9297.0
14293.403235944961,9560.0
14293.403298442172,8831.0
14293.403360939385,7463.0
14293.403423436597,6186.0
14293.40348593381,5009.0
14293.403548431023,4324.0
14293.403610928235,4691.0
14293.403673425448,6063.0
14293.40373592266,7740.0
14293.403798419873,8861.0
14293.403860917086,9094.0
14293.403923414298,8392.0
14293.403985911511,7098.0
14293.404048408722,5890.0
14293.404110905934,5245.0
14293.404173403147,5336.0
14293.40423590036,5857.0
14293.404298397572,6551.0
14293.404360894785,7237.0
14293.404423391998,7756.0
14293.40448588921,7949.0
14293.404548386423,7660.0
14293.404610883636,7035.0
14293.404673380846,6065.0
14293.404735878059,4988.0
14293.404798375272,4133.0
14293.404860872484,3671.0
14293.404923369697,3248.0
14293.40498586691,2828.0
14293.405048364122,2378.0
14293.405110861335,1904.0
14293.405173358547,1492.0
14293.40523585576,1369.0
14293.405298352973,1472.0
14293.405360850185,1658.0
14293.405423347396,1730.0
14293.405485844609,1687.0
14293.405548341821,1510.0
14293.405610839034,1004.0
14293.405673336247,18.0
14293.40573583346,-1268.0
14293.405798330672,-2680.0
14293.405860827885,-4002.0
14293.405923325097,-5258.0
14293.40598582231,-6388.0
14293.40604831952,-7646.0
14293.406110816733,-9301.0
14293.406173313946,-11469.0
14293.406235811159,-14021.0
14293.406298308371,-16598.0
14293.406360805584,-18798.0
14293.406423302797,-20148.0
14293.40648580001,-20963.0
14293.406548297222,-21674.0
14293.406610794435,-23084.0
14293.406673291647,-25010.0
14293.40673578886,-25034.0
14293.40679828607,-21351.0
14293.406860783283,-14428.0
14293.406923280496,-6002.0
14293.406985777709,2139.0
14293.407048274921,8088.0
14293.407110772134,11123.0
14293.407173269346,11323.0
14293.40723576656,9931.0
14293.407298263772,7313.0
14293.407360760984,3794.0
14293.407423258195,742.0
14293.407485755408,-1040.0
14293.40754825262,-1073.0
14293.407610749833,252.0
14293.407673247046,1772.0
14293.407735744258,2709.0
14293.407798241471,2358.0
14293.407860738684,1501.0
14293.407923235896,657.0
14293.407985733109,1207.0
14293.408048230322,2797.0
14293.408110727534,4949.0
14293.408173224745,6935.0
14293.408235721958,8678.0
14293.40829821917,9390.0
14293.408360716383,9328.0
14293.408423213596,8278.0
14293.408485710808,6911.0
14293.40854820802,5381.0
14293.408610705234,4357.0
14293.408673202446,4390.0
14293.408735699659,5619.0
14293.40879819687,7245.0
14293.408860694082,8644.0
14293.408923191295,9196.0
14293.408985688508,8917.0
14293.40904818572,7970.0
14293.409110682933,6918.0
14293.409173180145,6179.0
14293.409235677358,5873.0
14293.40929817457,5890.0
14293.409360671783,6216.0
14293.409423168996,6792.0
14293.409485666207,7456.0
14293.40954816342,7803.0
14293.409610660632,7735.0
14293.409673157845,7149.0
14293.409735655057,6168.0
14293.40979815227,5133.0
14293.409860649483,4332.0
14293.409923146695,3876.0
14293.409985643908,3535.0
14293.41004814112,3240.0
14293.410110638333,2822.0
14293.410173135544,2587.0
14293.410235632757,2365.0
14293.41029812997,2265.0
14293.410360627182,2119.0
14293.410423124395,1890.0
14293.410485621607,1478.0
14293.41054811882,1141.0
14293.410610616032,990.0
14293.410673113245,915.0
14293.410735610458,578.0
14293.41079810767,-228.0
14293.410860604881,-1491.0
14293.410923102094,-3026.0
14293.410985599307,-4692.0
14293.41104809652,-6335.0
14293.411110593732,-8109.0
14293.411173090944,-9872.0
14293.411235588157,-11758.0
14293.41129808537,-13755.0
14293.411360582582,-15810.0
14293.411423079795,-17726.0
14293.411485577008,-19363.0
14293.411548074218,-20652.0
14293.411610571431,-21759.0
14293.411673068644,-23237.0
14293.411735565856,-25013.0
14293.411798063069,-24997.0
14293.411860560282,-21434.0
14293.411923057494,-14746.0
14293.411985554707,-6640.0
14293.41204805192,1343.0
14293.412110549132,7286.0
14293.412173046345,10307.0
14293.412235543556,10648.0
14293.412298040768,9705.0
14293.412360537981,7634.0
14293.412423035194,4492.0
14293.412485532406,1631.0
14293.412548029619,-130.0
14293.412610526831,-459.0
14293.412673024044,286.0
14293.412735521257,1574.0
14293.41279801847,2563.0
14293.41286051568,2437.0
14293.412923012893,1806.0
14293.412985510105,1241.0
14293.413048007318,1839.0
14293.41311050453,3226.0
14293.413173001743,5102.0
14293.413235498956,6880.0
14293.413297996169,8357.0
14293.413360493381,9164.0
14293.413422990594,9118.0
14293.413485487807,8374.0
14293.41354798502,7209.0
14293.41361048223,5821.0
14293.413672979443,4836.0
14293.413735476655,4885.0
14293.413797973868,5919.0
14293.41386047108,7386.0
14293.413922968293,8572.0
14293.413985465506,9229.0
14293.414047962719,9046.0
14293.414110459931,8141.0
14293.414172957144,7151.0
14293.414235454355,6523.0
14293.414297951567,6210.0
14293.41436044878,6202.0
14293.414422945993,6494.0
14293.414485443205,7046.0
14293.414547940418,7557.0
14293.41461043763,7764.0
14293.414672934843,7563.0
14293.414735432056,7008.0
14293.414797929268,6184.0
14293.414860426481,5359.0
14293.414922923694,4730.0
14293.414985420904,4440.0
14293.415047918117,4136.0
14293.41511041533,3692.0
14293.415172912542,3082.0
14293.415235409755,2546.0
14293.415297906968,2085.0
14293.41536040418,1828.0
14293.415422901393,1848.0
