0,1
14876.588349472762,382.0
14876.588411969975,501.0
14876.588474467188,514.0
14876.5885369644,494.0
14876.588599461613,425.0
14876.588661958825,327.0
14876.588724456038,303.0
14876.58878695325,322.0
14876.588849450463,332.0
14876.588911947674,300.0
14876.588974444887,333.0
14876.5890369421,320.0
14876.589099439312,238.0
14876.589161936525,253.0
14876.589224433737,200.0
14876.58928693095,149.0
14876.589349428163,151.0
14876.589411925375,144.0
14876.589474422588,181.0
14876.5895369198,248.0
14876.589599417013,309.0
14876.589661914224,305.0
14876.589724411437,208.0
14876.58978690865,112.0
14876.589849405862,92.0
14876.589911903075,37.0
14876.589974400287,79.0
14876.5900368975,166.0
14876.590099394713,121.0
14876.590161891925,105.0
14876.590224389136,61.0
14876.590286886349,-30.0
14876.590349383561,-92.0
14876.590411880774,-133.0
14876.590474377987,-119.0
14876.5905368752,-101.0
14876.590599372412,-135.0
14876.590661869624,-86.0
14876.590724366837,-19.0
14876.59078686405,17.0
14876.590849361262,120.0
14876.590911858475,153.0
14876.590974355688,189.0
14876.591036852898,221.0
14876.591099350111,149.0
14876.591161847324,117.0
14876.591224344536,164.0
14876.591286841749,270.0
14876.591349338962,347.0
14876.591411836174,332.0
14876.591474333387,322.0
14876.5915368306,323.0
14876.59159932781,322.0
14876.591661825023,322.0
14876.591724322236,283.0
14876.591786819448,228.0
14876.591849316661,182.0
14876.591911813874,117.0
14876.591974311086,124.0
14876.592036808299,213.0
14876.592099305512,209.0
14876.592161802724,224.0
14876.592224299937,308.0
14876.59228679715,345.0
14876.592349294362,349.0
14876.592411791573,352.0
14876.592474288786,298.0
14876.592536785998,201.0
14876.59259928321,147.0
14876.592661780423,109.0
14876.592724277636,71.0
14876.592786774849,127.0
14876.592849272061,218.0
14876.592911769274,220.0
14876.592974266485,220.0
14876.593036763697,230.0
14876.59309926091,201.0
14876.593161758123,110.0
14876.593224255335,-21.0
14876.593286752548,-85.0
14876.59334924976,-151.0
14876.593411746973,-157.0
14876.593474244186,-64.0
14876.593536741399,-91.0
14876.593599238611,-89.0
14876.593661735824,-75.0
14876.593724233035,-114.0
14876.593786730247,-104.0
14876.59384922746,-160.0
14876.593911724673,-279.0
14876.593974221885,-332.0
14876.594036719098,-315.0
14876.59409921631,-319.0
14876.594161713523,-368.0
14876.594224210736,-336.0
14876.594286707948,-246.0
14876.59434920516,-191.0
14876.594411702372,-133.0
14876.594474199585,-59.0
14876.594536696797,-63.0
14876.59459919401,-158.0
14876.594661691222,-276.0
14876.594724188435,-409.0
14876.594786685648,-478.0
14876.59484918286,-451.0
14876.594911680073,-438.0
14876.594974177286,-331.0
14876.595036674498,-214.0
14876.595099171709,-152.0
14876.595161668922,-35.0
14876.595224166134,7.0
14876.595286663347,-39.0
14876.59534916056,-115.0
14876.595411657772,-156.0
14876.595474154985,-146.0
14876.595536652198,-81.0
14876.59559914941,39.0
14876.595661646623,146.0
14876.595724143834,194.0
14876.595786641046,187.0
14876.595849138259,217.0
14876.595911635472,220.0
14876.595974132684,148.0
14876.596036629897,79.0
14876.59609912711,-26.0
14876.596161624322,-93.0
14876.596224121535,-80.0
14876.596286618747,-69.0
14876.59634911596,-58.0
14876.596411613173,-60.0
14876.596474110383,-102.0
14876.596536607596,-138.0
14876.596599104809,-172.0
14876.596661602021,-142.0
14876.596724099234,-161.0
14876.596786596447,-265.0
14876.59684909366,-320.0
14876.596911590872,-350.0
14876.596974088085,-269.0
14876.597036585297,-82.0
14876.597099082508,49.0
14876.59716157972,107.0
14876.597224076933,135.0
14876.597286574146,132.0
14876.597349071359,120.0
14876.597411568571,67.0
14876.597474065784,9.0
14876.597536562997,-24.0
14876.59759906021,-73.0
14876.597661557422,-78.0
14876.597724054634,-101.0
14876.597786551847,-173.0
14876.597849049058,-188.0
14876.59791154627,-78.0
14876.597974043483,103.0
14876.598036540696,179.0
14876.598099037908,114.0
14876.598161535121,41.0
14876.598224032334,-16.0
14876.598286529546,-44.0
14876.598349026759,10.0
14876.598411523972,106.0
14876.598474021182,191.0
14876.598536518395,258.0
14876.598599015608,273.0
14876.59866151282,264.0
14876.598724010033,249.0
14876.598786507246,220.0
14876.598849004458,200.0
14876.598911501671,145.0
14876.598973998884,212.0
14876.599036496096,291.0
14876.599098993309,263.0
14876.599161490522,285.0
14876.599223987732,361.0
14876.599286484945,383.0
14876.599348982158,396.0
14876.59941147937,464.0
14876.599473976583,493.0
14876.599536473796,511.0
14876.599598971008,494.0
14876.59966146822,454.0
14876.599723965433,385.0
14876.599786462646,301.0
14876.599848959857,227.0
14876.59991145707,130.0
14876.599973954282,139.0
14876.600036451495,176.0
14876.600098948707,139.0
14876.60016144592,131.0
14876.600223943133,91.0
14876.600286440345,81.0
14876.600348937558,77.0
14876.60041143477,62.0
14876.600473931983,57.0
14876.600536429196,-30.0
14876.600598926407,-112.0
14876.60066142362,-138.0
14876.600723920832,-102.0
14876.600786418045,-42.0
14876.600848915257,-30.0
14876.60091141247,-14.0
14876.600973909683,6.0
14876.601036406895,-31.0
14876.601098904108,-60.0
14876.601161401319,-57.0
14876.601223898531,-99.0
14876.601286395744,-127.0
14876.601348892957,-126.0
14876.60141139017,-58.0
14876.601473887382,12.0
14876.601536384595,29.0
14876.601598881807,47.0
14876.60166137902,33.0
14876.601723876232,-11.0
14876.601786373445,-62.0
14876.601848870658,-75.0
14876.60191136787,-118.0
14876.601973865081,-51.0
14876.602036362294,-4.0
14876.602098859506,-64.0
14876.602161356719,9.0
14876.602223853932,67.0
14876.602286351144,79.0
14876.602348848357,91.0
14876.60241134557,34.0
14876.602473842782,-46.0
14876.602536339993,-115.0
14876.602598837206,-153.0
14876.602661334418,-109.0
14876.602723831631,-6.0
14876.602786328844,97.0
14876.602848826056,129.0
14876.602911323269,106.0
14876.602973820482,144.0
14876.603036317694,101.0
14876.603098814907,-52.0
14876.60316131212,-163.0
14876.603223809332,-198.0
14876.603286306545,-180.0
14876.603348803756,-167.0
14876.603411300968,-189.0
14876.60347379818,-191.0
14876.603536295393,-187.0
14876.603598792606,-190.0
14876.603661289819,-184.0
14876.603723787031,-196.0
14876.603786284244,-155.0
14876.603848781457,-129.0
14876.603911278668,-165.0
14876.60397377588,-105.0
14876.604036273093,-3.0
14876.604098770305,22.0
14876.604161267518,77.0
14876.60422376473,181.0
14876.604286261943,249.0
14876.604348759156,285.0
14876.604411256369,251.0
14876.604473753581,223.0
14876.604536250794,164.0
14876.604598748007,107.0
14876.604661245217,52.0
14876.60472374243,-4.0
14876.604786239643,33.0
14876.604848736855,65.0
14876.604911234068,61.0
14876.60497373128,174.0
14876.605036228493,334.0
14876.605098725706,405.0
14876.605161222918,430.0
14876.605223720131,368.0
14876.605286217342,325.0
14876.605348714555,316.0
14876.605411211767,222.0
14876.60547370898,148.0
14876.605536206192,191.0
14876.605598703405,222.0
14876.605661200618,229.0
14876.60572369783,196.0
14876.605786195043,142.0
14876.605848692256,90.0
14876.605911189468,-85.0
14876.605973686681,-229.0
14876.606036183892,-285.0
14876.606098681104,-362.0
14876.606161178317,-398.0
14876.60622367553,-413.0
14876.606286172742,-347.0
14876.606348669955,-217.0
14876.606411167168,-154.0
14876.60647366438,-97.0
14876.606536161593,-61.0
14876.606598658806,-112.0
14876.606661156016,-224.0
14876.606723653229,-315.0
14876.606786150442,-375.0
14876.606848647654,-443.0
14876.606911144867,-453.0
14876.60697364208,-449.0
14876.607036139292,-451.0
14876.607098636505,-501.0
14876.607161133717,-540.0
14876.60722363093,-440.0
14876.607286128143,-378.0
14876.607348625355,-358.0
14876.607411122566,-269.0
14876.607473619779,-245.0
14876.607536116991,-266.0
14876.607598614204,-248.0
14876.607661111417,-229.0
14876.60772360863,-234.0
14876.607786105842,-233.0
14876.607848603055,-238.0
14876.607911100267,-246.0
14876.60797359748,-249.0
14876.60803609469,-282.0
14876.608098591903,-355.0
14876.608161089116,-338.0
14876.608223586329,-254.0
14876.608286083541,-215.0
14876.608348580754,-235.0
14876.608411077967,-236.0
14876.60847357518,-211.0
14876.608536072392,-151.0
14876.608598569605,-65.0
14876.608661066817,5.0
14876.60872356403,89.0
14876.60878606124,123.0
14876.608848558453,80.0
14876.608911055666,4.0
14876.608973552879,-14.0
14876.609036050091,-18.0
14876.609098547304,-36.0
14876.609161044516,-86.0
14876.609223541729,-138.0
14876.609286038942,-130.0
14876.609348536154,-114.0
14876.609411033365,-78.0
14876.609473530578,-107.0
14876.60953602779,-162.0
14876.609598525003,-163.0
14876.609661022216,-179.0
14876.609723519428,-224.0
14876.609786016641,-236.0
14876.609848513854,-221.0
14876.609911011066,-215.0
14876.609973508279,-157.0
14876.610036005492,-146.0
14876.610098502704,-235.0
14876.610160999915,-352.0
14876.610223497128,-467.0
14876.61028599434,-480.0
14876.610348491553,-436.0
14876.610410988766,-458.0
14876.610473485978,-465.0
14876.61053598319,-418.0
14876.610598480403,-428.0
14876.610660977616,-414.0
14876.610723474829,-452.0
14876.61078597204,-507.0
14876.610848469252,-473.0
14876.610910966465,-531.0
14876.610973463678,-524.0
14876.61103596089,-379.0
14876.611098458103,-280.0
14876.611160955315,-171.0
14876.611223452528,-105.0
14876.61128594974,-157.0
14876.611348446953,-225.0
14876.611410944166,-188.0
14876.611473441379,-173.0
14876.61153593859,-245.0
14876.611598435802,-278.0
14876.611660933015,-246.0
14876.611723430227,-224.0
14876.61178592744,-247.0
14876.611848424653,-330.0
14876.611910921865,-399.0
14876.611973419078,-346.0
14876.61203591629,-289.0
14876.612098413501,-311.0
14876.612160910714,-288.0
14876.612223407927,-236.0
14876.61228590514,-207.0
14876.612348402352,-196.0
14876.612410899565,-178.0
14876.612473396777,-186.0
14876.61253589399,-207.0
14876.612598391202,-195.0
14876.612660888415,-184.0
14876.612723385628,-165.0
14876.61278588284,-173.0
14876.612848380053,-217.0
14876.612910877264,-271.0
14876.612973374476,-271.0
14876.61303587169,-207.0
14876.613098368902,-203.0
14876.613160866114,-219.0
14876.613223363327,-145.0
14876.61328586054,-80.0
14876.613348357752,-87.0
14876.613410854965,-84.0
14876.613473352176,-23.0
14876.613535849388,-59.0
14876.613598346601,-157.0
14876.613660843814,-254.0
14876.613723341026,-338.0
14876.613785838239,-339.0
14876.613848335452,-307.0
14876.613910832664,-318.0
14876.613973329877,-258.0
14876.61403582709,-157.0
14876.614098324302,-163.0
14876.614160821515,-180.0
14876.614223318727,-241.0
14876.614285815938,-293.0
14876.614348313151,-327.0
14876.614410810364,-338.0
14876.614473307576,-297.0
14876.614535804789,-244.0
14876.614598302001,-174.0
14876.614660799214,-154.0
14876.614723296427,-142.0
14876.61478579364,-105.0
14876.61484829085,-101.0
14876.614910788063,-190.0
14876.614973285275,-250.0
14876.615035782488,-307.0
14876.6150982797,-364.0
14876.615160776913,-284.0
14876.615223274126,-239.0
14876.615285771339,-278.0
14876.615348268551,-288.0
14876.615410765764,-385.0
14876.615473262977,-490.0
14876.61553576019,-468.0
14876.615598257402,-461.0
14876.615660754613,-478.0
14876.615723251825,-420.0
14876.615785749038,-398.0
14876.61584824625,-455.0
14876.615910743463,-429.0
14876.615973240676,-301.0
14876.616035737889,-255.0
14876.616098235101,-281.0
14876.616160732314,-251.0
14876.616223229525,-266.0
14876.616285726737,-275.0
14876.61634822395,-275.0
14876.616410721163,-297.0
14876.616473218375,-325.0
14876.616535715588,-338.0
14876.6165982128,-366.0
14876.616660710013,-419.0
14876.616723207226,-361.0
14876.616785704438,-279.0
14876.616848201651,-167.0
14876.616910698864,-111.0
14876.616973196074,-158.0
14876.617035693287,-242.0
14876.6170981905,-319.0
14876.617160687712,-252.0
14876.617223184925,-163.0
14876.617285682138,-41.0
14876.61734817935,23.0
14876.617410676563,-95.0
14876.617473173776,-167.0
14876.617535670988,-188.0
14876.617598168199,-288.0
14876.617660665412,-367.0
14876.617723162624,-371.0
14876.617785659837,-405.0
14876.61784815705,-339.0
14876.617910654262,-358.0
14876.617973151475,-352.0
14876.618035648688,-229.0
14876.6180981459,-239.0
14876.618160643113,-249.0
14876.618223140325,-262.0
14876.618285637538,-314.0
14876.618348134749,-378.0
14876.618410631962,-338.0
14876.618473129174,-192.0
14876.618535626387,-195.0
14876.6185981236,-295.0
14876.618660620812,-317.0
14876.618723118025,-315.0
14876.618785615237,-374.0
14876.61884811245,-430.0
14876.618910609663,-475.0
14876.618973106873,-512.0
14876.619035604086,-555.0
14876.619098101299,-684.0
14876.619160598511,-793.0
14876.619223095724,-785.0
14876.619285592937,-697.0
14876.61934809015,-641.0
14876.619410587362,-578.0
14876.619473084575,-452.0
14876.619535581787,-324.0
14876.619598079,-249.0
14876.619660576212,-257.0
14876.619723073423,-288.0
14876.619785570636,-360.0
14876.619848067849,-446.0
14876.619910565061,-515.0
14876.619973062274,-469.0
14876.620035559486,-323.0
14876.6200980567,-246.0
14876.620160553912,-201.0
14876.620223051124,-229.0
14876.620285548337,-293.0
14876.620348045548,-313.0
14876.62041054276,-318.0
14876.620473039973,-271.0
14876.620535537186,-274.0
14876.620598034398,-410.0
14876.620660531611,-586.0
14876.620723028824,-683.0
14876.620785526036,-692.0
14876.620848023249,-621.0
14876.620910520462,-569.0
14876.620973017674,-542.0
14876.621035514887,-510.0
14876.621098012098,-486.0
14876.62116050931,-423.0
14876.621223006523,-482.0
14876.621285503736,-609.0
14876.621348000948,-639.0
14876.621410498161,-713.0
14876.621472995374,-687.0
14876.621535492586,-527.0
14876.621597989799,-394.0
14876.621660487011,-210.0
14876.621722984222,-99.0
14876.621785481435,-129.0
14876.621847978648,-156.0
14876.62191047586,-253.0
14876.621972973073,-386.0
14876.622035470285,-500.0
14876.622097967498,-684.0
14876.62216046471,-805.0
14876.622222961923,-746.0
14876.622285459136,-712.0
14876.622347956349,-703.0
14876.622410453561,-599.0
14876.622472950772,-538.0
14876.622535447985,-466.0
14876.622597945197,-472.0
14876.62266044241,-541.0
14876.622722939623,-619.0
14876.622785436835,-665.0
14876.622847934048,-646.0
14876.62291043126,-660.0
14876.622972928473,-574.0
14876.623035425684,-500.0
14876.623097922897,-541.0
14876.62316042011,-600.0
14876.623222917322,-633.0
14876.623285414535,-643.0
14876.623347911747,-716.0
14876.62341040896,-787.0
14876.623472906173,-820.0
14876.623535403385,-860.0
14876.623597900598,-875.0
14876.62366039781,-870.0
14876.623722895023,-801.0
14876.623785392236,-651.0
14876.623847889447,-495.0
14876.62391038666,-437.0
14876.623972883872,-458.0
14876.624035381084,-414.0
14876.624097878297,-433.0
14876.62416037551,-548.0
14876.624222872722,-675.0
14876.624285369935,-765.0
14876.624347867148,-736.0
14876.624410364358,-662.0
14876.624472861571,-605.0
14876.624535358784,-451.0
14876.624597855996,-335.0
14876.624660353209,-350.0
14876.624722850422,-381.0
14876.624785347634,-481.0
14876.624847844847,-560.0
14876.62491034206,-594.0
14876.624972839272,-596.0
14876.625035336485,-575.0
14876.625097833698,-573.0
14876.62516033091,-588.0
14876.625222828121,-608.0
14876.625285325334,-647.0
14876.625347822546,-739.0
14876.625410319759,-744.0
14876.625472816972,-702.0
14876.625535314184,-738.0
14876.625597811397,-770.0
14876.62566030861,-730.0
14876.625722805822,-718.0
14876.625785303033,-730.0
14876.625847800246,-743.0
14876.625910297458,-792.0
14876.62597279467,-758.0
14876.626035291883,-684.0
14876.626097789096,-625.0
14876.626160286309,-564.0
14876.626222783521,-581.0
14876.626285280734,-666.0
14876.626347777947,-817.0
14876.62641027516,-916.0
14876.626472772372,-854.0
14876.626535269585,-750.0
14876.626597766795,-661.0
14876.626660264008,-576.0
14876.62672276122,-556.0
14876.626785258433,-494.0
14876.626847755646,-441.0
14876.626910252859,-410.0
14876.626972750071,-361.0
14876.627035247284,-467.0
14876.627097744496,-588.0
14876.627160241707,-521.0
14876.62722273892,-372.0
14876.627285236133,-264.0
14876.627347733345,-313.0
14876.627410230558,-457.0
14876.62747272777,-540.0
14876.627535224983,-613.0
14876.627597722196,-645.0
14876.627660219408,-609.0
14876.627722716621,-590.0
14876.627785213834,-561.0
14876.627847711046,-598.0
14876.627910208257,-709.0
14876.62797270547,-604.0
14876.628035202682,-411.0
14876.628097699895,-342.0
14876.628160197108,-204.0
14876.62822269432,-143.0
14876.628285191533,-166.0
14876.628347688746,-167.0
14876.628410185958,-280.0
14876.628472683171,-387.0
14876.628535180382,-384.0
14876.628597677594,-351.0
14876.628660174807,-387.0
14876.62872267202,-534.0
14876.628785169232,-625.0
14876.628847666445,-664.0
14876.628910163658,-741.0
14876.62897266087,-728.0
14876.629035158083,-673.0
14876.629097655295,-678.0
14876.629160152508,-665.0
14876.62922264972,-550.0
14876.629285146932,-512.0
14876.629347644144,-550.0
14876.629410141357,-559.0
14876.62947263857,-613.0
14876.629535135782,-646.0
14876.629597632995,-621.0
14876.629660130207,-616.0
14876.62972262742,-660.0
14876.629785124633,-661.0
14876.629847621845,-651.0
14876.629910119056,-729.0
14876.629972616269,-679.0
14876.630035113481,-474.0
14876.630097610694,-409.0
14876.630160107907,-492.0
14876.63022260512,-556.0
14876.630285102332,-522.0
14876.630347599545,-554.0
14876.630410096757,-623.0
14876.63047259397,-608.0
14876.630535091183,-601.0
14876.630597588395,-582.0
14876.630660085606,-564.0
14876.630722582819,-598.0
14876.630785080031,-642.0
14876.630847577244,-665.0
14876.630910074457,-647.0
14876.63097257167,-572.0
14876.631035068882,-599.0
14876.631097566094,-611.0
14876.631160063307,-504.0
14876.63122256052,-446.0
14876.63128505773,-377.0
14876.631347554943,-348.0
14876.631410052156,-384.0
14876.631472549368,-438.0
14876.631535046581,-527.0
14876.631597543794,-579.0
14876.631660041006,-583.0
14876.631722538219,-558.0
14876.631785035432,-529.0
14876.631847532644,-476.0
14876.631910029857,-379.0
14876.63197252707,-344.0
14876.63203502428,-392.0
14876.632097521493,-474.0
14876.632160018706,-479.0
14876.632222515918,-448.0
14876.632285013131,-437.0
14876.632347510344,-373.0
14876.632410007556,-332.0
14876.632472504769,-297.0
14876.632535001982,-269.0
14876.632597499194,-247.0
14876.632659996405,-158.0
14876.632722493618,-98.0
14876.63278499083,-134.0
14876.632847488043,-222.0
14876.632909985256,-329.0
14876.632972482468,-336.0
14876.63303497968,-317.0
14876.633097476893,-290.0
14876.633159974106,-245.0
14876.633222471319,-336.0
14876.633284968531,-408.0
14876.633347465744,-462.0
14876.633409962955,-519.0
14876.633472460167,-514.0
14876.63353495738,-514.0
14876.633597454593,-511.0
14876.633659951805,-538.0
14876.633722449018,-581.0
14876.63378494623,-615.0
14876.633847443443,-554.0
14876.633909940656,-452.0
14876.633972437869,-405.0
14876.63403493508,-374.0
14876.634097432292,-417.0
14876.634159929505,-423.0
14876.634222426717,-407.0
14876.63428492393,-416.0
14876.634347421143,-399.0
14876.634409918355,-387.0
14876.634472415568,-359.0
14876.63453491278,-343.0
14876.634597409993,-317.0
14876.634659907206,-308.0
14876.634722404418,-365.0
14876.63478490163,-332.0
14876.634847398842,-205.0
14876.634909896055,-210.0
14876.634972393267,-305.0
14876.63503489048,-393.0
14876.635097387692,-557.0
14876.635159884905,-606.0
14876.635222382118,-450.0
14876.63528487933,-350.0
14876.635347376541,-372.0
14876.635409873754,-409.0
14876.635472370966,-517.0
14876.63553486818,-665.0
14876.635597365392,-619.0
14876.635659862604,-545.0
14876.635722359817,-653.0
14876.63578485703,-670.0
14876.635847354242,-557.0
14876.635909851455,-529.0
14876.635972348668,-446.0
14876.63603484588,-328.0
14876.636097343093,-287.0
14876.636159840304,-285.0
14876.636222337516,-336.0
14876.636284834729,-391.0
14876.636347331942,-300.0
14876.636409829154,-199.0
14876.636472326367,-292.0
14876.63653482358,-306.0
14876.636597320792,-292.0
14876.636659818005,-294.0
14876.636722315216,-295.0
14876.636784812428,-407.0
14876.63684730964,-486.0
14876.636909806854,-542.0
14876.636972304066,-603.0
14876.637034801279,-667.0
14876.637097298491,-764.0
14876.637159795704,-799.0
14876.637222292917,-835.0
14876.63728479013,-860.0
14876.637347287342,-741.0
14876.637409784555,-593.0
14876.637472281767,-493.0
14876.637534778978,-431.0
14876.63759727619,-489.0
14876.637659773403,-543.0
14876.637722270616,-620.0
14876.637784767829,-714.0
14876.637847265041,-640.0
14876.637909762254,-509.0
14876.637972259467,-323.0
14876.63803475668,-127.0
14876.63809725389,-72.0
14876.638159751103,-95.0
14876.638222248315,-184.0
14876.638284745528,-232.0
14876.63834724274,-230.0
14876.638409739953,-303.0
14876.638472237166,-408.0
14876.638534734378,-444.0
14876.638597231591,-439.0
14876.638659728804,-462.0
14876.638722226016,-439.0
14876.638784723229,-423.0
14876.63884722044,-492.0
14876.638909717652,-549.0
14876.638972214865,-512.0
14876.639034712078,-508.0
14876.63909720929,-460.0
14876.639159706503,-359.0
14876.639222203716,-412.0
14876.639284700928,-374.0
14876.639347198141,-289.0
14876.639409695354,-303.0
14876.639472192564,-332.0
14876.639534689777,-241.0
14876.63959718699,-167.0
14876.639659684202,-173.0
14876.639722181415,-154.0
14876.639784678628,-182.0
14876.63984717584,-64.0
14876.639909673053,52.0
14876.639972170266,-44.0
14876.640034667478,-145.0
14876.64009716469,-205.0
14876.640159661903,-227.0
14876.640222159114,-210.0
14876.640284656327,-246.0
14876.64034715354,-289.0
14876.640409650752,-262.0
14876.640472147965,-405.0
14876.640534645177,-569.0
14876.64059714239,-549.0
14876.640659639603,-516.0
14876.640722136815,-522.0
14876.640784634028,-583.0
14876.640847131239,-564.0
14876.640909628451,-618.0
14876.640972125664,-706.0
14876.641034622877,-571.0
14876.64109712009,-486.0
14876.641159617302,-450.0
14876.641222114515,-313.0
14876.641284611727,-199.0
14876.64134710894,-58.0
14876.641409606153,95.0
14876.641472103365,12.0
14876.641534600578,-135.0
14876.641597097789,-112.0
14876.641659595001,-184.0
14876.641722092214,-165.0
14876.641784589427,30.0
14876.64184708664,20.0
14876.641909583852,-35.0
14876.641972081065,5.0
14876.642034578277,-27.0
14876.64209707549,-78.0
14876.642159572702,-103.0
14876.642222069913,-177.0
14876.642284567126,-134.0
14876.642347064339,-9.0
14876.642409561551,37.0
14876.642472058764,34.0
14876.642534555976,-44.0
14876.64259705319,-105.0
14876.642659550402,-103.0
14876.642722047614,-194.0
14876.642784544827,-195.0
14876.64284704204,-48.0
14876.642909539252,41.0
14876.642972036463,130.0
14876.643034533676,201.0
14876.643097030888,189.0
14876.643159528101,157.0
14876.643222025314,81.0
14876.643284522526,77.0
14876.643347019739,184.0
14876.643409516952,334.0
14876.643472014164,369.0
14876.643534511377,326.0
14876.643597008588,295.0
14876.6436595058,216.0
14876.643722003013,171.0
14876.643784500226,75.0
14876.643846997438,-89.0
14876.64390949465,-184.0
14876.643971991864,-91.0
14876.644034489076,108.0
14876.644096986289,198.0
14876.644159483501,303.0
14876.644221980714,294.0
14876.644284477927,108.0
14876.644346975138,-32.0
14876.64440947235,-149.0
14876.644471969563,-99.0
14876.644534466775,13.0
14876.644596963988,-2.0
14876.6446594612,-32.0
14876.644721958413,-78.0
14876.644784455626,-120.0
14876.644846952839,-202.0
14876.644909450051,-323.0
14876.644971947262,-319.0
14876.645034444475,-227.0
14876.645096941687,-241.0
14876.6451594389,-253.0
14876.645221936113,-124.0
14876.645284433325,-100.0
14876.645346930538,-143.0
14876.64540942775,-86.0
14876.645471924963,-39.0
14876.645534422176,-46.0
14876.645596919388,-9.0
14876.645659416601,34.0
14876.645721913812,-61.0
14876.645784411025,-116.0
14876.645846908237,-67.0
14876.64590940545,-84.0
14876.645971902662,-85.0
14876.646034399875,-62.0
14876.646096897088,-134.0
14876.6461593943,-155.0
14876.646221891513,-61.0
14876.646284388724,62.0
14876.646346885937,114.0
14876.64640938315,115.0
14876.646471880362,126.0
14876.646534377574,139.0
14876.646596874787,137.0
14876.646659372,160.0
14876.646721869212,183.0
14876.646784366425,224.0
14876.646846863638,269.0
14876.64690936085,166.0
14876.646971858063,99.0
14876.647034355276,47.0
14876.647096852486,-89.0
14876.647159349699,-179.0
14876.647221846912,-220.0
14876.647284344124,-219.0
14876.647346841337,-287.0
14876.64740933855,-318.0
14876.647471835762,-237.0
14876.647534332975,-202.0
14876.647596830187,-243.0
14876.647659327398,-223.0
14876.647721824611,-217.0
14876.647784321824,-236.0
14876.647846819036,-194.0
14876.647909316249,-151.0
14876.647971813461,-158.0
14876.648034310674,-233.0
14876.648096807887,-385.0
14876.6481593051,-479.0
14876.648221802312,-385.0
14876.648284299525,-263.0
14876.648346796737,-181.0
14876.64840929395,-92.0
14876.64847179116,-28.0
14876.648534288373,5.0
14876.648596785586,-20.0
14876.648659282799,-87.0
14876.648721780011,-149.0
14876.648784277224,-226.0
14876.648846774437,-274.0
14876.64890927165,-234.0
14876.648971768862,-128.0
14876.649034266073,-12.0
14876.649096763285,-76.0
14876.649159260498,-222.0
14876.64922175771,-221.0
14876.649284254923,-174.0
14876.649346752136,-127.0
14876.649409249349,-135.0
14876.649471746561,-233.0
14876.649534243774,-363.0
14876.649596740986,-462.0
14876.6496592382,-453.0
14876.649721735412,-404.0
14876.649784232623,-311.0
14876.649846729835,-225.0
14876.649909227048,-261.0
14876.64997172426,-265.0
14876.650034221473,-149.0
14876.650096718686,-110.0
14876.650159215898,-115.0
14876.650221713111,-97.0
14876.650284210324,-171.0
14876.650346707536,-317.0
14876.650409204747,-411.0
14876.65047170196,-291.0
14876.650534199172,-98.0
14876.650596696385,-17.0
14876.650659193598,1.0
14876.65072169081,33.0
14876.650784188023,98.0
14876.650846685236,140.0
14876.650909182448,126.0
14876.65097167966,151.0
14876.651034176874,201.0
14876.651096674086,160.0
14876.651159171297,125.0
14876.65122166851,106.0
14876.651284165722,-19.0
14876.651346662935,-175.0
14876.651409160148,-209.0
14876.65147165736,-183.0
14876.651534154573,-150.0
14876.651596651785,-149.0
14876.651659148998,-162.0
14876.65172164621,-106.0
14876.651784143422,-201.0
14876.651846640634,-360.0
14876.651909137847,-378.0
14876.65197163506,-329.0
14876.652034132272,-187.0
14876.652096629485,-28.0
14876.652159126697,31.0
14876.65222162391,10.0
14876.652284121123,14.0
14876.652346618335,-33.0
14876.652409115548,-130.0
14876.65247161276,-125.0
14876.652534109971,-131.0
14876.652596607184,-149.0
14876.652659104397,-108.0
14876.65272160161,-73.0
14876.652784098822,-4.0
14876.652846596035,10.0
14876.652909093247,-60.0
14876.65297159046,-37.0
14876.653034087672,-15.0
14876.653096584885,-19.0
14876.653159082096,41.0
14876.653221579309,80.0
14876.653284076521,76.0
14876.653346573734,10.0
14876.653409070947,-24.0
14876.65347156816,49.0
14876.653534065372,80.0
14876.653596562584,66.0
14876.653659059797,147.0
14876.65372155701,207.0
14876.653784054222,180.0
14876.653846551435,133.0
14876.653909048646,108.0
14876.653971545858,214.0
14876.654034043071,346.0
14876.654096540284,401.0
14876.654159037496,439.0
14876.654221534709,376.0
14876.654284031922,364.0
14876.654346529134,301.0
14876.654409026347,132.0
14876.65447152356,175.0
14876.65453402077,277.0
14876.654596517983,352.0
14876.654659015196,435.0
14876.654721512408,416.0
14876.654784009621,380.0
14876.654846506834,358.0
14876.654909004046,251.0
14876.654971501259,331.0
14876.655033998471,470.0
14876.655096495684,381.0
14876.655158992897,344.0
14876.65522149011,393.0
14876.65528398732,428.0
14876.655346484533,456.0
14876.655408981745,294.0
14876.655471478958,90.0
14876.65553397617,102.0
14876.655596473383,74.0
14876.655658970596,104.0
14876.655721467809,237.0
14876.655783965021,286.0
14876.655846462234,302.0
14876.655908959445,254.0
14876.655971456657,209.0
14876.65603395387,263.0
14876.656096451083,336.0
14876.656158948295,340.0
14876.656221445508,343.0
14876.65628394272,343.0
14876.656346439933,187.0
14876.656408937146,-21.0
14876.656471434359,-67.0
14876.656533931571,15.0
14876.656596428784,32.0
14876.656658925995,78.0
14876.656721423207,274.0
14876.65678392042,386.0
14876.656846417633,253.0
14876.656908914845,93.0
14876.656971412058,127.0
14876.65703390927,209.0
14876.657096406483,160.0
14876.657158903696,109.0
14876.657221400907,83.0
14876.65728389812,30.0
14876.657346395332,-67.0
14876.657408892544,-100.0
14876.657471389757,-93.0
14876.65753388697,-62.0
14876.657596384182,28.0
14876.657658881395,-28.0
14876.657721378608,-111.0
14876.65778387582,-115.0
14876.657846373033,-265.0
14876.657908870246,-423.0
14876.657971367458,-375.0
14876.658033864669,-350.0
14876.658096361882,-344.0
14876.658158859094,-253.0
14876.658221356307,-89.0
14876.65828385352,184.0
14876.658346350732,356.0
14876.658408847945,336.0
14876.658471345158,168.0
14876.65853384237,-15.0
14876.658596339581,-120.0
14876.658658836794,-118.0
14876.658721334006,-49.0
14876.658783831219,20.0
14876.658846328432,91.0
14876.658908825644,124.0
14876.658971322857,196.0
14876.65903382007,276.0
14876.659096317282,238.0
14876.659158814495,106.0
14876.659221311707,-71.0
14876.65928380892,-211.0
14876.659346306133,-209.0
14876.659408803343,-205.0
14876.659471300556,-88.0
14876.659533797769,242.0
14876.659596294981,341.0
14876.659658792194,362.0
14876.659721289407,369.0
14876.65978378662,144.0
14876.659846283832,-61.0
14876.659908781045,-276.0
14876.659971278255,-296.0
14876.660033775468,3.0
14876.66009627268,85.0
14876.660158769893,-59.0
14876.660221267106,-204.0
14876.660283764319,-250.0
14876.660346261531,-38.0
14876.660408758744,74.0
14876.660471255957,119.0
14876.66053375317,259.0
14876.660596250382,131.0
14876.660658747594,-174.0
14876.660721244807,-248.0
14876.660783742018,-216.0
14876.66084623923,-175.0
14876.660908736443,-140.0
14876.660971233656,-21.0
14876.661033730868,78.0
14876.661096228081,-2.0
14876.661158725294,-6.0
14876.661221222506,13.0
14876.661283719719,33.0
14876.66134621693,11.0
14876.661408714142,-22.0
14876.661471211355,74.0
14876.661533708568,73.0
14876.66159620578,10.0
14876.661658702993,97.0
14876.661721200206,182.0
14876.661783697418,141.0
14876.661846194631,101.0
14876.661908691844,23.0
14876.661971189056,-106.0
14876.662033686269,-78.0
14876.66209618348,-16.0
14876.662158680692,-40.0
14876.662221177905,2.0
14876.662283675118,22.0
14876.66234617233,-32.0
14876.662408669543,37.0
14876.662471166755,262.0
14876.662533663968,364.0
14876.66259616118,327.0
14876.662658658393,290.0
14876.662721155604,160.0
14876.662783652817,20.0
14876.66284615003,8.0
14876.662908647242,13.0
14876.662971144455,60.0
14876.663033641667,178.0
14876.66309613888,88.0
14876.663158636093,-114.0
14876.663221133305,-59.0
14876.663283630518,50.0
14876.66334612773,24.0
14876.663408624943,-27.0
14876.663471122154,-52.0
14876.663533619367,75.0
14876.66359611658,143.0
14876.663658613792,190.0
14876.663721111005,245.0
14876.663783608217,152.0
14876.66384610543,134.0
14876.663908602643,152.0
14876.663971099855,257.0
14876.664033597068,367.0
14876.664096094279,307.0
14876.664158591491,272.0
14876.664221088704,225.0
14876.664283585917,177.0
14876.66434608313,90.0
14876.664408580342,97.0
14876.664471077554,234.0
14876.664533574767,274.0
14876.66459607198,257.0
14876.664658569192,218.0
14876.664721066405,150.0
14876.664783563618,97.0
14876.664846060828,114.0
14876.664908558041,163.0
14876.664971055254,275.0
14876.665033552466,308.0
14876.665096049679,290.0
14876.665158546892,323.0
14876.665221044104,275.0
14876.665283541317,243.0
14876.66534603853,161.0
14876.665408535742,196.0
14876.665471032953,297.0
14876.665533530166,236.0
14876.665596027378,158.0
14876.665658524591,136.0
14876.665721021804,106.0
14876.665783519016,16.0
14876.665846016229,12.0
14876.665908513442,54.0
14876.665971010654,227.0
14876.666033507867,517.0
14876.66609600508,635.0
14876.666158502292,711.0
14876.666220999503,600.0
14876.666283496716,448.0
14876.666345993928,409.0
14876.66640849114,325.0
14876.666470988353,308.0
14876.666533485566,289.0
14876.666595982779,293.0
14876.666658479991,293.0
14876.666720977204,129.0
14876.666783474417,-74.0
14876.666845971627,-57.0
14876.66690846884,38.0
14876.666970966053,110.0
14876.667033463265,179.0
14876.667095960478,169.0
14876.66715845769,204.0
14876.667220954903,178.0
14876.667283452116,101.0
14876.667345949329,111.0
14876.667408446541,207.0
14876.667470943754,283.0
14876.667533440967,226.0
14876.667595938177,229.0
14876.66765843539,357.0
14876.667720932603,448.0
14876.667783429815,411.0
14876.667845927028,276.0
14876.66790842424,188.0
14876.667970921453,173.0
14876.668033418666,-4.0
14876.668095915878,-3.0
14876.66815841309,289.0
14876.668220910302,293.0
14876.668283407515,252.0
14876.668345904727,233.0
14876.66840840194,128.0
14876.668470899152,157.0
14876.668533396365,43.0
14876.668595893578,-143.0
14876.66865839079,-170.0
14876.668720888003,-120.0
14876.668783385216,-52.0
14876.668845882428,30.0
14876.668908379641,50.0
14876.668970876852,23.0
14876.669033374064,17.0
14876.669095871277,-14.0
14876.66915836849,65.0
14876.669220865702,109.0
14876.669283362915,33.0
14876.669345860128,-35.0
14876.66940835734,5.0
14876.669470854553,133.0
14876.669533351764,193.0
14876.669595848976,276.0
14876.669658346189,343.0
14876.669720843402,319.0
14876.669783340614,218.0
14876.669845837827,68.0
14876.66990833504,-51.0
14876.669970832252,-19.0
14876.670033329465,66.0
14876.670095826677,94.0
14876.67015832389,140.0
14876.670220821103,206.0
14876.670283318315,307.0
14876.670345815526,348.0
14876.670408312739,438.0
14876.670470809951,615.0
14876.670533307164,660.0
14876.670595804377,559.0
14876.67065830159,523.0
14876.670720798802,575.0
14876.670783296015,555.0
14876.670845793227,496.0
14876.670908290438,409.0
14876.67097078765,291.0
14876.671033284863,333.0
14876.671095782076,414.0
14876.671158279289,376.0
14876.671220776501,439.0
14876.671283273714,686.0
14876.671345770927,771.0
14876.67140826814,838.0
14876.671470765352,838.0
14876.671533262564,624.0
14876.671595759777,517.0
14876.67165825699,514.0
14876.6717207542,470.0
14876.671783251413,468.0
14876.671845748626,481.0
14876.671908245838,253.0
14876.671970743051,51.0
14876.672033240264,6.0
14876.672095737476,-63.0
14876.672158234689,26.0
14876.672220731902,182.0
14876.672283229113,194.0
14876.672345726325,197.0
14876.672408223538,128.0
14876.67247072075,110.0
14876.672533217963,194.0
14876.672595715176,146.0
14876.672658212388,163.0
14876.672720709601,281.0
14876.672783206814,357.0
14876.672845704026,420.0
14876.672908201239,267.0
14876.672970698452,100.0
14876.673033195662,33.0
14876.673095692875,-156.0
14876.673158190088,-237.0
14876.6732206873,-286.0
14876.673283184513,-321.0
14876.673345681726,-238.0
14876.673408178938,-143.0
14876.67347067615,-92.0
14876.673533173363,50.0
14876.673595670576,148.0
14876.673658167787,57.0
14876.673720665,26.0
14876.673783162212,115.0
14876.673845659425,65.0
14876.673908156637,35.0
14876.67397065385,220.0
14876.674033151063,292.0
14876.674095648275,230.0
14876.674158145488,245.0
14876.6742206427,190.0
14876.674283139913,230.0
14876.674345637126,259.0
14876.674408134337,71.0
14876.67447063155,101.0
14876.674533128762,234.0
14876.674595625975,189.0
14876.674658123187,141.0
14876.6747206204,242.0
14876.674783117613,360.0
14876.674845614825,407.0
14876.674908112038,343.0
14876.67497060925,310.0
14876.675033106461,374.0
14876.675095603674,240.0
14876.675158100887,228.0
14876.6752205981,248.0
14876.675283095312,166.0
14876.675345592525,141.0
14876.675408089737,8.0
14876.67547058695,-74.0
14876.675533084162,135.0
14876.675595581375,369.0
14876.675658078588,471.0
14876.6757205758,517.0
14876.675783073011,500.0
14876.675845570224,394.0
14876.675908067436,208.0
14876.67597056465,112.0
14876.676033061862,193.0
14876.676095559074,202.0
14876.676158056287,119.0
14876.6762205535,120.0
14876.676283050712,203.0
14876.676345547925,202.0
14876.676408045136,182.0
14876.676470542348,224.0
14876.676533039561,325.0
14876.676595536774,436.0
14876.676658033986,500.0
14876.676720531199,489.0
14876.676783028412,390.0
14876.676845525624,250.0
14876.676908022837,171.0
14876.67697052005,300.0
14876.677033017262,451.0
14876.677095514475,416.0
14876.677158011686,451.0
14876.677220508898,521.0
14876.67728300611,561.0
14876.677345503324,655.0
14876.677408000536,695.0
14876.677470497749,587.0
14876.677532994961,396.0
14876.677595492174,176.0
14876.677657989387,193.0
14876.6777204866,319.0
14876.67778298381,328.0
14876.677845481023,376.0
14876.677907978235,365.0
14876.677970475448,397.0
14876.67803297266,389.0
14876.678095469873,311.0
14876.678157967086,255.0
14876.678220464299,167.0
14876.678282961511,198.0
14876.678345458724,194.0
14876.678407955937,266.0
14876.67847045315,463.0
14876.67853295036,524.0
14876.678595447573,469.0
14876.678657944785,333.0
14876.678720441998,271.0
14876.67878293921,380.0
14876.678845436423,427.0
14876.678907933636,296.0
14876.678970430848,186.0
14876.679032928061,151.0
14876.679095425272,101.0
14876.679157922485,46.0
14876.679220419697,49.0
14876.67928291691,215.0
14876.679345414123,338.0
14876.679407911335,383.0
14876.679470408548,460.0
14876.67953290576,400.0
14876.679595402973,340.0
14876.679657900186,457.0
14876.679720397398,483.0
14876.679782894611,446.0
14876.679845391824,334.0
14876.679907889034,91.0
14876.679970386247,55.0
14876.68003288346,252.0
14876.680095380672,416.0
14876.680157877885,477.0
14876.680220375098,527.0
14876.68028287231,457.0
14876.680345369523,327.0
14876.680407866736,314.0
14876.680470363946,223.0
14876.680532861159,184.0
14876.680595358372,343.0
14876.680657855584,413.0
14876.680720352797,367.0
14876.68078285001,227.0
14876.680845347222,167.0
14876.680907844435,343.0
14876.680970341647,445.0
14876.68103283886,457.0
14876.681095336073,398.0
14876.681157833285,341.0
14876.681220330498,377.0
14876.681282827709,428.0
14876.681345324921,436.0
14876.681407822134,415.0
14876.681470319347,409.0
14876.68153281656,355.0
14876.681595313772,243.0
14876.681657810985,86.0
14876.681720308197,-19.0
14876.68178280541,8.0
14876.68184530262,-30.0
14876.681907799833,-201.0
14876.681970297046,-125.0
14876.682032794259,80.0
14876.682095291471,108.0
14876.682157788684,240.0
14876.682220285897,364.0
14876.68228278311,296.0
14876.682345280322,240.0
14876.682407777535,179.0
14876.682470274747,192.0
14876.68253277196,262.0
14876.682595269172,393.0
14876.682657766383,599.0
14876.682720263596,655.0
14876.682782760809,530.0
14876.682845258021,326.0
14876.682907755234,60.0
14876.682970252446,-7.0
14876.68303274966,140.0
14876.683095246872,216.0
14876.683157744084,306.0
14876.683220241295,365.0
14876.683282738508,276.0
14876.68334523572,296.0
14876.683407732933,534.0
14876.683470230146,546.0
14876.683532727358,465.0
14876.683595224571,518.0
14876.683657721784,456.0
14876.683720218996,426.0
14876.683782716209,469.0
14876.683845213422,370.0
14876.683907710634,300.0
14876.683970207845,434.0
14876.684032705058,600.0
14876.68409520227,594.0
14876.684157699483,578.0
14876.684220196696,527.0
14876.684282693908,394.0
14876.68434519112,372.0
14876.684407688334,364.0
14876.684470185546,330.0
14876.684532682759,236.0
14876.68459517997,156.0
14876.684657677182,181.0
14876.684720174395,286.0
14876.684782671608,454.0
14876.68484516882,432.0
14876.684907666033,319.0
14876.684970163245,273.0
14876.685032660458,105.0
14876.68509515767,-150.0
14876.685157654883,-263.0
14876.685220152096,-206.0
14876.685282649309,-26.0
14876.68534514652,187.0
14876.685407643732,195.0
14876.685470140945,190.0
14876.685532638157,332.0
14876.68559513537,370.0
14876.685657632583,470.0
14876.685720129795,528.0
14876.685782627008,472.0
14876.68584512422,428.0
14876.685907621433,284.0
14876.685970118644,323.0
14876.686032615857,431.0
14876.68609511307,434.0
14876.686157610282,586.0
14876.686220107495,719.0
14876.686282604707,801.0
14876.68634510192,675.0
14876.686407599133,480.0
14876.686470096345,566.0
14876.686532593558,636.0
14876.68659509077,381.0
14876.686657587983,113.0
14876.686720085194,39.0
14876.686782582407,34.0
14876.68684507962,174.0
14876.686907576832,313.0
14876.686970074044,471.0
14876.687032571257,583.0
14876.68709506847,443.0
14876.687157565682,234.0
14876.687220062895,148.0
14876.687282560108,184.0
14876.687345057318,89.0
14876.687407554531,-42.0
14876.687470051744,-68.0
14876.687532548956,-81.0
14876.687595046169,-9.0
14876.687657543382,34.0
14876.687720040594,24.0
14876.687782537807,2.0
14876.68784503502,-49.0
14876.687907532232,-96.0
14876.687970029445,-86.0
14876.688032526657,28.0
14876.688095023868,12.0
14876.688157521081,-12.0
14876.688220018294,95.0
14876.688282515506,104.0
14876.688345012719,52.0
14876.688407509931,49.0
14876.688470007144,112.0
14876.688532504357,204.0
14876.68859500157,239.0
14876.688657498782,181.0
14876.688719995993,31.0
14876.688782493206,-89.0
14876.688844990418,-92.0
14876.68890748763,80.0
14876.688969984843,388.0
14876.689032482056,461.0
14876.689094979269,361.0
14876.689157476481,411.0
14876.689219973694,422.0
14876.689282470907,401.0
14876.68934496812,323.0
14876.689407465332,220.0
14876.689469962543,293.0
14876.689532459755,270.0
14876.689594956968,166.0
14876.68965745418,155.0
14876.689719951393,96.0
14876.689782448606,14.0
14876.689844945819,2.0
14876.689907443031,33.0
14876.689969940244,73.0
14876.690032437456,123.0
14876.690094934667,96.0
14876.69015743188,58.0
14876.690219929093,94.0
14876.690282426305,151.0
14876.690344923518,167.0
14876.69040742073,263.0
14876.690469917943,409.0
14876.690532415156,423.0
14876.690594912368,419.0
14876.690657409581,410.0
14876.690719906794,387.0
14876.690782404006,341.0
14876.690844901217,278.0
14876.69090739843,195.0
14876.690969895642,162.0
14876.691032392855,275.0
14876.691094890068,336.0
14876.69115738728,322.0
14876.691219884493,255.0
14876.691282381706,138.0
14876.691344878918,100.0
14876.691407376129,12.0
14876.691469873342,-151.0
14876.691532370554,-121.0
14876.691594867767,32.0
14876.69165736498,253.0
14876.691719862192,453.0
14876.691782359405,450.0
14876.691844856618,434.0
14876.69190735383,334.0
14876.691969851043,218.0
14876.692032348255,204.0
14876.692094845468,261.0
14876.69215734268,493.0
14876.692219839892,669.0
14876.692282337104,733.0
14876.692344834317,699.0
14876.69240733153,588.0
14876.692469828742,470.0
14876.692532325955,415.0
14876.692594823167,500.0
14876.69265732038,566.0
14876.692719817593,574.0
14876.692782314803,491.0
14876.692844812016,373.0
14876.692907309229,344.0
14876.692969806441,322.0
14876.693032303654,175.0
14876.693094800867,132.0
14876.69315729808,224.0
14876.693219795292,169.0
14876.693282292505,160.0
14876.693344789717,187.0
14876.69340728693,142.0
14876.693469784143,115.0
14876.693532281355,113.0
14876.693594778566,168.0
14876.693657275779,198.0
14876.693719772991,296.0
14876.693782270204,379.0
14876.693844767417,379.0
14876.69390726463,498.0
14876.693969761842,584.0
14876.694032259054,521.0
14876.694094756267,469.0
14876.694157253478,402.0
14876.69421975069,342.0
14876.694282247903,350.0
14876.694344745116,217.0
14876.694407242328,138.0
14876.694469739541,319.0
14876.694532236754,220.0
14876.694594733966,-75.0
14876.694657231179,-20.0
14876.694719728392,99.0
14876.694782225604,38.0
14876.694844722817,101.0
14876.694907220028,163.0
14876.69496971724,179.0
14876.695032214453,224.0
14876.695094711666,208.0
14876.695157208878,333.0
14876.695219706091,584.0
14876.695282203304,566.0
14876.695344700516,278.0
14876.695407197729,247.0
14876.695469694941,249.0
14876.695532192152,117.0
14876.695594689365,36.0
14876.695657186578,-42.0
14876.69571968379,-54.0
14876.695782181003,-23.0
14876.695844678216,54.0
14876.695907175428,108.0
14876.69596967264,198.0
14876.696032169853,236.0
14876.696094667066,30.0
14876.696157164279,-83.0
14876.696219661491,-164.0
14876.696282158702,-381.0
14876.696344655915,-433.0
14876.696407153127,-345.0
14876.69646965034,-165.0
14876.696532147553,112.0
14876.696594644765,228.0
14876.696657141978,229.0
14876.69671963919,185.0
14876.696782136403,75.0
14876.696844633616,-23.0
14876.696907130827,-114.0
14876.69696962804,-57.0
14876.697032125252,78.0
14876.697094622465,23.0
14876.697157119677,68.0
14876.69721961689,240.0
14876.697282114103,271.0
14876.697344611315,158.0
14876.697407108528,68.0
14876.69746960574,71.0
14876.697532102953,102.0
14876.697594600166,125.0
14876.697657097377,75.0
14876.69771959459,98.0
14876.697782091802,149.0
14876.697844589014,116.0
14876.697907086227,107.0
14876.69796958344,271.0
14876.698032080652,391.0
14876.698094577865,310.0
14876.698157075078,231.0
14876.69821957229,58.0
14876.698282069501,-63.0
14876.698344566714,-58.0
14876.698407063926,-99.0
14876.698469561139,-140.0
14876.698532058352,-217.0
14876.698594555564,-295.0
14876.698657052777,-228.0
14876.69871954999,-26.0
14876.698782047202,158.0
14876.698844544415,299.0
14876.698907041628,378.0
14876.69896953884,421.0
14876.699032036051,443.0
14876.699094533264,415.0
14876.699157030476,364.0
14876.699219527689,436.0
14876.699282024902,665.0
14876.699344522114,644.0
14876.699407019327,487.0
14876.69946951654,431.0
14876.699532013752,297.0
14876.699594510965,142.0
14876.699657008176,50.0
14876.699719505388,-124.0
14876.6997820026,-163.0
14876.699844499813,-32.0
14876.699906997026,-73.0
14876.699969494239,-60.0
14876.700031991451,151.0
14876.700094488664,83.0
14876.700156985877,-40.0
14876.70021948309,11.0
14876.700281980302,-110.0
14876.700344477515,-60.0
14876.700406974725,157.0
14876.700469471938,260.0
14876.70053196915,350.0
14876.700594466363,224.0
14876.700656963576,62.0
14876.700719460789,85.0
14876.700781958001,99.0
14876.700844455214,114.0
14876.700906952427,198.0
14876.70096944964,205.0
14876.70103194685,69.0
14876.701094444063,-2.0
14876.701156941275,79.0
14876.701219438488,89.0
14876.7012819357,106.0
14876.701344432913,84.0
14876.701406930126,23.0
14876.701469427338,81.0
14876.701531924551,21.0
14876.701594421764,11.0
14876.701656918976,114.0
14876.701719416189,62.0
14876.7017819134,139.0
14876.701844410612,302.0
14876.701906907825,325.0
14876.701969405038,273.0
14876.70203190225,105.0
14876.702094399463,-13.0
14876.702156896676,33.0
14876.702219393888,36.0
14876.702281891101,-22.0
14876.702344388312,65.0
14876.702406885524,112.0
14876.702469382737,-35.0
14876.70253187995,72.0
14876.702594377162,290.0
14876.702656874375,285.0
14876.702719371588,219.0
14876.7027818688,152.0
14876.702844366013,6.0
14876.702906863226,-117.0
14876.702969360438,-38.0
14876.70303185765,135.0
14876.703094354863,269.0
14876.703156852074,344.0
14876.703219349287,283.0
14876.7032818465,234.0
14876.703344343712,165.0
14876.703406840925,-56.0
14876.703469338137,-130.0
14876.70353183535,-77.0
14876.703594332563,-61.0
14876.703656829775,-81.0
14876.703719326986,-112.0
14876.703781824199,-149.0
14876.703844321411,-116.0
14876.703906818624,-8.0
14876.703969315837,37.0
14876.70403181305,112.0
14876.704094310262,186.0
14876.704156807475,114.0
14876.704219304687,-9.0
14876.7042818019,-29.0
14876.704344299113,6.0
14876.704406796325,59.0
14876.704469293538,57.0
14876.704531790749,-38.0
14876.704594287961,-32.0
14876.704656785174,110.0
14876.704719282387,250.0
14876.7047817796,406.0
14876.704844276812,461.0
14876.704906774024,384.0
14876.704969271237,388.0
14876.70503176845,361.0
14876.70509426566,269.0
14876.705156762873,279.0
14876.705219260086,309.0
14876.705281757299,390.0
14876.705344254511,522.0
14876.705406751724,536.0
14876.705469248936,428.0
14876.705531746149,273.0
14876.705594243362,183.0
14876.705656740574,193.0
14876.705719237787,197.0
14876.705781735,240.0
14876.70584423221,394.0
14876.705906729423,417.0
14876.705969226636,360.0
14876.706031723848,398.0
14876.706094221061,338.0
14876.706156718274,234.0
14876.706219215486,218.0
14876.706281712699,264.0
14876.706344209912,269.0
14876.706406707124,198.0
14876.706469204335,62.0
14876.706531701548,60.0
14876.70659419876,250.0
14876.706656695973,341.0
14876.706719193186,254.0
14876.706781690398,286.0
14876.70684418761,447.0
14876.706906684823,437.0
14876.706969182036,410.0
14876.707031679249,380.0
14876.707094176461,282.0
14876.707156673674,128.0
14876.707219170885,-33.0
14876.707281668097,10.0
14876.70734416531,23.0
14876.707406662523,52.0
14876.707469159735,262.0
14876.707531656948,306.0
14876.70759415416,240.0
14876.707656651373,280.0
14876.707719148586,128.0
14876.707781645799,-88.0
14876.70784414301,-204.0
14876.707906640222,-310.0
14876.707969137435,-252.0
14876.708031634647,-26.0
14876.70809413186,123.0
14876.708156629073,114.0
14876.708219126285,1.0
14876.708281623498,-129.0
14876.70834412071,-205.0
14876.708406617923,-300.0
14876.708469115136,-344.0
14876.708531612348,-306.0
14876.70859410956,-276.0
14876.708656606772,-307.0
14876.708719103985,-290.0
14876.708781601197,-203.0
14876.70884409841,-162.0
14876.708906595622,-98.0
14876.708969092835,-119.0
14876.709031590048,-222.0
14876.70909408726,-250.0
14876.709156584473,-251.0
14876.709219081684,-99.0
14876.709281578896,91.0
14876.70934407611,140.0
14876.709406573322,125.0
14876.709469070534,-31.0
14876.709531567747,-275.0
14876.70959406496,-289.0
14876.709656562172,-77.0
14876.709719059385,6.0
14876.709781556598,-4.0
14876.70984405381,36.0
14876.709906551023,44.0
14876.709969048234,-11.0
14876.710031545446,-45.0
14876.710094042659,-78.0
14876.710156539872,-145.0
14876.710219037084,-126.0
14876.710281534297,-26.0
14876.71034403151,-25.0
14876.710406528722,-4.0
14876.710469025935,141.0
14876.710531523147,199.0
14876.710594020358,248.0
14876.71065651757,386.0
14876.710719014784,434.0
14876.710781511996,322.0
14876.710844009209,329.0
14876.710906506421,416.0
14876.710969003634,413.0
14876.711031500847,432.0
14876.71109399806,311.0
14876.711156495272,201.0
14876.711218992485,271.0
14876.711281489697,480.0
14876.711343986908,608.0
14876.71140648412,531.0
14876.711468981333,385.0
14876.711531478546,191.0
14876.711593975759,100.0
14876.711656472971,85.0
14876.711718970184,43.0
14876.711781467397,89.0
14876.71184396461,174.0
14876.711906461822,206.0
14876.711968959033,297.0
14876.712031456245,447.0
14876.712093953458,498.0
14876.71215645067,428.0
14876.712218947883,358.0
14876.712281445096,410.0
14876.712343942309,239.0
14876.712406439521,-8.0
14876.712468936734,20.0
14876.712531433946,84.0
14876.712593931159,100.0
14876.712656428372,114.0
14876.712718925583,90.0
14876.712781422795,57.0
14876.712843920008,69.0
14876.71290641722,56.0
14876.712968914433,-83.0
14876.713031411646,-144.0
14876.713093908858,-234.0
14876.713156406071,-318.0
14876.713218903284,-287.0
14876.713281400494,-132.0
14876.713343897707,181.0
14876.71340639492,332.0
14876.713468892132,411.0
14876.713531389345,603.0
14876.713593886558,688.0
14876.71365638377,685.0
14876.713718880983,590.0
14876.713781378196,454.0
14876.713843875408,397.0
14876.71390637262,180.0
14876.713968869833,-2.0
14876.714031367046,50.0
14876.714093864257,182.0
14876.71415636147,286.0
14876.714218858682,311.0
14876.714281355895,462.0
14876.714343853107,510.0
14876.71440635032,267.0
14876.714468847533,138.0
14876.714531344745,100.0
14876.714593841958,86.0
14876.714656339169,152.0
14876.714718836382,104.0
14876.714781333594,195.0
14876.714843830807,538.0
14876.71490632802,593.0
14876.714968825232,462.0
14876.715031322445,471.0
14876.715093819657,340.0
14876.71515631687,227.0
14876.715218814083,166.0
14876.715281311295,105.0
14876.715343808508,237.0
14876.71540630572,448.0
14876.715468802931,396.0
14876.715531300144,170.0
14876.715593797357,138.0
14876.71565629457,88.0
14876.715718791782,-37.0
14876.715781288995,10.0
14876.715843786207,160.0
14876.71590628342,109.0
14876.715968780632,-37.0
14876.716031277843,-149.0
14876.716093775056,-225.0
14876.716156272269,-63.0
14876.716218769481,-50.0
14876.716281266694,-242.0
14876.716343763906,-269.0
14876.71640626112,-158.0
14876.716468758332,-191.0
14876.716531255544,-220.0
14876.716593752757,-52.0
14876.71665624997,-83.0
14876.716718747182,-402.0
14876.716781244395,-472.0
14876.716843741606,-329.0
14876.716906238818,-321.0
14876.716968736031,-304.0
14876.717031233244,-135.0
14876.717093730456,116.0
14876.717156227669,268.0
14876.717218724882,171.0
14876.717281222094,-78.0
14876.717343719307,-274.0
14876.717406216518,-242.0
14876.71746871373,-136.0
14876.717531210943,-42.0
14876.717593708156,-8.0
14876.717656205368,-125.0
14876.71771870258,-240.0
14876.717781199794,-345.0
14876.717843697006,-259.0
14876.717906194219,-108.0
14876.717968691431,-29.0
14876.718031188644,20.0
14876.718093685857,-48.0
14876.718156183068,29.0
14876.71821868028,104.0
14876.718281177493,11.0
14876.718343674705,24.0
14876.718406171918,145.0
14876.71846866913,259.0
14876.718531166343,416.0
14876.718593663556,571.0
14876.718656160769,644.0
14876.718718657981,653.0
14876.718781155192,613.0
14876.718843652405,538.0
14876.718906149617,472.0
14876.71896864683,357.0
14876.719031144043,202.0
14876.719093641255,71.0
14876.719156138468,-99.0
14876.71921863568,-28.0
14876.719281132893,113.0
14876.719343630106,27.0
14876.719406127319,73.0
14876.719468624531,0.0
14876.719531121742,-193.0
14876.719593618955,-237.0
14876.719656116167,-229.0
14876.71971861338,-127.0
14876.719781110593,40.0
14876.719843607805,154.0
14876.719906105018,203.0
14876.71996860223,187.0
14876.720031099443,57.0
14876.720093596656,16.0
14876.720156093867,6.0
14876.72021859108,69.0
14876.720281088292,146.0
14876.720343585504,89.0
14876.720406082717,29.0
14876.72046857993,-73.0
14876.720531077142,-113.0
14876.720593574355,-121.0
14876.720656071568,-186.0
14876.72071856878,-200.0
14876.720781065993,-261.0
14876.720843563206,-407.0
14876.720906060416,-427.0
14876.720968557629,-413.0
14876.721031054842,-434.0
14876.721093552054,-358.0
14876.721156049267,-273.0
14876.72121854648,-406.0
14876.721281043692,-591.0
14876.721343540905,-457.0
14876.721406038117,-311.0
14876.72146853533,-300.0
14876.721531032541,-301.0
14876.721593529754,-389.0
14876.721656026966,-343.0
14876.721718524179,-342.0
14876.721781021392,-424.0
14876.721843518604,-325.0
14876.721906015817,-241.0
14876.72196851303,-327.0
14876.722031010242,-407.0
14876.722093507455,-264.0
14876.722156004667,-193.0
14876.72221850188,-210.0
14876.72228099909,-114.0
14876.722343496303,-202.0
14876.722405993516,-229.0
14876.722468490729,-106.0
14876.722530987941,-222.0
14876.722593485154,-336.0
14876.722655982367,-198.0
14876.72271847958,-215.0
14876.722780976792,-429.0
14876.722843474005,-492.0
14876.722905971215,-567.0
14876.722968468428,-625.0
14876.72303096564,-512.0
14876.723093462853,-467.0
14876.723155960066,-324.0
14876.723218457279,-138.0
14876.723280954491,-280.0
14876.723343451704,-419.0
14876.723405948916,-301.0
14876.72346844613,-266.0
14876.723530943342,-290.0
14876.723593440554,-189.0
14876.723655937765,-88.0
14876.723718434978,-93.0
14876.72378093219,-175.0
14876.723843429403,-153.0
14876.723905926616,-36.0
14876.723968423828,-24.0
14876.724030921041,-170.0
14876.724093418254,-168.0
14876.724155915466,-4.0
14876.724218412677,-131.0
14876.72428090989,-437.0
14876.724343407102,-534.0
14876.724405904315,-380.0
14876.724468401528,-371.0
14876.72453089874,-446.0
14876.724593395953,-363.0
14876.724655893166,-355.0
14876.724718390378,-427.0
14876.72478088759,-526.0
14876.724843384804,-577.0
14876.724905882016,-493.0
14876.724968379229,-406.0
14876.72503087644,-427.0
14876.725093373652,-319.0
14876.725155870865,-172.0
14876.725218368078,-256.0
14876.72528086529,-315.0
14876.725343362503,-191.0
14876.725405859715,-90.0
14876.725468356928,-113.0
14876.72553085414,-113.0
14876.725593351352,-136.0
14876.725655848564,-179.0
14876.725718345777,-336.0
14876.72578084299,-477.0
14876.725843340202,-318.0
14876.725905837415,-258.0
14876.725968334627,-360.0
14876.72603083184,-438.0
14876.726093329053,-278.0
14876.726155826265,-48.0
14876.726218323478,-192.0
14876.72628082069,-283.0
14876.726343317903,-242.0
14876.726405815114,-313.0
14876.726468312327,-303.0
14876.72653080954,-240.0
14876.726593306752,-84.0
14876.726655803965,37.0
14876.726718301177,-57.0
14876.72678079839,-166.0
14876.726843295603,-168.0
14876.726905792815,-62.0
14876.726968290026,-1.0
14876.727030787239,10.0
14876.727093284451,80.0
14876.727155781664,8.0
14876.727218278877,-84.0
14876.72728077609,-101.0
14876.727343273302,-87.0
14876.727405770514,-46.0
14876.727468267727,-49.0
14876.72753076494,25.0
14876.727593262152,149.0
14876.727655759365,168.0
14876.727718256578,49.0
14876.727780753788,-111.0
14876.727843251001,-98.0
14876.727905748214,-185.0
14876.727968245426,-339.0
14876.728030742639,-256.0
14876.728093239852,-180.0
14876.728155737064,-84.0
14876.728218234277,21.0
14876.72828073149,66.0
14876.7283432287,112.0
14876.728405725913,15.0
14876.728468223126,-208.0
14876.728530720338,-336.0
14876.728593217551,-300.0
14876.728655714764,-290.0
14876.728718211976,-394.0
14876.728780709189,-399.0
14876.728843206402,-207.0
14876.728905703614,-167.0
14876.728968200827,-221.0
14876.72903069804,-221.0
14876.72909319525,-237.0
14876.729155692463,-248.0
14876.729218189676,-331.0
14876.729280686888,-274.0
14876.7293431841,-244.0
14876.729405681313,-376.0
14876.729468178526,-357.0
14876.729530675739,-343.0
14876.729593172951,-234.0
14876.729655670164,-99.0
14876.729718167375,-236.0
14876.729780664587,-270.0
14876.7298431618,-139.0
14876.729905659013,-110.0
14876.729968156225,-227.0
14876.730030653438,-330.0
14876.73009315065,-347.0
14876.730155647863,-277.0
14876.730218145076,-150.0
14876.730280642289,-1.0
14876.730343139501,131.0
14876.730405636714,156.0
14876.730468133925,114.0
14876.730530631137,-104.0
14876.73059312835,-230.0
14876.730655625563,-220.0
14876.730718122775,-403.0
14876.730780619988,-631.0
14876.7308431172,-682.0
14876.730905614413,-725.0
14876.730968111626,-740.0
14876.731030608838,-617.0
14876.73109310605,-426.0
14876.731155603262,-173.0
14876.731218100475,-151.0
14876.731280597687,-267.0
14876.7313430949,-275.0
14876.731405592112,-204.0
14876.731468089325,-154.0
14876.731530586538,-163.0
14876.73159308375,-30.0
14876.731655580963,-33.0
14876.731718078176,-208.0
14876.731780575388,-309.0
14876.731843072599,-372.0
14876.731905569812,-319.0
14876.731968067024,-240.0
14876.732030564237,-153.0
14876.73209306145,-109.0
14876.732155558662,-126.0
14876.732218055875,-271.0
14876.732280553088,-461.0
14876.7323430503,-432.0
14876.732405547513,-342.0
14876.732468044724,-328.0
14876.732530541936,-331.0
14876.732593039149,-413.0
14876.732655536362,-458.0
14876.732718033574,-514.0
14876.732780530787,-599.0
14876.732843028,-540.0
14876.732905525212,-524.0
14876.732968022425,-544.0
14876.733030519637,-584.0
14876.73309301685,-528.0
14876.733155514063,-506.0
14876.733218011273,-627.0
14876.733280508486,-450.0
14876.733343005699,-262.0
14876.733405502911,-303.0
14876.733468000124,-207.0
14876.733530497337,-132.0
14876.73359299455,-194.0
14876.733655491762,-202.0
14876.733717988975,-190.0
14876.733780486187,-169.0
14876.733842983398,-96.0
14876.73390548061,4.0
14876.733967977823,50.0
14876.734030475036,93.0
14876.734092972249,99.0
14876.734155469461,25.0
14876.734217966674,-164.0
14876.734280463887,-283.0
14876.7343429611,-196.0
14876.734405458312,-218.0
14876.734467955524,-408.0
14876.734530452737,-568.0
14876.734592949948,-677.0
14876.73465544716,-623.0
14876.734717944373,-497.0
14876.734780441586,-629.0
14876.734842938798,-650.0
14876.734905436011,-529.0
14876.734967933224,-454.0
14876.735030430436,-194.0
14876.735092927649,33.0
14876.735155424862,19.0
14876.735217922072,-323.0
14876.735280419285,-590.0
14876.735342916498,-578.0
14876.73540541371,-696.0
14876.735467910923,-665.0
14876.735530408136,-387.0
14876.735592905348,-194.0
14876.735655402561,-150.0
14876.735717899774,-151.0
14876.735780396986,-217.0
14876.735842894199,-418.0
14876.735905391412,-669.0
14876.735967888622,-787.0
14876.736030385835,-754.0
14876.736092883048,-800.0
14876.73615538026,-913.0
14876.736217877473,-997.0
14876.736280374686,-897.0
14876.736342871898,-742.0
14876.73640536911,-772.0
14876.736467866323,-894.0
14876.736530363534,-889.0
14876.736592860747,-838.0
14876.73665535796,-745.0
14876.736717855172,-628.0
14876.736780352385,-628.0
14876.736842849597,-557.0
14876.73690534681,-540.0
14876.736967844023,-725.0
14876.737030341235,-734.0
14876.737092838448,-515.0
14876.73715533566,-368.0
14876.737217832873,-254.0
14876.737280330086,-201.0
14876.737342827297,-212.0
14876.73740532451,-306.0
14876.737467821722,-564.0
14876.737530318935,-812.0
14876.737592816147,-921.0
14876.73765531336,-794.0
14876.737717810573,-716.0
14876.737780307785,-687.0
14876.737842804998,-555.0
14876.737905302209,-601.0
14876.737967799421,-708.0
14876.738030296634,-753.0
14876.738092793847,-779.0
14876.73815529106,-789.0
14876.738217788272,-911.0
14876.738280285485,-849.0
14876.738342782697,-644.0
14876.73840527991,-608.0
14876.738467777122,-567.0
14876.738530274335,-474.0
14876.738592771548,-442.0
14876.73865526876,-442.0
14876.738717765971,-503.0
14876.738780263184,-525.0
14876.738842760396,-361.0
14876.738905257609,-352.0
14876.738967754822,-441.0
14876.739030252034,-434.0
14876.739092749247,-628.0
14876.73915524646,-683.0
14876.739217743672,-476.0
14876.739280240883,-502.0
14876.739342738096,-526.0
14876.739405235308,-413.0
14876.739467732521,-458.0
14876.739530229734,-451.0
14876.739592726946,-366.0
14876.739655224159,-548.0
14876.739717721372,-807.0
14876.739780218584,-728.0
14876.739842715797,-524.0
14876.73990521301,-565.0
14876.739967710222,-679.0
14876.740030207433,-687.0
14876.740092704646,-731.0
14876.740155201858,-681.0
14876.74021769907,-603.0
14876.740280196283,-512.0
14876.740342693496,-420.0
14876.740405190709,-387.0
14876.740467687921,-360.0
14876.740530185134,-276.0
14876.740592682347,-313.0
14876.740655179558,-504.0
14876.74071767677,-616.0
14876.740780173983,-707.0
14876.740842671195,-686.0
14876.740905168408,-644.0
14876.74096766562,-616.0
14876.741030162833,-648.0
14876.741092660046,-764.0
14876.741155157259,-842.0
14876.741217654471,-793.0
14876.741280151684,-522.0
14876.741342648897,-412.0
14876.741405146107,-518.0
14876.74146764332,-581.0
14876.741530140533,-715.0
14876.741592637745,-781.0
14876.741655134958,-721.0
14876.74171763217,-690.0
14876.741780129383,-624.0
14876.741842626596,-510.0
14876.741905123808,-370.0
14876.741967621021,-218.0
14876.742030118232,-146.0
14876.742092615445,-339.0
14876.742155112657,-523.0
14876.74221760987,-533.0
14876.742280107082,-473.0
14876.742342604295,-412.0
14876.742405101508,-446.0
14876.74246759872,-384.0
14876.742530095933,-339.0
14876.742592593146,-432.0
14876.742655090358,-582.0
14876.742717587571,-613.0
14876.742780084782,-664.0
14876.742842581994,-892.0
14876.742905079207,-996.0
14876.74296757642,-959.0
14876.743030073632,-907.0
14876.743092570845,-814.0
14876.743155068058,-750.0
14876.74321756527,-695.0
14876.743280062483,-713.0
14876.743342559696,-821.0
14876.743405056906,-867.0
14876.743467554119,-812.0
14876.743530051332,-786.0
14876.743592548544,-801.0
14876.743655045757,-798.0
14876.74371754297,-841.0
14876.743780040182,-946.0
14876.743842537395,-976.0
14876.743905034607,-872.0
14876.74396753182,-645.0
14876.744030029033,-458.0
14876.744092526245,-469.0
14876.744155023456,-363.0
14876.744217520669,-331.0
14876.744280017881,-416.0
14876.744342515094,-417.0
14876.744405012307,-417.0
14876.74446750952,-267.0
14876.744530006732,-242.0
14876.744592503945,-408.0
14876.744655001157,-533.0
14876.74471749837,-697.0
14876.74477999558,-764.0
14876.744842492793,-664.0
14876.744904990006,-700.0
14876.744967487219,-798.0
14876.745029984431,-815.0
14876.745092481644,-887.0
14876.745154978857,-806.0
14876.74521747607,-640.0
14876.745279973282,-481.0
14876.745342470495,-224.0
14876.745404967707,-73.0
14876.74546746492,-201.0
14876.74552996213,-527.0
14876.745592459343,-721.0
14876.745654956556,-673.0
14876.745717453769,-583.0
14876.745779950981,-546.0
14876.745842448194,-574.0
14876.745904945406,-639.0
14876.745967442619,-836.0
14876.746029939832,-1051.0
14876.746092437044,-1089.0
14876.746154934255,-984.0
14876.746217431468,-828.0
14876.74627992868,-801.0
14876.746342425893,-834.0
14876.746404923106,-750.0
14876.746467420318,-679.0
14876.746529917531,-742.0
14876.746592414744,-668.0
14876.746654911956,-630.0
14876.746717409169,-844.0
14876.746779906382,-864.0
14876.746842403594,-651.0
14876.746904900805,-531.0
14876.746967398018,-385.0
14876.74702989523,-511.0
14876.747092392443,-770.0
14876.747154889656,-728.0
14876.747217386868,-811.0
14876.74727988408,-779.0
14876.747342381293,-384.0
14876.747404878506,-155.0
14876.747467375717,-93.0
14876.74752987293,-84.0
14876.747592370142,-232.0
14876.747654867355,-418.0
14876.747717364568,-650.0
14876.74777986178,-839.0
14876.747842358993,-778.0
14876.747904856205,-592.0
14876.747967353418,-467.0
14876.74802985063,-312.0
14876.748092347843,-159.0
14876.748154845056,-243.0
14876.748217342269,-488.0
14876.74827983948,-639.0
14876.748342336692,-722.0
14876.748404833905,-808.0
14876.748467331117,-694.0
14876.74852982833,-415.0
14876.748592325543,-221.0
14876.748654822755,-89.0
14876.748717319968,-215.0
14876.74877981718,-403.0
14876.748842314391,-331.0
14876.748904811604,-484.0
14876.748967308817,-599.0
14876.74902980603,-504.0
14876.749092303242,-561.0
14876.749154800455,-530.0
14876.749217297667,-392.0
14876.74927979488,-471.0
14876.749342292092,-485.0
14876.749404789305,-442.0
14876.749467286518,-525.0
14876.74952978373,-438.0
14876.749592280943,-335.0
14876.749654778154,-376.0
14876.749717275366,-317.0
14876.74977977258,-208.0
14876.749842269792,-360.0
14876.749904767004,-548.0
14876.749967264217,-631.0
14876.75002976143,-680.0
14876.750092258642,-587.0
14876.750154755855,-499.0
14876.750217253066,-523.0
14876.750279750278,-595.0
14876.750342247491,-739.0
14876.750404744704,-903.0
14876.750467241916,-950.0
14876.750529739129,-954.0
14876.750592236342,-990.0
14876.750654733554,-979.0
14876.750717230767,-819.0
14876.75077972798,-585.0
14876.750842225192,-455.0
14876.750904722405,-474.0
14876.750967219616,-702.0
14876.751029716828,-863.0
14876.75109221404,-950.0
14876.751154711254,-1064.0
14876.751217208466,-1062.0
14876.751279705679,-1024.0
14876.751342202891,-1081.0
14876.751404700104,-944.0
14876.751467197317,-767.0
14876.75152969453,-844.0
14876.75159219174,-772.0
14876.751654688953,-764.0
14876.751717186165,-937.0
14876.751779683378,-926.0
14876.75184218059,-810.0
14876.751904677803,-631.0
14876.751967175016,-410.0
14876.752029672229,-275.0
14876.752092169441,-367.0
14876.752154666654,-604.0
14876.752217163867,-806.0
14876.75227966108,-764.0
14876.75234215829,-460.0
14876.752404655503,-423.0
14876.752467152715,-523.0
14876.752529649928,-327.0
14876.75259214714,-183.0
14876.752654644353,-232.0
14876.752717141566,-323.0
14876.752779638779,-287.0
14876.752842135991,-212.0
14876.752904633204,-170.0
14876.752967130415,36.0
14876.753029627627,210.0
14876.75309212484,207.0
14876.753154622053,77.0
14876.753217119265,-64.0
14876.753279616478,-131.0
14876.75334211369,-259.0
14876.753404610903,-351.0
14876.753467108116,-153.0
14876.753529605328,-57.0
14876.753592102541,-87.0
14876.753654599754,-28.0
14876.753717096964,-154.0
14876.753779594177,-257.0
14876.75384209139,-424.0
14876.753904588602,-569.0
14876.753967085815,-419.0
14876.754029583028,-197.0
14876.75409208024,-153.0
14876.754154577453,-308.0
14876.754217074666,-365.0
14876.754279571878,-355.0
14876.754342069089,-500.0
14876.754404566302,-573.0
14876.754467063514,-539.0
14876.754529560727,-549.0
14876.75459205794,-559.0
14876.754654555152,-556.0
14876.754717052365,-473.0
14876.754779549578,-337.0
14876.75484204679,-151.0
14876.754904544003,-172.0
14876.754967041215,-337.0
14876.755029538428,-267.0
14876.755092035639,-367.0
14876.755154532852,-426.0
14876.755217030064,-231.0
14876.755279527277,-243.0
14876.75534202449,-161.0
14876.755404521702,-144.0
14876.755467018915,-392.0
14876.755529516127,-584.0
14876.75559201334,-673.0
14876.755654510553,-498.0
14876.755717007763,-156.0
14876.755779504976,34.0
14876.755842002189,-90.0
14876.755904499401,-403.0
14876.755966996614,-744.0
14876.756029493827,-724.0
14876.75609199104,-434.0
14876.756154488252,-390.0
14876.756216985465,-353.0
14876.756279482677,-240.0
14876.75634197989,-163.0
14876.756404477102,78.0
14876.756466974313,190.0
14876.756529471526,84.0
14876.756591968739,-24.0
14876.756654465951,-200.0
14876.756716963164,-351.0
14876.756779460376,-371.0
14876.75684195759,-433.0
14876.756904454802,-453.0
14876.756966952014,-392.0
14876.757029449227,-462.0
14876.757091946438,-570.0
14876.75715444365,-681.0
14876.757216940863,-740.0
14876.757279438076,-656.0
14876.757341935288,-771.0
14876.757404432501,-852.0
14876.757466929714,-818.0
14876.757529426926,-961.0
14876.757591924139,-1006.0
14876.757654421352,-867.0
14876.757716918564,-588.0
14876.757779415777,-319.0
14876.757841912988,-252.0
14876.7579044102,-245.0
14876.757966907413,-327.0
14876.758029404626,-382.0
14876.758091901838,-350.0
14876.75815439905,-366.0
14876.758216896264,-373.0
14876.758279393476,-276.0
14876.758341890689,-163.0
14876.7584043879,-243.0
14876.758466885112,-347.0
14876.758529382325,-238.0
14876.758591879538,-158.0
14876.75865437675,-167.0
14876.758716873963,-329.0
14876.758779371175,-523.0
14876.758841868388,-453.0
14876.7589043656,-297.0
14876.758966862813,-226.0
14876.759029360026,-168.0
14876.759091857239,-26.0
14876.759154354451,141.0
14876.759216851662,265.0
14876.759279348875,420.0
14876.759341846087,412.0
14876.7594043433,148.0
14876.759466840513,89.0
14876.759529337725,165.0
14876.759591834938,285.0
14876.75965433215,483.0
14876.759716829363,352.0
14876.759779326574,234.0
14876.759841823787,184.0
14876.759904321,75.0
14876.759966818212,8.0
14876.760029315425,-46.0
14876.760091812637,-21.0
14876.76015430985,-38.0
14876.760216807063,-117.0
14876.760279304275,-135.0
14876.760341801488,-224.0
14876.7604042987,-221.0
14876.760466795913,39.0
14876.760529293126,148.0
14876.760591790337,121.0
14876.76065428755,31.0
14876.760716784762,-183.0
14876.760779281974,-471.0
14876.760841779187,-550.0
14876.7609042764,-585.0
14876.760966773612,-554.0
14876.761029270825,-228.0
14876.761091768038,-107.0
14876.761154265248,62.0
14876.761216762461,282.0
14876.761279259674,161.0
14876.761341756886,97.0
14876.761404254099,27.0
14876.761466751312,-287.0
14876.761529248524,-430.0
14876.761591745737,-277.0
14876.76165424295,-169.0
14876.761716740162,-180.0
14876.761779237375,-100.0
14876.761841734588,-21.0
14876.7619042318,-212.0
14876.761966729011,-454.0
14876.762029226224,-474.0
14876.762091723436,-316.0
14876.762154220649,-283.0
14876.762216717862,-397.0
14876.762279215074,-301.0
14876.762341712287,-77.0
14876.7624042095,-46.0
14876.762466706712,-168.0
14876.762529203923,-192.0
14876.762591701136,-82.0
14876.762654198348,-4.0
14876.76271669556,4.0
14876.762779192773,-11.0
14876.762841689986,26.0
14876.762904187199,-33.0
14876.762966684411,-239.0
14876.763029181624,-371.0
14876.763091678837,-349.0
14876.76315417605,-163.0
14876.763216673262,-87.0
14876.763279170473,196.0
14876.763341667685,566.0
14876.763404164898,532.0
14876.76346666211,439.0
14876.763529159323,303.0
14876.763591656536,6.0
14876.763654153749,-375.0
14876.763716650961,-662.0
14876.763779148174,-487.0
14876.763841645386,148.0
14876.763904142597,494.0
14876.76396663981,370.0
14876.764029137023,259.0
14876.764091634235,124.0
14876.764154131448,-155.0
14876.76421662866,-318.0
14876.764279125873,-56.0
14876.764341623086,277.0
14876.764404120298,179.0
14876.764466617511,-139.0
14876.764529114724,-207.0
14876.764591611936,-26.0
14876.764654109147,79.0
14876.76471660636,34.0
14876.764779103572,-52.0
14876.764841600785,24.0
14876.764904097998,17.0
14876.76496659521,-110.0
14876.765029092423,-14.0
14876.765091589636,240.0
14876.765154086848,258.0
14876.76521658406,85.0
14876.765279081272,-75.0
14876.765341578484,-312.0
14876.765404075697,-251.0
14876.76546657291,-76.0
14876.765529070122,-6.0
14876.765591567335,35.0
14876.765654064548,45.0
14876.76571656176,63.0
14876.765779058973,-37.0
14876.765841556185,-91.0
14876.765904053398,-93.0
14876.76596655061,-177.0
14876.766029047822,-133.0
14876.766091545034,-5.0
14876.766154042247,113.0
14876.76621653946,-16.0
14876.766279036672,-173.0
14876.766341533885,-108.0
14876.766404031097,-62.0
14876.76646652831,-188.0
14876.766529025523,-83.0
14876.766591522735,236.0
14876.766654019946,151.0
14876.766716517159,-55.0
14876.766779014371,-22.0
14876.766841511584,-3.0
14876.766904008797,196.0
14876.76696650601,369.0
14876.767029003222,184.0
14876.767091500435,78.0
14876.767153997647,2.0
14876.76721649486,-43.0
14876.767278992073,140.0
14876.767341489285,280.0
14876.767403986496,254.0
14876.767466483709,288.0
14876.767528980921,362.0
14876.767591478134,261.0
14876.767653975347,124.0
14876.76771647256,94.0
14876.767778969772,-4.0
14876.767841466984,-206.0
14876.767903964197,-323.0
14876.76796646141,-518.0
14876.76802895862,-617.0
14876.768091455833,-689.0
14876.768153953046,-596.0
14876.768216450258,-27.0
14876.768278947471,223.0
14876.768341444684,106.0
14876.768403941896,245.0
14876.768466439109,358.0
14876.768528936322,264.0
14876.768591433534,277.0
14876.768653930747,409.0
14876.76871642796,238.0
14876.76877892517,24.0
14876.768841422383,15.0
14876.768903919596,41.0
14876.768966416808,59.0
14876.769028914021,-41.0
14876.769091411234,-88.0
14876.769153908446,15.0
14876.769216405659,24.0
14876.769278902872,-31.0
14876.769341400082,-40.0
14876.769403897295,-66.0
14876.769466394508,-75.0
14876.76952889172,-15.0
14876.769591388933,134.0
14876.769653886146,205.0
14876.769716383358,123.0
14876.76977888057,14.0
14876.769841377783,-91.0
14876.769903874996,-192.0
14876.769966372209,-290.0
14876.770028869421,-313.0
14876.770091366634,-214.0
14876.770153863845,-127.0
14876.770216361057,-107.0
14876.77027885827,-46.0
14876.770341355483,46.0
14876.770403852695,170.0
14876.770466349908,227.0
14876.77052884712,142.0
14876.770591344333,191.0
14876.770653841546,186.0
14876.770716338757,-28.0
14876.77077883597,-77.0
14876.770841333182,-138.0
14876.770903830395,-245.0
14876.770966327607,-272.0
14876.77102882482,-361.0
14876.771091322033,-403.0
14876.771153819245,-283.0
14876.771216316458,-315.0
14876.77127881367,-317.0
14876.771341310883,-114.0
14876.771403808096,-177.0
14876.771466305308,-288.0
14876.77152880252,-146.0
14876.771591299732,-5.0
14876.771653796945,62.0
14876.771716294157,-6.0
14876.77177879137,-21.0
14876.771841288582,179.0
14876.771903785795,326.0
14876.771966283008,242.0
14876.77202878022,83.0
14876.772091277431,112.0
14876.772153774644,258.0
14876.772216271856,288.0
14876.772278769069,287.0
14876.772341266282,219.0
14876.772403763494,65.0
14876.772466260707,108.0
14876.77252875792,391.0
14876.772591255132,416.0
14876.772653752345,299.0
14876.772716249558,251.0
14876.77277874677,35.0
14876.772841243983,-75.0
14876.772903741194,-47.0
14876.772966238406,0.0
14876.773028735619,141.0
14876.773091232832,210.0
14876.773153730044,194.0
14876.773216227257,122.0
14876.77327872447,-55.0
14876.773341221682,-135.0
14876.773403718895,-3.0
14876.773466216106,212.0
14876.773528713318,273.0
14876.77359121053,178.0
14876.773653707744,258.0
14876.773716204956,321.0
14876.773778702169,321.0
14876.773841199381,398.0
14876.773903696594,229.0
14876.773966193807,166.0
14876.77402869102,228.0
14876.774091188232,124.0
14876.774153685445,186.0
14876.774216182655,221.0
14876.774278679868,145.0
14876.77434117708,103.0
14876.774403674293,47.0
14876.774466171506,-66.0
14876.774528668719,-204.0
14876.774591165931,-189.0
14876.774653663144,-251.0
14876.774716160357,-155.0
14876.77477865757,-112.0
14876.77484115478,-282.0
14876.774903651993,-237.0
14876.774966149205,-49.0
14876.775028646418,361.0
14876.77509114363,424.0
14876.775153640843,346.0
14876.775216138056,348.0
14876.775278635268,112.0
14876.775341132481,143.0
14876.775403629694,212.0
14876.775466126906,262.0
14876.775528624119,354.0
14876.77559112133,166.0
14876.775653618542,62.0
14876.775716115755,-28.0
14876.775778612968,-143.0
14876.77584111018,-168.0
14876.775903607393,-267.0
14876.775966104606,-246.0
14876.776028601818,-159.0
14876.776091099031,-140.0
14876.776153596244,-171.0
14876.776216093454,-141.0
14876.776278590667,-41.0
14876.77634108788,-5.0
14876.776403585092,15.0
14876.776466082305,-14.0
14876.776528579518,79.0
14876.77659107673,257.0
14876.776653573943,248.0
14876.776716071156,225.0
14876.776778568368,196.0
14876.77684106558,112.0
14876.776903562793,10.0
14876.776966060004,82.0
14876.777028557217,308.0
14876.77709105443,524.0
14876.777153551642,688.0
14876.777216048855,715.0
14876.777278546067,670.0
14876.77734104328,543.0
14876.777403540493,414.0
14876.777466037705,307.0
14876.777528534918,267.0
14876.777591032129,242.0
14876.777653529341,129.0
14876.777716026554,216.0
14876.777778523767,212.0
14876.77784102098,-37.0
14876.777903518192,-191.0
14876.777966015405,-364.0
14876.778028512617,-532.0
14876.77809100983,-597.0
14876.778153507043,-622.0
14876.778216004255,-424.0
14876.778278501468,-111.0
14876.778340998679,61.0
14876.778403495891,275.0
14876.778465993104,379.0
14876.778528490317,76.0
14876.77859098753,-77.0
14876.778653484742,62.0
14876.778715981955,119.0
14876.778778479167,93.0
14876.77884097638,114.0
14876.778903473592,217.0
14876.778965970803,326.0
14876.779028468016,283.0
14876.779090965229,79.0
14876.779153462441,72.0
14876.779215959654,116.0
14876.779278456866,137.0
14876.779340954079,243.0
14876.779403451292,195.0
14876.779465948504,125.0
14876.779528445717,97.0
14876.77959094293,-34.0
14876.779653440142,-53.0
14876.779715937353,-52.0
14876.779778434566,-216.0
14876.779840931778,-303.0
14876.779903428991,-342.0
14876.779965926204,-250.0
14876.780028423416,-32.0
14876.780090920629,83.0
14876.780153417842,73.0
14876.780215915054,-101.0
14876.780278412265,-284.0
14876.780340909478,-175.0
14876.78040340669,166.0
14876.780465903903,314.0
14876.780528401116,324.0
14876.780590898328,371.0
14876.78065339554,400.0
14876.780715892754,332.0
14876.780778389966,170.0
14876.780840887179,78.0
14876.780903384391,82.0
14876.780965881604,159.0
14876.781028378817,377.0
14876.781090876028,506.0
14876.78115337324,710.0
14876.781215870453,748.0
14876.781278367665,590.0
14876.781340864878,545.0
14876.78140336209,402.0
14876.781465859303,474.0
14876.781528356516,476.0
14876.781590853729,292.0
14876.78165335094,314.0
14876.781715848152,293.0
14876.781778345365,179.0
14876.781840842577,188.0
14876.78190333979,195.0
14876.781965837003,193.0
14876.782028334215,306.0
14876.782090831428,199.0
14876.78215332864,166.0
14876.782215825853,506.0
14876.782278323066,591.0
14876.782340820278,788.0
14876.782403317491,903.0
14876.782465814702,501.0
14876.782528311915,407.0
14876.782590809127,560.0
14876.78265330634,673.0
14876.782715803552,835.0
14876.782778300765,810.0
14876.782840797978,638.0
14876.78290329519,501.0
14876.782965792403,404.0
14876.783028289614,407.0
14876.783090786827,419.0
14876.78315328404,481.0
14876.783215781252,443.0
14876.783278278464,349.0
14876.783340775677,524.0
14876.78340327289,483.0
14876.783465770102,183.0
14876.783528267315,-15.0
14876.783590764528,-251.0
14876.78365326174,-276.0
14876.783715758953,-139.0
14876.783778256166,-98.0
14876.783840753376,-151.0
14876.783903250589,-278.0
14876.783965747802,-318.0
14876.784028245014,-164.0
14876.784090742227,136.0
14876.78415323944,231.0
14876.784215736652,43.0
14876.784278233865,30.0
14876.784340731077,53.0
14876.784403228288,176.0
14876.784465725501,428.0
14876.784528222714,397.0
14876.784590719926,219.0
14876.784653217139,203.0
14876.784715714351,59.0
14876.784778211564,-136.0
14876.784840708777,-21.0
14876.78490320599,-109.0
14876.784965703202,-130.0
14876.785028200415,99.0
14876.785090697627,66.0
14876.785153194838,19.0
14876.78521569205,28.0
14876.785278189263,-82.0
14876.785340686476,-79.0
14876.785403183689,-35.0
14876.785465680901,48.0
14876.785528178114,178.0
14876.785590675327,89.0
14876.78565317254,25.0
14876.785715669752,-103.0
14876.785778166963,-211.0
14876.785840664175,72.0
14876.785903161388,381.0
14876.7859656586,410.0
14876.786028155813,355.0
14876.786090653026,344.0
14876.786153150239,422.0
14876.786215647451,417.0
14876.786278144664,341.0
14876.786340641876,472.0
14876.786403139089,672.0
14876.786465636302,554.0
14876.786528133513,346.0
14876.786590630725,436.0
14876.786653127938,583.0
14876.78671562515,485.0
14876.786778122363,384.0
14876.786840619576,355.0
14876.786903116788,209.0
14876.786965614001,113.0
14876.787028111214,228.0
14876.787090608426,287.0
14876.787153105637,347.0
14876.78721560285,441.0
14876.787278100062,466.0
14876.787340597275,531.0
14876.787403094488,552.0
14876.7874655917,448.0
14876.787528088913,356.0
14876.787590586126,224.0
14876.787653083338,80.0
14876.78771558055,73.0
14876.787778077764,147.0
14876.787840574976,282.0
14876.787903072187,281.0
14876.7879655694,205.0
14876.788028066612,178.0
14876.788090563825,5.0
14876.788153061038,-66.0
14876.78821555825,-101.0
14876.788278055463,-168.0
14876.788340552675,107.0
14876.788403049888,308.0
14876.7884655471,248.0
14876.788528044312,480.0
14876.788590541524,497.0
14876.788653038737,163.0
14876.78871553595,-47.0
14876.788778033162,-93.0
14876.788840530375,-59.0
14876.788903027587,-245.0
14876.7889655248,-295.0
14876.789028022013,-117.0
14876.789090519225,-169.0
14876.789153016438,-309.0
14876.78921551365,-269.0
14876.789278010861,-181.0
14876.789340508074,-142.0
14876.789403005287,-82.0
14876.7894655025,23.0
14876.789527999712,148.0
14876.789590496925,148.0
14876.789652994137,-52.0
14876.78971549135,-53.0
14876.789777988562,53.0
14876.789840485775,-136.0
14876.789902982986,-366.0
14876.789965480199,-326.0
14876.790027977411,-181.0
14876.790090474624,-149.0
14876.790152971837,-82.0
14876.79021546905,-65.0
14876.790277966262,-19.0
14876.790340463474,28.0
14876.790402960687,-180.0
14876.7904654579,-165.0
14876.790527955112,108.0
14876.790590452325,150.0
14876.790652949536,125.0
14876.790715446748,289.0
14876.790777943961,437.0
14876.790840441174,441.0
14876.790902938386,316.0
14876.790965435599,142.0
14876.791027932812,200.0
14876.791090430024,121.0
14876.791152927237,-99.0
14876.79121542445,81.0
14876.79127792166,282.0
14876.791340418873,132.0
14876.791402916086,-131.0
14876.791465413298,-203.0
14876.791527910511,-129.0
14876.791590407724,-81.0
14876.791652904936,12.0
14876.791715402149,227.0
14876.791777899361,447.0
14876.791840396574,526.0
14876.791902893787,571.0
14876.791965391,632.0
14876.79202788821,579.0
14876.792090385423,293.0
14876.792152882635,58.0
14876.792215379848,111.0
14876.79227787706,150.0
14876.792340374273,134.0
14876.792402871486,107.0
14876.792465368699,139.0
14876.792527865911,176.0
14876.792590363122,-131.0
14876.792652860335,-398.0
14876.792715357547,-386.0
14876.79277785476,-350.0
14876.792840351973,-414.0
14876.792902849185,-493.0
14876.792965346398,-429.0
14876.79302784361,-381.0
14876.793090340823,-426.0
14876.793152838036,-398.0
14876.793215335249,-403.0
14876.793277832461,-401.0
14876.793340329674,-334.0
14876.793402826885,-293.0
14876.793465324097,-239.0
14876.79352782131,-195.0
14876.793590318523,-129.0
14876.793652815735,201.0
14876.793715312948,456.0
14876.79377781016,441.0
14876.793840307373,441.0
14876.793902804586,296.0
14876.793965301797,348.0
14876.79402779901,517.0
14876.794090296222,419.0
14876.794152793434,362.0
14876.794215290647,397.0
14876.79427778786,241.0
14876.794340285072,23.0
14876.794402782285,-103.0
14876.794465279498,-107.0
14876.79452777671,-50.0
14876.794590273923,-171.0
14876.794652771136,-292.0
14876.794715268348,-221.0
14876.794777765559,-127.0
14876.794840262772,-163.0
14876.794902759984,-256.0
14876.794965257197,-79.0
14876.79502775441,245.0
14876.795090251622,283.0
14876.795152748835,289.0
14876.795215246048,296.0
14876.79527774326,294.0
14876.795340240471,568.0
14876.795402737684,744.0
14876.795465234896,782.0
14876.795527732109,736.0
14876.795590229322,555.0
14876.795652726534,364.0
14876.795715223747,53.0
14876.79577772096,-169.0
14876.795840218172,-190.0
14876.795902715385,-282.0
14876.795965212597,-190.0
14876.79602770981,-43.0
14876.79609020702,-205.0
14876.796152704233,-182.0
14876.796215201446,-158.0
14876.796277698659,-101.0
14876.796340195871,172.0
14876.796402693084,288.0
14876.796465190297,427.0
14876.79652768751,357.0
14876.796590184722,22.0
14876.796652681935,54.0
14876.796715179145,150.0
14876.796777676358,-25.0
14876.79684017357,-195.0
14876.796902670783,-225.0
14876.796965167996,-170.0
14876.797027665209,-79.0
14876.797090162421,82.0
14876.797152659634,239.0
14876.797215156847,243.0
14876.79727765406,172.0
14876.797340151272,272.0
14876.797402648484,451.0
14876.797465145695,437.0
14876.797527642908,180.0
14876.79759014012,126.0
14876.797652637333,324.0
14876.797715134546,167.0
14876.797777631758,30.0
14876.797840128971,160.0
14876.797902626184,21.0
14876.797965123396,-156.0
14876.798027620609,-176.0
14876.79809011782,-242.0
14876.798152615032,-285.0
14876.798215112245,-237.0
14876.798277609458,-129.0
14876.79834010667,52.0
14876.798402603883,369.0
14876.798465101096,368.0
14876.798527598308,72.0
14876.798590095521,24.0
14876.798652592734,-5.0
14876.798715089946,31.0
14876.798777587159,140.0
14876.79884008437,5.0
14876.798902581582,-113.0
14876.798965078795,-79.0
14876.799027576008,-166.0
14876.79909007322,-219.0
14876.799152570433,-153.0
14876.799215067645,-223.0
14876.799277564858,-215.0
14876.79934006207,-42.0
14876.799402559283,60.0
14876.799465056494,-87.0
14876.799527553707,-305.0
14876.79959005092,-248.0
14876.799652548132,-76.0
14876.799715045345,-120.0
14876.799777542557,-133.0
14876.79984003977,-128.0
14876.799902536983,-174.0
14876.799965034195,-104.0
14876.800027531408,71.0
14876.80009002862,61.0
14876.800152525833,-15.0
14876.800215023044,103.0
14876.800277520257,114.0
14876.80034001747,165.0
14876.800402514682,246.0
14876.800465011895,249.0
14876.800527509107,432.0
14876.80059000632,626.0
14876.800652503533,671.0
14876.800715000745,575.0
14876.800777497958,633.0
14876.800839995169,562.0
14876.800902492381,247.0
14876.800964989594,178.0
14876.801027486807,430.0
14876.80108998402,527.0
14876.801152481232,346.0
14876.801214978444,217.0
14876.801277475657,171.0
14876.80133997287,77.0
14876.801402470082,3.0
14876.801464967295,40.0
14876.801527464508,-21.0
14876.801589961718,-30.0
14876.801652458931,-85.0
14876.801714956144,-174.0
14876.801777453356,41.0
14876.801839950569,175.0
14876.801902447782,111.0
14876.801964944994,153.0
14876.802027442207,183.0
14876.80208993942,161.0
14876.802152436632,223.0
14876.802214933843,181.0
14876.802277431056,-61.0
14876.802339928268,-92.0
14876.802402425481,81.0
14876.802464922694,208.0
14876.802527419906,412.0
14876.802589917119,480.0
14876.802652414332,335.0
14876.802714911544,133.0
14876.802777408757,123.0
14876.80283990597,274.0
14876.802902403182,190.0
14876.802964900393,383.0
14876.803027397606,711.0
14876.803089894818,526.0
14876.80315239203,445.0
14876.803214889243,630.0
14876.803277386456,657.0
14876.803339883669,555.0
14876.803402380881,402.0
14876.803464878094,274.0
14876.803527375305,174.0
14876.803589872517,-8.0
14876.80365236973,-23.0
14876.803714866943,205.0
14876.803777364155,311.0
14876.803839861368,301.0
14876.80390235858,322.0
14876.803964855793,301.0
14876.804027353006,233.0
14876.804089850219,283.0
14876.804152347431,420.0
14876.804214844644,347.0
14876.804277341857,226.0
14876.804339839067,155.0
14876.80440233628,22.0
14876.804464833493,88.0
14876.804527330705,129.0
14876.804589827918,207.0
14876.80465232513,346.0
14876.804714822343,266.0
14876.804777319556,200.0
14876.804839816768,132.0
14876.80490231398,100.0
14876.804964811192,113.0
14876.805027308405,101.0
14876.805089805617,133.0
14876.80515230283,220.0
14876.805214800042,304.0
14876.805277297255,380.0
14876.805339794468,462.0
14876.80540229168,285.0
14876.805464788893,26.0
14876.805527286106,-41.0
14876.805589783318,-161.0
14876.805652280531,-87.0
14876.805714777742,176.0
14876.805777274954,140.0
14876.805839772167,53.0
14876.80590226938,6.0
14876.805964766592,-29.0
14876.806027263805,-27.0
14876.806089761018,-141.0
14876.80615225823,-146.0
14876.806214755443,-30.0
14876.806277252654,109.0
14876.806339749866,258.0
14876.806402247079,409.0
14876.806464744292,577.0
14876.806527241504,511.0
14876.806589738717,379.0
14876.80665223593,456.0
14876.806714733142,269.0
14876.806777230355,179.0
14876.806839727567,285.0
14876.80690222478,17.0
14876.806964721993,-102.0
14876.807027219204,-10.0
14876.807089716416,177.0
14876.807152213629,307.0
14876.807214710841,214.0
14876.807277208054,183.0
14876.807339705267,81.0
14876.80740220248,37.0
14876.807464699692,212.0
14876.807527196905,327.0
14876.807589694117,211.0
14876.807652191328,-42.0
14876.80771468854,-111.0
14876.807777185753,-43.0
14876.807839682966,-29.0
14876.807902180179,-126.0
14876.807964677391,-177.0
14876.808027174604,-196.0
14876.808089671817,-264.0
14876.80815216903,-189.0
14876.808214666242,-141.0
14876.808277163454,-212.0
14876.808339660667,-387.0
14876.808402157878,-413.0
14876.80846465509,-56.0
14876.808527152303,47.0
14876.808589649516,-80.0
14876.808652146728,-69.0
14876.808714643941,-149.0
14876.808777141154,-128.0
14876.808839638366,-119.0
14876.808902135579,-155.0
14876.808964632792,-115.0
14876.809027130003,-56.0
14876.809089627215,95.0
14876.809152124428,218.0
14876.80921462164,190.0
14876.809277118853,59.0
14876.809339616066,252.0
14876.809402113278,386.0
14876.809464610491,247.0
14876.809527107704,279.0
14876.809589604916,189.0
14876.809652102129,4.0
14876.809714599342,185.0
14876.809777096552,390.0
14876.809839593765,316.0
14876.809902090978,252.0
14876.80996458819,-62.0
14876.810027085403,-484.0
14876.810089582616,-363.0
14876.810152079828,-305.0
14876.81021457704,-449.0
14876.810277074253,-254.0
14876.810339571466,-114.0
14876.810402068677,39.0
14876.81046456589,268.0
14876.810527063102,365.0
14876.810589560315,405.0
14876.810652057527,392.0
14876.81071455474,353.0
14876.810777051953,342.0
14876.810839549165,318.0
14876.810902046378,267.0
14876.81096454359,399.0
14876.811027040803,464.0
14876.811089538016,275.0
14876.811152035227,109.0
14876.81121453244,168.0
14876.811277029652,521.0
14876.811339526865,802.0
14876.811402024077,534.0
14876.81146452129,100.0
14876.811527018503,54.0
14876.811589515715,54.0
14876.811652012928,-64.0
14876.81171451014,-65.0
14876.811777007351,34.0
14876.811839504564,-15.0
14876.811902001777,-191.0
14876.81196449899,-218.0
14876.812026996202,-51.0
14876.812089493415,122.0
14876.812151990627,61.0
14876.81221448784,-16.0
14876.812276985052,92.0
14876.812339482265,140.0
14876.812401979478,202.0
14876.81246447669,436.0
14876.812526973901,552.0
14876.812589471114,372.0
14876.812651968326,203.0
14876.81271446554,293.0
14876.812776962752,585.0
14876.812839459964,782.0
14876.812901957177,559.0
14876.81296445439,367.0
14876.813026951602,382.0
14876.813089448815,210.0
14876.813151946026,151.0
14876.813214443238,218.0
14876.813276940451,70.0
14876.813339437664,-103.0
14876.813401934876,-164.0
14876.813464432089,-196.0
14876.813526929302,-160.0
14876.813589426514,-116.0
14876.813651923727,-33.0
14876.81371442094,50.0
14876.813776918152,-139.0
14876.813839415365,-215.0
14876.813901912576,-129.0
14876.813964409788,-47.0
14876.814026907,91.0
14876.814089404214,60.0
14876.814151901426,33.0
14876.814214398639,45.0
14876.814276895851,-210.0
14876.814339393064,-437.0
14876.814401890277,-311.0
14876.814464387488,-140.0
14876.8145268847,100.0
14876.814589381913,221.0
14876.814651879125,244.0
14876.814714376338,198.0
14876.81477687355,45.0
14876.814839370763,42.0
14876.814901867976,326.0
14876.814964365189,450.0
14876.815026862401,151.0
14876.815089359614,-170.0
14876.815151856827,-361.0
14876.81521435404,-317.0
14876.81527685125,-222.0
14876.815339348463,-91.0
14876.815401845675,18.0
14876.815464342888,-8.0
14876.8155268401,-49.0
14876.815589337313,-265.0
14876.815651834526,-530.0
14876.815714331738,-734.0
14876.815776828951,-800.0
14876.815839326162,-586.0
14876.815901823375,-475.0
14876.815964320587,-448.0
14876.8160268178,-144.0
14876.816089315013,-37.0
14876.816151812225,-20.0
14876.816214309438,231.0
14876.81627680665,293.0
14876.816339303863,241.0
14876.816401801076,213.0
14876.816464298288,14.0
14876.816526795501,-32.0
14876.816589292714,62.0
14876.816651789924,-35.0
14876.816714287137,-104.0
14876.81677678435,-50.0
14876.816839281562,-73.0
14876.816901778775,-218.0
14876.816964275988,-230.0
14876.8170267732,-123.0
14876.817089270413,-214.0
14876.817151767626,-434.0
14876.817214264836,-502.0
14876.817276762049,-561.0
14876.817339259262,-628.0
14876.817401756474,-556.0
14876.817464253687,-330.0
14876.8175267509,-118.0
14876.817589248112,-65.0
14876.817651745325,40.0
14876.817714242537,182.0
14876.81777673975,198.0
14876.817839236963,69.0
14876.817901734175,-116.0
14876.817964231388,-67.0
14876.818026728599,118.0
14876.818089225811,177.0
14876.818151723024,168.0
14876.818214220237,64.0
14876.81827671745,-93.0
14876.818339214662,-72.0
14876.818401711875,75.0
14876.818464209087,-65.0
14876.8185267063,-200.0
14876.81858920351,-62.0
14876.818651700723,128.0
14876.818714197936,162.0
14876.818776695149,34.0
14876.818839192361,-146.0
14876.818901689574,-341.0
14876.818964186787,-343.0
14876.819026684,-138.0
14876.819089181212,43.0
14876.819151678425,72.0
14876.819214175637,54.0
14876.81927667285,29.0
14876.81933917006,-207.0
14876.819401667273,-367.0
14876.819464164486,-322.0
14876.819526661699,-271.0
14876.819589158911,-172.0
14876.819651656124,22.0
14876.819714153336,179.0
14876.81977665055,309.0
14876.819839147762,261.0
14876.819901644974,58.0
14876.819964142185,-21.0
14876.820026639398,-36.0
14876.82008913661,-5.0
14876.820151633823,103.0
14876.820214131036,109.0
14876.820276628248,98.0
14876.820339125461,-81.0
14876.820401622674,-147.0
14876.820464119886,74.0
14876.820526617099,89.0
14876.820589114312,54.0
14876.820651611524,-3.0
14876.820714108735,-187.0
14876.820776605948,16.0
14876.82083910316,171.0
14876.820901600373,-198.0
14876.820964097586,-327.0
14876.821026594798,-173.0
14876.82108909201,-23.0
14876.821151589224,217.0
14876.821214086436,286.0
14876.821276583649,228.0
14876.82133908086,200.0
14876.821401578072,280.0
14876.821464075285,418.0
14876.821526572498,529.0
14876.82158906971,697.0
14876.821651566923,720.0
14876.821714064135,592.0
14876.821776561348,646.0
14876.82183905856,772.0
14876.821901555773,659.0
14876.821964052986,604.0
14876.822026550199,692.0
14876.82208904741,666.0
14876.822151544622,544.0
14876.822214041835,568.0
14876.822276539047,692.0
14876.82233903626,679.0
14876.822401533473,653.0
14876.822464030685,612.0
14876.822526527898,524.0
14876.82258902511,249.0
14876.822651522323,110.0
14876.822714019534,229.0
14876.822776516747,292.0
14876.82283901396,273.0
14876.822901511172,217.0
14876.822964008385,354.0
14876.823026505597,661.0
14876.82308900281,846.0
14876.823151500023,736.0
14876.823213997235,570.0
14876.823276494448,426.0
14876.82333899166,157.0
14876.823401488873,204.0
14876.823463986084,395.0
14876.823526483297,262.0
14876.82358898051,159.0
14876.823651477722,225.0
14876.823713974934,360.0
14876.823776472147,763.0
14876.82383896936,921.0
14876.823901466572,469.0
14876.823963963785,231.0
14876.824026460998,234.0
14876.824088958208,151.0
14876.824151455421,219.0
14876.824213952634,302.0
14876.824276449846,229.0
14876.824338947059,191.0
14876.824401444272,274.0
14876.824463941484,225.0
14876.824526438697,128.0
14876.82458893591,6.0
14876.824651433122,-293.0
14876.824713930335,-372.0
14876.824776427547,-67.0
14876.824838924758,64.0
14876.824901421971,34.0
14876.824963919184,201.0
14876.825026416396,231.0
14876.825088913609,97.0
14876.825151410821,50.0
14876.825213908034,222.0
14876.825276405247,493.0
14876.82533890246,601.0
14876.82540139967,544.0
14876.825463896883,384.0
14876.825526394096,170.0
14876.825588891308,63.0
14876.82565138852,210.0
14876.825713885733,460.0
14876.825776382946,342.0
14876.825838880159,216.0
14876.825901377371,371.0
14876.825963874584,548.0
14876.826026371797,555.0
14876.82608886901,294.0
14876.826151366222,35.0
14876.826213863433,-240.0
14876.826276360645,-370.0
14876.826338857858,-229.0
14876.82640135507,-18.0
14876.826463852283,150.0
14876.826526349496,173.0
14876.826588846709,127.0
14876.826651343921,54.0
14876.826713841134,-72.0
14876.826776338345,-149.0
14876.826838835557,-145.0
14876.82690133277,-197.0
14876.826963829983,-171.0
14876.827026327195,-33.0
14876.827088824408,-43.0
14876.82715132162,-3.0
14876.827213818833,178.0
14876.827276316046,188.0
14876.827338813258,-34.0
14876.827401310471,-208.0
14876.827463807684,-486.0
14876.827526304896,-710.0
14876.827588802107,-651.0
14876.82765129932,-465.0
14876.827713796532,-341.0
14876.827776293745,-308.0
14876.827838790958,-251.0
14876.82790128817,-178.0
14876.827963785383,47.0
14876.828026282596,246.0
14876.828088779808,216.0
14876.828151277019,142.0
14876.828213774232,101.0
14876.828276271444,111.0
14876.828338768657,253.0
14876.82840126587,229.0
14876.828463763082,19.0
14876.828526260295,-112.0
14876.828588757508,-329.0
14876.82865125472,-311.0
14876.828713751933,-88.0
14876.828776249145,14.0
14876.828838746358,-59.0
14876.82890124357,-275.0
14876.828963740782,-313.0
14876.829026237994,-403.0
14876.829088735207,-375.0
14876.82915123242,-115.0
14876.829213729632,-42.0
14876.829276226845,297.0
14876.829338724057,539.0
14876.82940122127,429.0
14876.829463718483,361.0
14876.829526215693,290.0
14876.829588712906,195.0
14876.829651210119,62.0
14876.829713707331,-99.0
14876.829776204544,-157.0
14876.829838701757,-90.0
14876.82990119897,-15.0
14876.829963696182,126.0
14876.830026193395,240.0
14876.830088690607,374.0
14876.83015118782,401.0
14876.830213685033,186.0
14876.830276182243,165.0
14876.830338679456,41.0
14876.830401176669,-60.0
14876.830463673881,45.0
14876.830526171094,86.0
14876.830588668307,98.0
14876.83065116552,126.0
14876.830713662732,90.0
14876.830776159944,-100.0
14876.830838657157,-162.0
14876.830901154368,-173.0
14876.83096365158,-259.0
14876.831026148793,-283.0
14876.831088646006,-324.0
14876.831151143218,-207.0
14876.831213640431,-24.0
14876.831276137644,158.0
14876.831338634856,181.0
14876.831401132069,109.0
14876.831463629282,193.0
14876.831526126494,204.0
14876.831588623707,307.0
14876.831651120918,476.0
14876.83171361813,457.0
14876.831776115343,210.0
14876.831838612556,-86.0
14876.831901109768,-139.0
14876.831963606981,-111.0
14876.832026104194,-195.0
14876.832088601406,-243.0
14876.832151098619,-280.0
14876.832213595831,-273.0
14876.832276093042,-129.0
14876.832338590255,117.0
14876.832401087468,179.0
14876.83246358468,-35.0
14876.832526081893,-61.0
14876.832588579106,31.0
14876.832651076318,30.0
14876.83271357353,165.0
14876.832776070743,227.0
14876.832838567956,154.0
14876.832901065169,35.0
14876.832963562381,-60.0
14876.833026059592,2.0
14876.833088556805,-112.0
14876.833151054017,-94.0
14876.83321355123,261.0
14876.833276048443,522.0
14876.833338545655,626.0
14876.833401042868,592.0
14876.83346354008,448.0
14876.833526037293,284.0
14876.833588534506,208.0
14876.833651031717,28.0
14876.83371352893,46.0
14876.833776026142,330.0
14876.833838523355,443.0
14876.833901020567,513.0
14876.83396351778,586.0
14876.834026014993,477.0
14876.834088512205,179.0
14876.834151009418,-82.0
14876.83421350663,-207.0
14876.834276003843,-121.0
14876.834338501056,94.0
14876.834400998267,295.0
14876.83446349548,485.0
14876.834525992692,444.0
14876.834588489904,211.0
14876.834650987117,210.0
14876.83471348433,300.0
14876.834775981542,265.0
14876.834838478755,280.0
14876.834900975968,202.0
14876.83496347318,167.0
14876.835025970391,136.0
14876.835088467604,-14.0
14876.835150964816,-20.0
14876.835213462029,-18.0
14876.835275959242,-56.0
14876.835338456454,-38.0
14876.835400953667,-33.0
14876.83546345088,-42.0
14876.835525948092,-51.0
14876.835588445305,-5.0
14876.835650942518,69.0
14876.83571343973,32.0
14876.835775936941,146.0
14876.835838434154,156.0
14876.835900931366,-78.0
14876.835963428579,-58.0
14876.836025925792,150.0
14876.836088423004,338.0
14876.836150920217,545.0
14876.83621341743,446.0
14876.836275914642,198.0
14876.836338411855,221.0
14876.836400909066,333.0
14876.836463406278,422.0
14876.83652590349,535.0
14876.836588400703,474.0
14876.836650897916,410.0
14876.836713395129,572.0
14876.836775892341,583.0
14876.836838389554,583.0
14876.836900886767,694.0
14876.83696338398,678.0
14876.837025881192,431.0
14876.837088378405,119.0
14876.837150875615,195.0
14876.837213372828,389.0
14876.83727587004,348.0
14876.837338367253,301.0
14876.837400864466,301.0
14876.837463361679,358.0
14876.837525858891,443.0
14876.837588356104,454.0
14876.837650853317,391.0
14876.837713350527,317.0
14876.83777584774,296.0
14876.837838344953,416.0
14876.837900842165,527.0
14876.837963339378,660.0
14876.83802583659,924.0
14876.838088333803,990.0
14876.838150831016,941.0
14876.838213328228,867.0
14876.838275825441,586.0
14876.838338322654,554.0
14876.838400819866,698.0
14876.838463317079,529.0
14876.83852581429,458.0
14876.838588311502,477.0
14876.838650808715,271.0
14876.838713305928,82.0
14876.83877580314,-55.0
14876.838838300353,-60.0
14876.838900797566,76.0
14876.838963294778,166.0
14876.839025791991,448.0
14876.839088289202,734.0
14876.839150786414,464.0
14876.839213283627,62.0
14876.83927578084,129.0
14876.839338278052,199.0
14876.839400775265,83.0
14876.839463272478,153.0
14876.83952576969,179.0
14876.839588266903,206.0
14876.839650764116,276.0
14876.839713261328,370.0
14876.83977575854,385.0
14876.839838255753,122.0
14876.839900752964,-92.0
14876.839963250177,-4.0
14876.84002574739,252.0
14876.840088244602,414.0
14876.840150741815,501.0
14876.840213239027,685.0
14876.84027573624,744.0
14876.840338233453,489.0
14876.840400730665,327.0
14876.840463227876,187.0
14876.840525725089,-70.0
14876.840588222301,-54.0
14876.840650719514,225.0
14876.840713216727,409.0
14876.84077571394,456.0
14876.840838211152,326.0
14876.840900708365,76.0
14876.840963205577,142.0
14876.84102570279,468.0
14876.841088200003,478.0
14876.841150697215,440.0
14876.841213194426,320.0
14876.841275691639,99.0
14876.841338188851,173.0
14876.841400686064,281.0
14876.841463183277,250.0
14876.84152568049,86.0
14876.841588177702,-78.0
14876.841650674914,-88.0
14876.841713172127,178.0
14876.84177566934,470.0
14876.84183816655,580.0
14876.841900663763,497.0
14876.841963160976,422.0
14876.842025658189,363.0
14876.842088155401,-20.0
14876.842150652614,3.0
14876.842213149826,307.0
14876.842275647039,334.0
14876.842338144252,330.0
14876.842400641464,469.0
14876.842463138677,661.0
14876.84252563589,759.0
14876.8425881331,765.0
14876.842650630313,708.0
14876.842713127526,604.0
14876.842775624738,424.0
14876.842838121951,320.0
14876.842900619164,170.0
14876.842963116376,60.0
14876.843025613589,-26.0
14876.843088110802,-183.0
14876.843150608014,-180.0
14876.843213105225,-193.0
14876.843275602438,-268.0
14876.84333809965,-271.0
14876.843400596863,-155.0
14876.843463094076,77.0
14876.843525591288,255.0
14876.8435880885,387.0
14876.843650585713,658.0
14876.843713082926,826.0
14876.843775580139,696.0
14876.843838077351,435.0
14876.843900574564,298.0
14876.843963071775,261.0
14876.844025568987,294.0
14876.8440880662,412.0
14876.844150563413,511.0
14876.844213060625,420.0
14876.844275557838,347.0
14876.84433805505,302.0
14876.844400552263,310.0
14876.844463049476,380.0
14876.844525546689,400.0
14876.8445880439,528.0
14876.844650541112,585.0
14876.844713038325,627.0
14876.844775535537,630.0
14876.84483803275,427.0
14876.844900529963,284.0
14876.844963027175,218.0
14876.845025524388,229.0
14876.8450880216,303.0
14876.845150518813,436.0
14876.845213016026,663.0
14876.845275513238,755.0
14876.84533801045,499.0
14876.845400507662,184.0
14876.845463004875,150.0
14876.845525502087,158.0
14876.8455879993,124.0
14876.845650496512,238.0
14876.845712993725,306.0
14876.845775490938,406.0
14876.84583798815,481.0
14876.845900485363,478.0
14876.845962982574,669.0
14876.846025479786,492.0
14876.846087977,-6.0
14876.846150474212,-48.0
14876.846212971424,71.0
14876.846275468637,146.0
14876.84633796585,132.0
14876.846400463062,180.0
14876.846462960275,247.0
14876.846525457488,287.0
14876.8465879547,294.0
14876.846650451913,315.0
14876.846712949124,427.0
14876.846775446336,288.0
14876.846837943549,191.0
14876.846900440762,269.0
14876.846962937974,294.0
14876.847025435187,146.0
14876.8470879324,-84.0
14876.847150429612,-56.0
14876.847212926825,-119.0
14876.847275424037,-273.0
14876.847337921248,-167.0
14876.84740041846,123.0
14876.847462915674,501.0
14876.847525412886,448.0
14876.847587910099,90.0
14876.847650407311,-5.0
14876.847712904524,113.0
14876.847775401737,154.0
14876.84783789895,226.0
14876.847900396162,234.0
14876.847962893375,-101.0
14876.848025390587,-321.0
14876.848087887798,-141.0
14876.84815038501,266.0
14876.848212882223,463.0
14876.848275379436,266.0
14876.848337876649,-3.0
14876.848400373861,-78.0
14876.848462871074,-9.0
14876.848525368287,46.0
14876.8485878655,336.0
14876.84865036271,560.0
14876.848712859923,327.0
14876.848775357135,161.0
14876.848837854348,216.0
14876.84890035156,226.0
14876.848962848773,152.0
14876.849025345986,30.0
14876.849087843199,-71.0
14876.849150340411,-147.0
14876.849212837624,-243.0
14876.849275334836,-259.0
14876.849337832049,-18.0
14876.849400329262,247.0
14876.849462826473,286.0
14876.849525323685,314.0
14876.849587820898,366.0
14876.84965031811,320.0
14876.849712815323,180.0
14876.849775312536,132.0
14876.849837809748,294.0
14876.849900306961,493.0
14876.849962804174,495.0
14876.850025301384,439.0
14876.850087798597,409.0
14876.85015029581,293.0
14876.850212793022,109.0
14876.850275290235,25.0
14876.850337787448,99.0
14876.85040028466,71.0
14876.850462781873,22.0
14876.850525279086,28.0
14876.850587776298,145.0
14876.85065027351,426.0
14876.850712770723,412.0
14876.850775267936,340.0
14876.850837765147,387.0
14876.85090026236,389.0
14876.850962759572,521.0
14876.851025256785,779.0
14876.851087753997,658.0
14876.85115025121,413.0
14876.851212748423,268.0
14876.851275245635,149.0
14876.851337742848,347.0
14876.851400240059,440.0
14876.851462737272,358.0
14876.851525234484,369.0
14876.851587731697,443.0
14876.85165022891,399.0
14876.851712726122,293.0
14876.851775223335,284.0
14876.851837720547,285.0
14876.85190021776,-6.0
14876.851962714973,-350.0
14876.852025212185,-264.0
14876.852087709398,-199.0
14876.852150206609,-260.0
14876.852212703821,-168.0
14876.852275201034,58.0
14876.852337698247,270.0
14876.85240019546,151.0
14876.852462692672,-129.0
14876.852525189885,-127.0
14876.852587687097,6.0
14876.85265018431,-24.0
14876.852712681522,-112.0
14876.852775178733,29.0
14876.852837675946,177.0
14876.852900173159,72.0
14876.852962670371,74.0
14876.853025167584,356.0
14876.853087664796,559.0
14876.85315016201,325.0
14876.853212659222,247.0
14876.853275156434,618.0
14876.853337653647,709.0
14876.85340015086,355.0
14876.853462648072,156.0
14876.853525145283,127.0
14876.853587642496,-111.0
14876.853650139708,-357.0
14876.853712636921,-285.0
14876.853775134134,22.0
14876.853837631346,177.0
14876.853900128559,39.0
14876.853962625772,-80.0
14876.854025122984,122.0
14876.854087620197,63.0
14876.854150117408,-9.0
14876.85421261462,270.0
14876.854275111833,312.0
14876.854337609046,99.0
14876.854400106258,18.0
14876.85446260347,105.0
14876.854525100684,307.0
14876.854587597896,347.0
14876.854650095109,126.0
14876.854712592321,-31.0
14876.854775089534,-64.0
14876.854837586747,-145.0
14876.854900083958,-98.0
14876.85496258117,105.0
14876.855025078383,120.0
14876.855087575595,-50.0
14876.855150072808,-102.0
14876.85521257002,29.0
14876.855275067233,176.0
14876.855337564446,208.0
14876.855400061659,38.0
14876.855462558871,-56.0
14876.855525056082,85.0
14876.855587553295,199.0
14876.855650050507,239.0
14876.85571254772,338.0
14876.855775044933,423.0
14876.855837542145,197.0
14876.855900039358,-12.0
14876.85596253657,207.0
14876.856025033783,356.0
14876.856087530996,277.0
14876.856150028209,158.0
14876.856212525421,113.0
14876.856275022632,271.0
14876.856337519845,233.0
14876.856400017057,-80.0
14876.85646251427,-80.0
14876.856525011483,97.0
14876.856587508695,71.0
14876.856650005908,106.0
14876.85671250312,151.0
14876.856775000333,88.0
14876.856837497546,288.0
14876.856899994757,355.0
14876.85696249197,94.0
14876.857024989182,56.0
14876.857087486394,-117.0
14876.857149983607,-252.0
14876.85721248082,106.0
14876.857274978032,214.0
14876.857337475245,199.0
14876.857399972458,472.0
14876.85746246967,612.0
14876.857524966883,422.0
14876.857587464096,260.0
14876.857649961306,204.0
14876.857712458519,78.0
14876.857774955732,221.0
14876.857837452944,317.0
14876.857899950157,219.0
14876.85796244737,496.0
14876.858024944582,759.0
14876.858087441795,691.0
14876.858149939007,783.0
14876.85821243622,729.0
14876.858274933431,350.0
14876.858337430644,282.0
14876.858399927856,437.0
14876.858462425069,437.0
14876.858524922282,394.0
14876.858587419494,292.0
14876.858649916707,319.0
14876.85871241392,444.0
14876.858774911132,392.0
14876.858837408345,410.0
14876.858899905557,522.0
14876.85896240277,535.0
14876.85902489998,579.0
14876.859087397193,516.0
14876.859149894406,524.0
14876.859212391619,413.0
14876.859274888831,280.0
14876.859337386044,465.0
14876.859399883257,505.0
14876.85946238047,424.0
14876.859524877682,401.0
14876.859587374893,401.0
14876.859649872105,467.0
14876.859712369318,225.0
14876.85977486653,-58.0
14876.859837363743,2.0
14876.859899860956,-31.0
14876.859962358169,-6.0
14876.860024855381,217.0
14876.860087352594,282.0
14876.860149849806,272.0
14876.86021234702,375.0
14876.860274844232,536.0
14876.860337341444,529.0
14876.860399838655,373.0
14876.860462335868,171.0
14876.86052483308,83.0
14876.860587330293,190.0
14876.860649827506,414.0
14876.860712324718,661.0
14876.860774821931,930.0
14876.860837319144,1051.0
14876.860899816356,916.0
14876.860962313567,867.0
14876.86102481078,815.0
14876.861087307992,528.0
14876.861149805205,502.0
14876.861212302418,685.0
14876.86127479963,686.0
14876.861337296843,663.0
14876.861399794056,570.0
14876.861462291268,518.0
14876.86152478848,712.0
14876.861587285694,819.0
14876.861649782906,695.0
14876.861712280119,388.0
14876.86177477733,144.0
14876.861837274542,178.0
14876.861899771755,230.0
14876.861962268968,308.0
14876.86202476618,204.0
14876.862087263393,-14.0
14876.862149760605,0.0
14876.862212257818,-27.0
14876.86227475503,65.0
14876.862337252242,268.0
14876.862399749454,293.0
14876.862462246667,89.0
14876.86252474388,-92.0
14876.862587241092,-80.0
14876.862649738305,-213.0
14876.862712235517,-286.0
14876.86277473273,-203.0
14876.862837229943,-98.0
14876.862899727155,-104.0
14876.862962224368,-241.0
14876.86302472158,-230.0
14876.863087218791,-225.0
14876.863149716004,-398.0
14876.863212213217,-432.0
14876.86327471043,-226.0
14876.863337207642,-219.0
14876.863399704855,-305.0
14876.863462202067,-174.0
14876.86352469928,-39.0
14876.863587196493,-58.0
14876.863649693705,-216.0
14876.863712190916,-221.0
14876.863774688129,-104.0
14876.863837185341,-148.0
14876.863899682554,-320.0
14876.863962179767,-288.0
14876.86402467698,-13.0
14876.864087174192,31.0
14876.864149671404,106.0
14876.864212168617,342.0
14876.86427466583,327.0
14876.864337163042,241.0
14876.864399660255,81.0
14876.864462157466,-97.0
14876.864524654678,-104.0
14876.864587151891,-251.0
14876.864649649104,-382.0
14876.864712146316,-275.0
14876.864774643529,-171.0
14876.864837140742,-107.0
14876.864899637954,-87.0
14876.864962135167,-14.0
14876.86502463238,183.0
14876.86508712959,123.0
14876.865149626803,153.0
14876.865212124016,447.0
14876.865274621228,335.0
14876.865337118441,101.0
14876.865399615654,197.0
14876.865462112866,239.0
14876.865524610079,258.0
14876.865587107292,347.0
14876.865649604504,415.0
14876.865712101717,497.0
14876.86577459893,469.0
14876.86583709614,468.0
14876.865899593353,406.0
14876.865962090566,350.0
14876.866024587778,442.0
14876.86608708499,268.0
14876.866149582203,76.0
14876.866212079416,385.0
14876.866274576629,563.0
14876.866337073841,432.0
14876.866399571054,679.0
14876.866462068265,768.0
14876.866524565477,501.0
14876.86658706269,395.0
14876.866649559903,311.0
14876.866712057115,177.0
14876.866774554328,59.0
14876.86683705154,-72.0
14876.866899548753,-54.0
14876.866962045966,226.0
14876.867024543179,365.0
14876.867087040391,166.0
14876.867149537604,71.0
14876.867212034815,38.0
14876.867274532027,-2.0
14876.86733702924,158.0
14876.867399526453,319.0
14876.867462023665,324.0
14876.867524520878,243.0
14876.86758701809,140.0
14876.867649515303,221.0
14876.867712012516,514.0
14876.867774509728,489.0
14876.86783700694,350.0
14876.867899504152,440.0
14876.867962001365,520.0
14876.868024498577,579.0
14876.86808699579,613.0
14876.868149493002,661.0
14876.868211990215,694.0
14876.868274487428,740.0
14876.86833698464,665.0
14876.868399481853,512.0
14876.868461979066,521.0
14876.868524476278,556.0
14876.868586973489,497.0
14876.868649470702,446.0
14876.868711967914,427.0
14876.868774465127,268.0
14876.86883696234,90.0
14876.868899459552,-79.0
14876.868961956765,-231.0
14876.869024453978,-305.0
14876.86908695119,-393.0
14876.869149448403,-104.0
14876.869211945614,212.0
14876.869274442826,351.0
14876.869336940039,343.0
14876.869399437252,55.0
14876.869461934464,52.0
14876.869524431677,245.0
14876.86958692889,265.0
14876.869649426102,267.0
14876.869711923315,371.0
14876.869774420527,424.0
14876.86983691774,368.0
14876.869899414953,301.0
14876.869961912163,236.0
14876.870024409376,238.0
14876.870086906589,216.0
14876.870149403801,40.0
14876.870211901014,-66.0
14876.870274398227,-109.0
14876.87033689544,-114.0
14876.870399392652,65.0
14876.870461889865,173.0
14876.870524387075,-10.0
14876.870586884288,-288.0
14876.8706493815,-391.0
14876.870711878713,-427.0
14876.870774375926,-442.0
14876.870836873139,-365.0
14876.870899370351,-298.0
14876.870961867564,-177.0
14876.871024364777,-65.0
14876.87108686199,-118.0
14876.871149359202,-106.0
14876.871211856414,-80.0
14876.871274353627,-9.0
14876.871336850838,51.0
14876.87139934805,27.0
14876.871461845263,123.0
14876.871524342476,147.0
14876.871586839688,174.0
14876.871649336901,334.0
14876.871711834114,278.0
14876.871774331326,159.0
14876.871836828539,120.0
14876.87189932575,9.0
14876.871961822962,-2.0
14876.872024320175,66.0
14876.872086817388,-29.0
14876.8721493146,-120.0
14876.872211811813,-125.0
14876.872274309026,-132.0
14876.872336806238,-188.0
14876.872399303451,-326.0
14876.872461800664,-234.0
14876.872524297876,-176.0
14876.872586795089,-270.0
14876.872649292302,-228.0
14876.872711789512,-68.0
14876.872774286725,214.0
14876.872836783938,266.0
14876.87289928115,188.0
14876.872961778363,323.0
14876.873024275576,346.0
14876.873086772788,201.0
14876.87314927,221.0
14876.873211767213,456.0
14876.873274264424,449.0
14876.873336761637,225.0
14876.87339925885,211.0
14876.873461756062,111.0
14876.873524253275,14.0
14876.873586750487,-11.0
14876.8736492477,-49.0
14876.873711744913,107.0
14876.873774242125,301.0
14876.873836739338,334.0
14876.87389923655,452.0
14876.873961733763,679.0
14876.874024230976,506.0
14876.874086728187,262.0
14876.8741492254,277.0
14876.874211722612,103.0
14876.874274219825,-71.0
14876.874336717037,-146.0
14876.87439921425,-331.0
14876.874461711463,-253.0
14876.874524208675,-95.0
14876.874586705888,-126.0
14876.874649203099,-45.0
14876.874711700311,51.0
14876.874774197524,-72.0
14876.874836694737,-243.0
14876.87489919195,-236.0
14876.874961689162,-145.0
14876.875024186375,-143.0
14876.875086683587,-116.0
14876.8751491808,41.0
14876.875211678012,273.0
14876.875274175225,515.0
14876.875336672438,416.0
14876.875399169649,399.0
14876.875461666861,426.0
14876.875524164074,373.0
14876.875586661286,538.0
14876.875649158499,649.0
14876.875711655712,702.0
14876.875774152924,600.0
14876.875836650137,387.0
14876.87589914735,159.0
14876.875961644562,47.0
14876.876024141773,131.0
14876.876086638986,104.0
14876.876149136198,172.0
14876.876211633411,304.0
14876.876274130624,302.0
14876.876336627836,264.0
14876.876399125049,250.0
14876.876461622262,323.0
14876.876524119474,252.0
14876.876586616687,66.0
14876.8766491139,121.0
14876.876711611112,410.0
14876.876774108323,622.0
14876.876836605536,619.0
14876.876899102748,584.0
14876.87696159996,508.0
14876.877024097173,373.0
14876.877086594386,261.0
14876.877149091599,179.0
14876.877211588811,261.0
14876.877274086024,267.0
14876.877336583237,96.0
14876.877399080448,219.0
14876.87746157766,366.0
14876.877524074873,240.0
14876.877586572085,72.0
14876.877649069298,-119.0
14876.87771156651,-296.0
14876.877774063723,-385.0
14876.877836560936,-339.0
14876.877899058149,-51.0
14876.877961555361,470.0
14876.878024052574,542.0
14876.878086549787,120.0
14876.878149046997,67.0
14876.87821154421,165.0
14876.878274041423,54.0
14876.878336538635,-21.0
14876.878399035848,-15.0
14876.87846153306,-56.0
14876.878524030273,-119.0
14876.878586527486,-351.0
14876.878649024698,-590.0
14876.878711521911,-622.0
14876.878774019122,-592.0
14876.878836516335,-606.0
14876.878899013547,-507.0
14876.87896151076,-98.0
14876.879024007972,148.0
14876.879086505185,23.0
14876.879149002398,77.0
14876.87921149961,67.0
14876.879273996823,-146.0
14876.879336494036,-94.0
14876.879398991248,114.0
14876.879461488461,185.0
14876.879523985672,17.0
14876.879586482884,-135.0
14876.879648980097,-22.0
14876.87971147731,-57.0
14876.879773974522,-391.0
14876.879836471735,-588.0
14876.879898968948,-580.0
14876.87996146616,-420.0
14876.880023963373,-70.0
14876.880086460586,277.0
14876.880148957796,480.0
14876.880211455009,614.0
14876.880273952222,454.0
14876.880336449434,164.0
14876.880398946647,295.0
14876.88046144386,441.0
14876.880523941072,234.0
14876.880586438285,183.0
14876.880648935497,387.0
14876.88071143271,340.0
14876.880773929923,195.0
14876.880836427135,154.0
14876.880898924346,147.0
14876.880961421559,284.0
14876.881023918771,216.0
14876.881086415984,95.0
14876.881148913197,300.0
14876.88121141041,482.0
14876.881273907622,600.0
14876.881336404835,664.0
14876.881398902047,644.0
14876.881461399258,544.0
14876.88152389647,380.0
14876.881586393683,267.0
14876.881648890896,193.0
14876.881711388109,186.0
14876.881773885321,72.0
14876.881836382534,-159.0
14876.881898879747,-347.0
14876.88196137696,-405.0
14876.882023874172,-391.0
14876.882086371385,-284.0
14876.882148868597,-24.0
14876.88221136581,75.0
14876.88227386302,-30.0
14876.882336360233,-192.0
14876.882398857446,-200.0
14876.882461354659,28.0
14876.882523851871,61.0
14876.882586349084,-75.0
14876.882648846296,-176.0
14876.882711343509,-236.0
14876.882773840722,-258.0
14876.882836337933,-151.0
14876.882898835145,70.0
14876.882961332358,141.0
14876.88302382957,-60.0
14876.883086326783,-206.0
14876.883148823996,-62.0
14876.883211321208,-3.0
14876.883273818421,-54.0
14876.883336315634,-102.0
14876.883398812846,-29.0
14876.883461310059,13.0
14876.883523807272,-97.0
14876.883586304484,50.0
14876.883648801695,281.0
14876.883711298908,242.0
14876.88377379612,141.0
14876.883836293333,233.0
14876.883898790546,275.0
14876.883961287758,122.0
14876.88402378497,7.0
14876.884086282183,-128.0
14876.884148779396,51.0
14876.884211276607,240.0
14876.88427377382,200.0
14876.884336271032,324.0
14876.884398768245,566.0
14876.884461265458,504.0
14876.88452376267,77.0
14876.884586259883,-183.0
14876.884648757095,-149.0
14876.884711254308,-31.0
14876.88477375152,-22.0
14876.884836248733,97.0
14876.884898745946,228.0
14876.884961243159,60.0
14876.88502374037,96.0
14876.885086237582,409.0
14876.885148734795,595.0
14876.885211232007,408.0
14876.88527372922,20.0
14876.885336226433,51.0
14876.885398723645,225.0
14876.885461220858,195.0
14876.88552371807,244.0
14876.885586215281,394.0
14876.885648712494,487.0
14876.885711209707,426.0
14876.88577370692,321.0
14876.885836204132,380.0
14876.885898701345,394.0
14876.885961198557,151.0
14876.88602369577,-87.0
14876.886086192982,44.0
14876.886148690195,265.0
14876.886211187408,16.0
14876.88627368462,-161.0
14876.886336181831,-124.0
14876.886398679044,-404.0
14876.886461176256,-606.0
14876.88652367347,-508.0
14876.886586170682,-327.0
14876.886648667894,-185.0
14876.886711165107,-286.0
14876.88677366232,-434.0
14876.886836159532,-230.0
14876.886898656745,-183.0
14876.886961153956,-386.0
14876.887023651168,-201.0
14876.887086148381,-5.0
14876.887148645594,58.0
14876.887211142806,-102.0
14876.887273640019,-131.0
14876.887336137232,-187.0
14876.887398634444,-464.0
14876.887461131657,-606.0
14876.88752362887,-596.0
14876.887586126082,-426.0
14876.887648623295,-412.0
