time,X_NOSE,Y_NOSE,Z_NOSE,visibility_NOSE,X_LEFT_EYE_INNER,Y_LEFT_EYE_INNER,Z_LEFT_EYE_INNER,visibility_LEFT_EYE_INNER,X_LEFT_EYE,Y_LEFT_EYE,Z_LEFT_EYE,visibility_LEFT_EYE,X_LEFT_EYE_OUTER,Y_LEFT_EYE_OUTER,Z_LEFT_EYE_OUTER,visibility_LEFT_EYE_OUTER,X_RIGHT_EYE_OUTER,Y_RIGHT_EYE_OUTER,Z_RIGHT_EYE_OUTER,visibility_RIGHT_EYE_OUTER,X_RIGHT_EYE,Y_RIGHT_EYE,Z_RIGHT_EYE,visibility_RIGHT_EYE,X_RIGHT_EYE_OUTER,Y_RIGHT_EYE_OUTER,Z_RIGHT_EYE_OUTER,visibility_RIGHT_EYE_OUTER,X_LEFT_EAR,Y_LEFT_EAR,Z_LEFT_EAR,visibility_LEFT_EAR,X_RIGHT_EAR,Y_RIGHT_EAR,Z_RIGHT_EAR,visibility_RIGHT_EAR,X_MOUTH_LEFT,Y_MOUTH_LEFT,Z_MOUTH_LEFT,visibility_MOUTH_LEFT,X_MOUTH_RIGHT,Y_MOUTH_RIGHT,Z_MOUTH_RIGHT,visibility_MOUTH_RIGHT,X_LEFT_SHOULDER,Y_LEFT_SHOULDER,Z_LEFT_SHOULDER,visibility_LEFT_SHOULDER,X_RIGHT_SHOULDER,Y_RIGHT_SHOULDER,Z_RIGHT_SHOULDER,visibility_RIGHT_SHOULDER,X_LEFT_ELBOW,Y_LEFT_ELBOW,Z_LEFT_ELBOW,visibility_LEFT_ELBOW,X_RIGHT_ELBOW,Y_RIGHT_ELBOW,Z_RIGHT_ELBOW,visibility_RIGHT_ELBOW,X_LEFT_WRIST,Y_LEFT_WRIST,Z_LEFT_WRIST,visibility_LEFT_WRIST,X_RIGHT_WRIST,Y_RIGHT_WRIST,Z_RIGHT_WRIST,visibility_RIGHT_WRIST,X_LEFT_PINKY,Y_LEFT_PINKY,Z_LEFT_PINKY,visibility_LEFT_PINKY,X_RIGHT_PINKY,Y_RIGHT_PINKY,Z_RIGHT_PINKY,visibility_RIGHT_PINKY,X_LEFT_INDEX,Y_LEFT_INDEX,Z_LEFT_INDEX,visibility_LEFT_INDEX,X_RIGHT_INDEX,Y_RIGHT_INDEX,Z_RIGHT_INDEX,visibility_RIGHT_INDEX,X_LEFT_THUMB,Y_LEFT_THUMB,Z_LEFT_THUMB,visibility_LEFT_THUMB,X_RIGHT_THUMB,Y_RIGHT_THUMB,Z_RIGHT_THUMB,visibility_RIGHT_THUMB,X_LEFT_HIP,Y_LEFT_HIP,Z_LEFT_HIP,visibility_LEFT_HIP,X_RIGHT_HIP,Y_RIGHT_HIP,Z_RIGHT_HIP,visibility_RIGHT_HIP,X_LEFT_KNEE,Y_LEFT_KNEE,Z_LEFT_KNEE,visibility_LEFT_KNEE,X_RIGHT_KNEE,Y_RIGHT_KNEE,Z_RIGHT_KNEE,visibility_RIGHT_KNEE,X_LEFT_ANKLE,Y_LEFT_ANKLE,Z_LEFT_ANKLE,visibility_LEFT_ANKLE,X_RIGHT_ANKLE,Y_RIGHT_ANKLE,Z_RIGHT_ANKLE,visibility_RIGHT_ANKLE,X_LEFT_HEEL,Y_LEFT_HEEL,Z_LEFT_HEEL,visibility_LEFT_HEEL,X_RIGHT_HEEL,Y_RIGHT_HEEL,Z_RIGHT_HEEL,visibility_RIGHT_HEEL,X_LEFT_FOOT_INDEX,Y_LEFT_FOOT_INDEX,Z_LEFT_FOOT_INDEX,visibility_LEFT_FOOT_INDEX,X_RIGHT_FOOT_INDEX,Y_RIGHT_FOOT_INDEX,Z_RIGHT_FOOT_INDEX,visibility_RIGHT_FOOT_INDEX
19171.26614297527,0.42500174045562744,0.23300936818122864,-1.009365200996399,0.9999855756759644,0.42952150106430054,0.20844271779060364,-0.9496535062789917,0.9999706745147705,0.4369249939918518,0.20744886994361877,-0.9497637748718262,0.9999654293060303,0.4439205825328827,0.2065172791481018,-0.9497653841972351,0.9999589920043945,0.3983495831489563,0.210580974817276,-0.9784528017044067,0.9999754428863525,0.38168153166770935,0.21103546023368835,-0.9785894155502319,0.9999731779098511,0.3628102242946625,0.21165621280670166,-0.9786808490753174,0.9999711513519287,0.4310484528541565,0.2124929130077362,-0.5902354121208191,0.9999599456787109,0.31284767389297485,0.2205449342727661,-0.7337195873260498,0.9999778270721436,0.4329351484775543,0.2528828978538513,-0.8748243451118469,0.9999898672103882,0.39947983622550964,0.2562321424484253,-0.9150629639625549,0.9999934434890747,0.5220465064048767,0.3428399860858917,-0.3592478334903717,0.9998965263366699,0.1647675782442093,0.36432623863220215,-0.5619978904724121,0.9998370409011841,0.5786904096603394,0.509979784488678,-0.12886066734790802,0.9813122153282166,0.12754525244235992,0.5223351120948792,-0.714155912399292,0.9800724983215332,0.6372080445289612,0.6427193880081177,-0.3997270166873932,0.978646993637085,0.2511792778968811,0.5536665320396423,-1.191529631614685,0.9627435803413391,0.6514437198638916,0.6843563914299011,-0.4940786361694336,0.9614943265914917,0.30703282356262207,0.5644569396972656,-1.3155306577682495,0.9465790390968323,0.6370974779129028,0.6838986873626709,-0.5896293520927429,0.96439129114151,0.31012818217277527,0.5378038287162781,-1.3682161569595337,0.9482476115226746,0.6286739110946655,0.6717939376831055,-0.4419030547142029,0.9658401012420654,0.2945307493209839,0.5306425094604492,-1.2193764448165894,0.9373204112052917,0.4817059636116028,0.6332600116729736,0.0644342303276062,0.9981897473335266,0.3089470863342285,0.6505746841430664,-0.06408247351646423,0.9986889958381653,0.4736616313457489,0.8365758061408997,0.3140796720981598,0.95731121301651,0.3333330750465393,0.8637373447418213,0.14544139802455902,0.9757319092750549,0.47849324345588684,0.9538623094558716,1.1140553951263428,0.8926870822906494,0.35114026069641113,0.9814295172691345,0.7996947169303894,0.921481192111969,0.45703309774398804,0.9647810459136963,1.1745713949203491,0.8534678220748901,0.3528553545475006,0.9856560826301575,0.8512203693389893,0.7404212355613708,0.5378879308700562,1.0197765827178955,0.8989059925079346,0.8479323387145996,0.36322781443595886,1.0753974914550781,0.4792310893535614,0.8238874077796936
19187.932809641938,0.4229320287704468,0.23069244623184204,-0.9873731732368469,0.9999765157699585,0.42891111969947815,0.2065420150756836,-0.925930917263031,0.9999533891677856,0.4367365539073944,0.20565956830978394,-0.9260590076446533,0.999945878982544,0.4440752863883972,0.20480585098266602,-0.9260901212692261,0.9999372959136963,0.39676645398139954,0.20835164189338684,-0.9569262266159058,0.9999604225158691,0.379972904920578,0.20887857675552368,-0.9570536613464355,0.9999563694000244,0.36126673221588135,0.20963507890701294,-0.9571970105171204,0.9999539852142334,0.4324311316013336,0.21132704615592957,-0.553317666053772,0.9999366998672485,0.3136868178844452,0.2188512086868286,-0.7050951719284058,0.9999648332595825,0.4310718774795532,0.251827597618103,-0.8471547365188599,0.9999843835830688,0.3956584632396698,0.25458788871765137,-0.8899323344230652,0.9999901056289673,0.5192809700965881,0.3415966331958771,-0.30265578627586365,0.9998688697814941,0.16802553832530975,0.36339816451072693,-0.5335700511932373,0.9997753500938416,0.5769985318183899,0.5074767470359802,-0.07286369055509567,0.9783505797386169,0.12868250906467438,0.5164942741394043,-0.6699188351631165,0.9762160778045654,0.6302763819694519,0.6395832896232605,-0.3633556365966797,0.9732840657234192,0.2520882785320282,0.5551274418830872,-1.1318796873092651,0.9500225782394409,0.6492940783500671,0.6819035410881042,-0.46082204580307007,0.9535695910453796,0.3059675991535187,0.5649195313453674,-1.2521183490753174,0.9305616021156311,0.6318892240524292,0.6822556853294373,-0.556063711643219,0.9572064280509949,0.3117949068546295,0.539340078830719,-1.3120839595794678,0.9331399202346802,0.6207325458526611,0.6694952845573425,-0.4061017632484436,0.9583093523979187,0.2960751950740814,0.5322421193122864,-1.1613452434539795,0.9197450876235962,0.48204120993614197,0.6339551210403442,0.08062244951725006,0.9969475865364075,0.3090415298938751,0.6539724469184875,-0.0802367553114891,0.9977370500564575,0.4790847599506378,0.8378293514251709,0.2388322800397873,0.9539192914962769,0.3393779993057251,0.8696351647377014,0.04505761340260506,0.9699093103408813,0.4839429259300232,0.9645645618438721,1.0034667253494263,0.8848060369491577,0.35964927077293396,0.9902090430259705,0.6600192785263062,0.905716061592102,0.4658324718475342,0.9728969931602478,1.058003544807434,0.8271641731262207,0.35649412870407104,0.9905369281768799,0.7051494717597961,0.6769402623176575,0.5352861285209656,1.0238696336746216,0.7559769749641418,0.829435408115387,0.3749968409538269,1.0909934043884277,0.3037256896495819,0.7946382761001587
19204.599476308606,0.4238821268081665,0.2327074408531189,-0.9807095527648926,0.9999722242355347,0.4304451048374176,0.20882675051689148,-0.9203137755393982,0.9999455213546753,0.43863898515701294,0.20785152912139893,-0.9204459190368652,0.9999374151229858,0.44589895009994507,0.20692205429077148,-0.9204837679862976,0.9999271631240845,0.3982115387916565,0.21078357100486755,-0.9512133598327637,0.9999517202377319,0.38086721301078796,0.21133199334144592,-0.9513366222381592,0.9999469518661499,0.3622601628303528,0.21193557977676392,-0.9514797329902649,0.9999436140060425,0.43546685576438904,0.21328327059745789,-0.552748441696167,0.9999289512634277,0.31397783756256104,0.22133055329322815,-0.703560471534729,0.9999568462371826,0.43346285820007324,0.25347769260406494,-0.8421416282653809,0.9999828338623047,0.3978281021118164,0.2560711205005646,-0.8846243023872375,0.9999889135360718,0.5221572518348694,0.3433748185634613,-0.30378004908561707,0.9998770952224731,0.1694037914276123,0.3639822006225586,-0.5346259474754333,0.9997531771659851,0.5785564184188843,0.5093867778778076,-0.07192390412092209,0.9793283343315125,0.12756945192813873,0.5212351679801941,-0.6682928204536438,0.9759413003921509,0.6322358846664429,0.640294075012207,-0.36162856221199036,0.9764236807823181,0.2647157609462738,0.5584515929222107,-1.1234242916107178,0.9517762064933777,0.6500144600868225,0.6825069785118103,-0.4595749080181122,0.9590374827384949,0.3176448345184326,0.566076397895813,-1.2432663440704346,0.9332504868507385,0.6333011388778687,0.6823086142539978,-0.5550190210342407,0.9622747302055359,0.3225131630897522,0.5402603149414062,-1.2994372844696045,0.9354216456413269,0.6231659054756165,0.6697788834571838,-0.4042988121509552,0.9631567597389221,0.30660557746887207,0.5337703824043274,-1.1509003639221191,0.9217342734336853,0.48007655143737793,0.6372094750404358,0.0826936662197113,0.996976375579834,0.30739542841911316,0.6549779176712036,-0.08228431642055511,0.9976035952568054,0.4750213027000427,0.841826856136322,0.22038455307483673,0.9487563967704773,0.3358607292175293,0.8725805282592773,0.03399236872792244,0.9676496386528015,0.48592573404312134,0.9627891182899475,1.0115551948547363,0.8636188507080078,0.3531041145324707,0.9912017583847046,0.6640511751174927,0.8924830555915833,0.46711644530296326,0.971091628074646,1.0693140029907227,0.8022667765617371,0.3524686098098755,0.9905046224594116,0.7115489840507507,0.6602221727371216,0.5361047983169556,1.0269516706466675,0.7720246911048889,0.7993535399436951,0.3727875053882599,1.0916424989700317,0.31447485089302063,0.7690243124961853
19221.266142975273,0.42410939931869507,0.23338156938552856,-0.9972732067108154,0.9999778270721436,0.43054234981536865,0.20878535509109497,-0.9380396008491516,0.9999550580978394,0.43844643235206604,0.20775315165519714,-0.9381694793701172,0.9999462366104126,0.44565606117248535,0.20672354102134705,-0.9381871223449707,0.9999382495880127,0.3979024291038513,0.21091222763061523,-0.9687302112579346,0.9999607801437378,0.3804444670677185,0.21138539910316467,-0.9688594341278076,0.9999561309814453,0.3613276481628418,0.2120206356048584,-0.9689844250679016,0.9999537467956543,0.43421515822410583,0.21237337589263916,-0.5716286301612854,0.9999346733093262,0.3125659227371216,0.220810204744339,-0.7227084636688232,0.9999648332595825,0.43298888206481934,0.25356510281562805,-0.8589682579040527,0.9999854564666748,0.3976553678512573,0.25645482540130615,-0.9013769030570984,0.9999909400939941,0.5212961435317993,0.34383729100227356,-0.31963127851486206,0.9998911619186401,0.16853708028793335,0.36119669675827026,-0.5626958608627319,0.9998145699501038,0.578697919845581,0.5096776485443115,-0.08232501894235611,0.9784353971481323,0.12490484863519669,0.5214207172393799,-0.6830177307128906,0.97856205701828,0.6331773996353149,0.6390092968940735,-0.36798426508903503,0.9773792028427124,0.2652629613876343,0.5613117814064026,-1.1154804229736328,0.9529396891593933,0.6507347822189331,0.6824209094047546,-0.4668384790420532,0.9607787132263184,0.3174760639667511,0.5701409578323364,-1.23538339138031,0.9349554181098938,0.6336140632629395,0.6820763349533081,-0.5624662041664124,0.9639720320701599,0.3286508321762085,0.5466108918190002,-1.2945350408554077,0.937475860118866,0.622783899307251,0.6695622205734253,-0.41107800602912903,0.965171217918396,0.3083769679069519,0.5397008061408997,-1.1440306901931763,0.9254652857780457,0.48075953125953674,0.6385751962661743,0.08924867957830429,0.9975926280021667,0.309793621301651,0.6567731499671936,-0.08888105303049088,0.9980852603912354,0.4776252806186676,0.8383181095123291,0.28996166586875916,0.9309630393981934,0.33682090044021606,0.8707485198974609,0.07894259691238403,0.9658187627792358,0.47834938764572144,0.9602958559989929,1.0792877674102783,0.8386687636375427,0.352691113948822,0.9887547492980957,0.7197766304016113,0.8860482573509216,0.45433610677719116,0.9705083966255188,1.1390057802200317,0.8072279095649719,0.349741131067276,0.9903835654258728,0.7697598934173584,0.671825647354126,0.5371684432029724,1.0255224704742432,0.8616271018981934,0.7925540208816528,0.38210418820381165,1.0882561206817627,0.3876882493495941,0.7653000354766846
19237.93280964194,0.4254370629787445,0.23420679569244385,-0.9666858315467834,0.999987006187439,0.43143895268440247,0.20998740196228027,-0.9087724089622498,0.9999724626541138,0.43915778398513794,0.209102600812912,-0.9088519215583801,0.9999669790267944,0.4461890161037445,0.20828047394752502,-0.9088205099105835,0.9999613761901855,0.40054452419281006,0.21169918775558472,-0.94256991147995,0.9999779462814331,0.3840141296386719,0.21200090646743774,-0.9426696300506592,0.9999761581420898,0.36505335569381714,0.212409108877182,-0.9427469968795776,0.9999746084213257,0.4334719777107239,0.214250385761261,-0.5576316714286804,0.9999583959579468,0.3141198754310608,0.2211022675037384,-0.7222269773483276,0.9999804496765137,0.4338501989841461,0.25474226474761963,-0.8344058394432068,0.9999909400939941,0.40012675523757935,0.25723496079444885,-0.8806990385055542,0.9999947547912598,0.5199826955795288,0.3428407311439514,-0.31934335827827454,0.9999053478240967,0.16490256786346436,0.3638767600059509,-0.5789751410484314,0.9998732805252075,0.5772973895072937,0.5077745318412781,-0.08105730265378952,0.9781714081764221,0.1267678141593933,0.5232431888580322,-0.7100196480751038,0.9834579229354858,0.6369256973266602,0.6370187997817993,-0.3442480266094208,0.9783651828765869,0.2595839500427246,0.5595921277999878,-1.1185119152069092,0.9666785001754761,0.6540747880935669,0.6812776923179626,-0.4359661340713501,0.9622411727905273,0.3132959008216858,0.5687510967254639,-1.2352149486541748,0.9523422718048096,0.6387443542480469,0.6799960136413574,-0.5298293232917786,0.9653523564338684,0.31957846879959106,0.5438947081565857,-1.2905453443527222,0.9541112184524536,0.6289297342300415,0.6680558919906616,-0.3865656554698944,0.9663106799125671,0.3029855489730835,0.5371885895729065,-1.14536452293396,0.9437194466590881,0.4822233021259308,0.6359150409698486,0.09538628906011581,0.9982038736343384,0.3124372661113739,0.6549241542816162,-0.09510895609855652,0.9986671209335327,0.4764223098754883,0.833607017993927,0.3743920922279358,0.9572895765304565,0.3395427465438843,0.8628352880477905,0.13152576982975006,0.9819782376289368,0.4794798493385315,0.9526586532592773,1.1434348821640015,0.9076359868049622,0.35011619329452515,0.9843433499336243,0.7634915709495544,0.9372608065605164,0.45762789249420166,0.9648349285125732,1.202231764793396,0.8728206753730774,0.34686779975891113,0.9874353408813477,0.814014196395874,0.7808576822280884,0.5389950275421143,1.017228603363037,0.9423477649688721,0.875360369682312,0.3891776502132416,1.073772668838501,0.4548974931240082,0.8540486097335815
19254.59947630861,0.4243581295013428,0.23073697090148926,-0.9170849323272705,0.9999665021896362,0.4301488697528839,0.2065201997756958,-0.8560289144515991,0.9999319314956665,0.4377870559692383,0.20544683933258057,-0.8561928272247314,0.999921441078186,0.4449247121810913,0.20463958382606506,-0.8562374114990234,0.9999101161956787,0.39841824769973755,0.2086317241191864,-0.8869508504867554,0.9999394416809082,0.3819255828857422,0.2093164622783661,-0.8870880603790283,0.9999347925186157,0.3626212179660797,0.21022966504096985,-0.8872438669204712,0.9999306201934814,0.43257787823677063,0.21124142408370972,-0.4971510171890259,0.999913215637207,0.3139449954032898,0.21984469890594482,-0.647284746170044,0.9999465942382812,0.4325093626976013,0.25180527567863464,-0.7825345396995544,0.9999812841415405,0.3979940116405487,0.25507307052612305,-0.8247794508934021,0.9999878406524658,0.5208370089530945,0.3420153558254242,-0.2649991810321808,0.9998921155929565,0.1677449494600296,0.3639610707759857,-0.4984808564186096,0.9997537732124329,0.5795148611068726,0.5064277052879333,-0.0330779142677784,0.9807664155960083,0.1253434419631958,0.5228062272071838,-0.6434115171432495,0.9777083992958069,0.6345729827880859,0.637381911277771,-0.3087082803249359,0.9808016419410706,0.2500285804271698,0.5562667846679688,-1.0996193885803223,0.9559998512268066,0.6509947776794434,0.6813464760780334,-0.40614429116249084,0.9663717150688171,0.30996450781822205,0.5649358034133911,-1.2201666831970215,0.9392104744911194,0.634114682674408,0.6796438694000244,-0.4979824125766754,0.9691914916038513,0.31187185645103455,0.5381028056144714,-1.2764183282852173,0.9413960576057434,0.6245546936988831,0.6672990322113037,-0.3494391143321991,0.9694792032241821,0.2944219410419464,0.5313313007354736,-1.1277648210525513,0.9288710951805115,0.4856472909450531,0.6370915770530701,0.09003645181655884,0.9977161884307861,0.31211113929748535,0.6570360660552979,-0.08965396881103516,0.9980757236480713,0.4797731339931488,0.8409204483032227,0.25027796626091003,0.9507718682289124,0.340326726436615,0.8761012554168701,0.06239164620637894,0.9690977334976196,0.48217082023620605,0.959126353263855,1.1003693342208862,0.8643126487731934,0.3547252118587494,0.9863214492797852,0.7371814250946045,0.8948768973350525,0.45988282561302185,0.9685388803482056,1.1666367053985596,0.8110204339027405,0.3552205562591553,0.9866589307785034,0.7909948229789734,0.6691061854362488,0.5323936343193054,1.023744821548462,0.8907377123832703,0.8126969933509827,0.3908565640449524,1.0870530605316162,0.40898045897483826,0.7783657312393188
19271.266142975277,0.4255751967430115,0.22997960448265076,-0.9996387362480164,0.9999752044677734,0.43064960837364197,0.20601734519004822,-0.9357681274414062,0.9999521970748901,0.4381988048553467,0.20511937141418457,-0.9359260201454163,0.9999439716339111,0.44527682662010193,0.20427408814430237,-0.9359374642372131,0.9999349117279053,0.3985772132873535,0.20813453197479248,-0.9662399291992188,0.999957799911499,0.3816074728965759,0.20872095227241516,-0.9663548469543457,0.9999535083770752,0.36253228783607483,0.20958825945854187,-0.9665032625198364,0.9999500513076782,0.4324224293231964,0.2109258472919464,-0.5558907389640808,0.9999364614486694,0.3130438029766083,0.21880275011062622,-0.7038933634757996,0.9999626874923706,0.4339039921760559,0.25037267804145813,-0.8576202392578125,0.9999842643737793,0.3984431028366089,0.25379955768585205,-0.8992598652839661,0.99998939037323,0.5217238664627075,0.3422420024871826,-0.29915809631347656,0.999876856803894,0.16896891593933105,0.36443787813186646,-0.5381842851638794,0.999756395816803,0.5761805772781372,0.5065217018127441,-0.06658332794904709,0.978118360042572,0.1359860897064209,0.5205261707305908,-0.6949899196624756,0.9744799733161926,0.6322751045227051,0.6402642726898193,-0.3631771504878998,0.974739134311676,0.24434353411197662,0.5542253851890564,-1.195915699005127,0.9559499621391296,0.649394154548645,0.6819697618484497,-0.46228116750717163,0.9560569524765015,0.29582324624061584,0.5654784440994263,-1.3243117332458496,0.9398375153541565,0.632581353187561,0.6822585463523865,-0.5583489537239075,0.9595004320144653,0.300709068775177,0.5390487909317017,-1.3878490924835205,0.9423929452896118,0.6213762760162354,0.6691092252731323,-0.40641674399375916,0.9606616497039795,0.28492164611816406,0.5320035219192505,-1.2282967567443848,0.9302270412445068,0.4809124171733856,0.635567843914032,0.08392251282930374,0.9978064894676208,0.3099897503852844,0.6550491452217102,-0.08351645618677139,0.9982362985610962,0.47767138481140137,0.8368812203407288,0.27705153822898865,0.9550669193267822,0.3371770977973938,0.8686106204986572,0.08175439387559891,0.9704297184944153,0.48193609714508057,0.96445232629776,1.070825219154358,0.8885892033576965,0.35490846633911133,0.9881422519683838,0.7318057417869568,0.9062172174453735,0.4623386561870575,0.9727751612663269,1.1281445026397705,0.8387530446052551,0.3509219288825989,0.9892550110816956,0.7810079455375671,0.6964976787567139,0.5350433588027954,1.024519920349121,0.823077380657196,0.8332956433296204,0.37058964371681213,1.086201548576355,0.3813697397708893,0.7980663776397705
19287.932809641945,0.4236374497413635,0.2322556972503662,-0.96527099609375,0.9999600648880005,0.4304191768169403,0.20837080478668213,-0.9034107327461243,0.9999222755432129,0.4383194148540497,0.20743495225906372,-0.9036158323287964,0.9999113082885742,0.44577041268348694,0.20650354027748108,-0.9037320017814636,0.9998983144760132,0.3978361487388611,0.2102058231830597,-0.9344585537910461,0.9999305009841919,0.380787193775177,0.21055129170417786,-0.9345852732658386,0.9999229907989502,0.36192336678504944,0.2110484540462494,-0.9347450733184814,0.9999196529388428,0.4349384903907776,0.2126358449459076,-0.5304186344146729,0.999908447265625,0.31365135312080383,0.21941888332366943,-0.6800367832183838,0.9999402761459351,0.4326118230819702,0.25272294878959656,-0.8242349028587341,0.9999759197235107,0.39700794219970703,0.2554357647895813,-0.8665931224822998,0.9999830722808838,0.5206807255744934,0.342603474855423,-0.290204256772995,0.9998403787612915,0.16478610038757324,0.3639383018016815,-0.49408912658691406,0.9996625185012817,0.5772173404693604,0.5081286430358887,-0.06929989159107208,0.9756410717964172,0.13322512805461884,0.522595226764679,-0.6286217570304871,0.9671093821525574,0.6310956478118896,0.6437015533447266,-0.3719750940799713,0.9655168056488037,0.2463114708662033,0.5544205904006958,-1.1182339191436768,0.9437565207481384,0.6481282711029053,0.6846036911010742,-0.47275784611701965,0.9426096081733704,0.30155500769615173,0.5644696354866028,-1.240705132484436,0.925175130367279,0.6324821710586548,0.6849401593208313,-0.5704282522201538,0.9470650553703308,0.3059222996234894,0.5381777286529541,-1.3044614791870117,0.9282999038696289,0.6212671995162964,0.6722357869148254,-0.4161750376224518,0.9493472576141357,0.2886202931404114,0.5309712290763855,-1.1499236822128296,0.9127267003059387,0.47978124022483826,0.6379791498184204,0.05861363187432289,0.9969114661216736,0.30390751361846924,0.6546161770820618,-0.05819597840309143,0.9973459243774414,0.4706977605819702,0.8508416414260864,0.1753263771533966,0.9579641819000244,0.3326787054538727,0.8709754347801208,0.05432974547147751,0.9594267010688782,0.48388218879699707,0.9711213111877441,0.9782751798629761,0.8679003715515137,0.3579898178577423,0.9917666912078857,0.7012166380882263,0.874484121799469,0.4676661193370819,0.97689288854599,1.0359251499176025,0.7864525318145752,0.3591029644012451,0.9931719899177551,0.749579131603241,0.6289910078048706,0.5294826626777649,1.0358083248138428,0.7195168733596802,0.7960386276245117,0.3599231243133545,1.0938808917999268,0.344718873500824,0.7551800608634949
19304.599476308613,0.42490363121032715,0.23310399055480957,-0.9860232472419739,0.9999653100967407,0.42934221029281616,0.20981013774871826,-0.9289267659187317,0.9999295473098755,0.43672919273376465,0.20894509553909302,-0.9290705323219299,0.9999181032180786,0.44373762607574463,0.20818501710891724,-0.9291417002677917,0.9999074935913086,0.39819100499153137,0.21116125583648682,-0.9597923755645752,0.9999390840530396,0.38164693117141724,0.21124619245529175,-0.9599161744117737,0.9999319314956665,0.36252957582473755,0.21153414249420166,-0.9600680470466614,0.9999288320541382,0.4302588105201721,0.2140388786792755,-0.5747460722923279,0.9999088048934937,0.3131958544254303,0.21998342871665955,-0.7254811525344849,0.9999468326568604,0.4322614073753357,0.25405633449554443,-0.8515217304229736,0.9999784231185913,0.3991851508617401,0.2566784918308258,-0.894016683101654,0.9999858140945435,0.5192089676856995,0.34112465381622314,-0.3365538716316223,0.9998551607131958,0.1684432029724121,0.3630509376525879,-0.5561299920082092,0.9997300505638123,0.5786820650100708,0.5082651972770691,-0.09966842830181122,0.9790467619895935,0.12668214738368988,0.5231087803840637,-0.6612266898155212,0.9751583933830261,0.6335170269012451,0.6435377597808838,-0.36598318815231323,0.9741297364234924,0.2664921283721924,0.5581451058387756,-1.0704129934310913,0.948306679725647,0.6507031917572021,0.6862987279891968,-0.46282491087913513,0.9552735686302185,0.31846797466278076,0.5679383873939514,-1.1844900846481323,0.9292258620262146,0.6334649324417114,0.6862355470657349,-0.5572303533554077,0.9587871432304382,0.32428812980651855,0.5428844690322876,-1.2465848922729492,0.9319398999214172,0.6226155757904053,0.6732701063156128,-0.4079047441482544,0.9607815742492676,0.3080201745033264,0.5359761118888855,-1.0994510650634766,0.918837308883667,0.48208633065223694,0.6358048915863037,0.06760948896408081,0.9970905780792236,0.30715081095695496,0.6525487899780273,-0.0672113224864006,0.9976262450218201,0.47187384963035583,0.8450003266334534,0.245524600148201,0.9457352161407471,0.332335501909256,0.8672276735305786,0.08884090185165405,0.9629944562911987,0.47917866706848145,0.9645119905471802,1.0264226198196411,0.8518763780593872,0.35373055934906006,0.9875604510307312,0.7190242409706116,0.8802311420440674,0.4583664834499359,0.9722442626953125,1.0841138362884521,0.8001481890678406,0.35293880105018616,0.9892727136611938,0.7677584290504456,0.6617065072059631,0.5302436947822571,1.0277376174926758,0.7996007204055786,0.7857107520103455,0.3645530045032501,1.0871963500976562,0.3876846730709076,0.7533742189407349
19321.26614297528,0.4239254593849182,0.23302319645881653,-1.0134716033935547,0.9999773502349854,0.42831486463546753,0.21016323566436768,-0.954811692237854,0.9999537467956543,0.4357278645038605,0.20923474431037903,-0.9549283385276794,0.999947190284729,0.4427398443222046,0.2085222601890564,-0.9549496173858643,0.9999390840530396,0.3975675106048584,0.21121075749397278,-0.9858813881874084,0.9999587535858154,0.3816298842430115,0.21121466159820557,-0.986001193523407,0.9999545812606812,0.363122820854187,0.21151697635650635,-0.9861337542533875,0.9999513626098633,0.43017491698265076,0.21428999304771423,-0.585454523563385,0.9999382495880127,0.3153119385242462,0.21972855925559998,-0.7364172339439392,0.9999608993530273,0.43131887912750244,0.25414523482322693,-0.8731155395507812,0.9999853372573853,0.39770641922950745,0.25645071268081665,-0.9157754182815552,0.9999903440475464,0.5187807083129883,0.3424791693687439,-0.3262062072753906,0.9998970031738281,0.17143069207668304,0.36251237988471985,-0.5624526143074036,0.9997814297676086,0.5773506760597229,0.5076592564582825,-0.09616314619779587,0.9804843068122864,0.13121537864208221,0.5235311388969421,-0.6886922717094421,0.9753369688987732,0.6328978538513184,0.6421566605567932,-0.39363864064216614,0.9760762453079224,0.26454320549964905,0.5595409870147705,-1.1349871158599854,0.9473850727081299,0.6494150161743164,0.6832662224769592,-0.4932161271572113,0.9576692581176758,0.31838810443878174,0.5661805272102356,-1.2553939819335938,0.9272780418395996,0.6330642104148865,0.6825857162475586,-0.5902627110481262,0.9612428545951843,0.32110610604286194,0.5414033532142639,-1.3146306276321411,0.9296892285346985,0.622408390045166,0.6703084707260132,-0.4374462366104126,0.9620455503463745,0.3040042519569397,0.5349512100219727,-1.1637325286865234,0.9142358899116516,0.48022183775901794,0.6328986883163452,0.08699798583984375,0.9971675276756287,0.30970555543899536,0.6517814993858337,-0.08662724494934082,0.997681736946106,0.4800073206424713,0.8329133987426758,0.2579740881919861,0.9554616212844849,0.33940476179122925,0.8655939102172852,0.053151458501815796,0.974908173084259,0.4838041365146637,0.9631897807121277,1.0344163179397583,0.8942040801048279,0.35737666487693787,0.9877105951309204,0.6792895197868347,0.9189757108688354,0.4662199020385742,0.9719988703727722,1.0906034708023071,0.8330983519554138,0.3559480309486389,0.9882566332817078,0.7260484099388123,0.7036672830581665,0.5330862402915955,1.0241174697875977,0.78777015209198,0.8491329550743103,0.3827013373374939,1.0877190828323364,0.3260148763656616,0.8210024237632751
19337.93280964195,0.42577627301216125,0.2327021062374115,-1.0021405220031738,0.9999731779098511,0.4294445514678955,0.2101174294948578,-0.9432676434516907,0.999946117401123,0.4366733729839325,0.20920169353485107,-0.9433906674385071,0.9999386072158813,0.4434097707271576,0.20865458250045776,-0.9434186220169067,0.9999293088912964,0.3993503451347351,0.21100428700447083,-0.9776385426521301,0.9999536275863647,0.3835821747779846,0.21093913912773132,-0.9777748584747314,0.9999489784240723,0.36451709270477295,0.21131852269172668,-0.9779407382011414,0.9999457597732544,0.42986202239990234,0.21477359533309937,-0.5728603601455688,0.9999313354492188,0.31516754627227783,0.2194150984287262,-0.7385427951812744,0.9999585151672363,0.4323934316635132,0.2539854943752289,-0.8609811067581177,0.9999836683273315,0.3999660313129425,0.2566027343273163,-0.9079124331474304,0.9999895095825195,0.5187230706214905,0.3428039252758026,-0.31039130687713623,0.9998888969421387,0.17030112445354462,0.3634489178657532,-0.5677379369735718,0.9997808337211609,0.5768086910247803,0.5071743130683899,-0.07800020277500153,0.9800921678543091,0.13140948116779327,0.5226233005523682,-0.6979063153266907,0.9770848751068115,0.6323726177215576,0.6426662802696228,-0.38268065452575684,0.9757212400436401,0.26171600818634033,0.5581526160240173,-1.1478216648101807,0.9498477578163147,0.6488176584243774,0.6826008558273315,-0.48315420746803284,0.9571406841278076,0.31642836332321167,0.5655087828636169,-1.2688924074172974,0.9308140873908997,0.6318970918655396,0.6817588806152344,-0.5798877477645874,0.9608210921287537,0.3197154402732849,0.540365993976593,-1.3299601078033447,0.933181881904602,0.6213762760162354,0.6697248220443726,-0.42640554904937744,0.9613462090492249,0.3025556206703186,0.5337107181549072,-1.1770879030227661,0.9175029397010803,0.48279646039009094,0.6327933073043823,0.09194839745759964,0.9967104196548462,0.31131860613822937,0.6527374982833862,-0.09153740853071213,0.9975166320800781,0.47872838377952576,0.8339086771011353,0.2592436969280243,0.9550881385803223,0.3403245508670807,0.8673142194747925,0.03974441811442375,0.9734811782836914,0.4831787049770355,0.9608468413352966,1.0324138402938843,0.8905389308929443,0.3561426103115082,0.9890179634094238,0.6604734659194946,0.9142352938652039,0.46428242325782776,0.96923828125,1.0883628129959106,0.8343976736068726,0.3542230427265167,0.9904875755310059,0.7063291072845459,0.6885926723480225,0.5316153168678284,1.023301124572754,0.7860435843467712,0.8458824753761292,0.3834261894226074,1.092048168182373,0.3008185625076294,0.8093966841697693
19354.599476308616,0.42481693625450134,0.23216333985328674,-0.9930834770202637,0.9999749660491943,0.4287986159324646,0.20908039808273315,-0.930391788482666,0.9999499320983887,0.4362669587135315,0.20806193351745605,-0.9305227398872375,0.9999420642852783,0.4431409239768982,0.20740222930908203,-0.9305135607719421,0.9999313354492188,0.39816170930862427,0.2102707028388977,-0.9631106853485107,0.9999576807022095,0.3822188377380371,0.21031537652015686,-0.9632496237754822,0.999954104423523,0.36375218629837036,0.21073317527770996,-0.9634251594543457,0.9999510049819946,0.43009495735168457,0.21391785144805908,-0.5540238618850708,0.9999351501464844,0.31544697284698486,0.21911460161209106,-0.7124577164649963,0.9999622106552124,0.43211886286735535,0.25340381264686584,-0.8517012596130371,0.9999845027923584,0.39953500032424927,0.2558158338069916,-0.896500825881958,0.9999902248382568,0.5209709405899048,0.3429708182811737,-0.2969609797000885,0.9998849630355835,0.16948460042476654,0.3641410768032074,-0.5415955185890198,0.999783456325531,0.5775561928749084,0.5087111592292786,-0.057195644825696945,0.9810042977333069,0.1289009153842926,0.5234248638153076,-0.7022325992584229,0.9788803458213806,0.6318705081939697,0.6418319940567017,-0.3592505156993866,0.9788237810134888,0.24822483956813812,0.5557171106338501,-1.2082674503326416,0.96108078956604,0.6484771370887756,0.6813273429870605,-0.45857203006744385,0.9621947407722473,0.30284470319747925,0.5651575326919556,-1.3360453844070435,0.9449516534805298,0.6315598487854004,0.680274248123169,-0.5549750924110413,0.965326726436615,0.3053240180015564,0.5381659865379333,-1.3947361707687378,0.946749210357666,0.621150016784668,0.6686711311340332,-0.40238457918167114,0.9657173156738281,0.2881123423576355,0.5312322378158569,-1.2379094362258911,0.9329837560653687,0.48231241106987,0.6352589726448059,0.08519502729177475,0.997718095779419,0.3078154921531677,0.6545224785804749,-0.08478598296642303,0.9982847571372986,0.4780791401863098,0.8341832756996155,0.2527143955230713,0.9633330702781677,0.33802127838134766,0.8671743869781494,0.06427142769098282,0.9745328426361084,0.48136213421821594,0.9593276381492615,1.0905429124832153,0.904619574546814,0.3551773428916931,0.9885706901550293,0.7369085550308228,0.9224387407302856,0.46261411905288696,0.9675024151802063,1.1531180143356323,0.854849100112915,0.35567742586135864,0.9885709285736084,0.7883995771408081,0.7150715589523315,0.5289042592048645,1.0231680870056152,0.8499895334243774,0.8622793555259705,0.3754621148109436,1.085831642150879,0.3829587996006012,0.8270906209945679
19371.266142975284,0.4279593527317047,0.23273688554763794,-0.9555668234825134,0.9999669790267944,0.432638019323349,0.20963960886001587,-0.8967831134796143,0.999933123588562,0.4397469162940979,0.20871150493621826,-0.896916925907135,0.9999204874038696,0.44626542925834656,0.20817935466766357,-0.8969622254371643,0.999909520149231,0.402800977230072,0.21063178777694702,-0.9338946342468262,0.9999427795410156,0.3868825435638428,0.21060830354690552,-0.9340150952339172,0.9999374151229858,0.36717382073402405,0.21100816130638123,-0.9341683387756348,0.9999347925186157,0.43116071820259094,0.2141622006893158,-0.5325980186462402,0.9999070167541504,0.31498172879219055,0.2190188467502594,-0.7111448049545288,0.9999525547027588,0.43325328826904297,0.2538450360298157,-0.8165945410728455,0.9999810457229614,0.40098804235458374,0.257012277841568,-0.8671395182609558,0.9999881982803345,0.5169083476066589,0.341700941324234,-0.2729329466819763,0.9998902082443237,0.16834376752376556,0.363097608089447,-0.5556842088699341,0.9998075366020203,0.5758695006370544,0.5058515667915344,-0.026942940428853035,0.9771527051925659,0.1275070458650589,0.5217762589454651,-0.670795202255249,0.9805322289466858,0.630562424659729,0.636638343334198,-0.31432729959487915,0.975113034248352,0.25075626373291016,0.5558072924613953,-1.0923665761947632,0.9628499746322632,0.6482726335525513,0.6810714602470398,-0.41136860847473145,0.957180917263031,0.30656397342681885,0.5661609768867493,-1.2108986377716064,0.9482020735740662,0.631144106388092,0.6809420585632324,-0.5051944851875305,0.9609463214874268,0.30974388122558594,0.5410950779914856,-1.2733428478240967,0.9504497647285461,0.6196988821029663,0.6683619022369385,-0.357149600982666,0.9620236754417419,0.29298901557922363,0.5340089201927185,-1.1216274499893188,0.938286304473877,0.48024821281433105,0.6344356536865234,0.09719626605510712,0.997728168964386,0.3116416037082672,0.6525962948799133,-0.09687378257513046,0.9980006814002991,0.4772082269191742,0.8396292328834534,0.26152926683425903,0.9396567344665527,0.33926668763160706,0.867979884147644,0.04813919961452484,0.9633342623710632,0.48157811164855957,0.9631849527359009,1.0619163513183594,0.8514032363891602,0.3554726243019104,0.9847380518913269,0.7005056738853455,0.8839104175567627,0.46171820163726807,0.9718450307846069,1.1221168041229248,0.804264485836029,0.3508688807487488,0.9869881868362427,0.7515367269515991,0.6613926291465759,0.5373950600624084,1.0243103504180908,0.8368655443191528,0.8027790188789368,0.38550272583961487,1.084788203239441,0.364334374666214,0.7705690264701843
19387.932809641952,0.42263755202293396,0.2354452908039093,-0.9211540222167969,0.9999743700027466,0.42912063002586365,0.21214905381202698,-0.8654643893241882,0.9999455213546753,0.4367826282978058,0.2113032341003418,-0.8655710816383362,0.9999361038208008,0.4438621699810028,0.21078896522521973,-0.8655993938446045,0.9999271631240845,0.3978939950466156,0.2129409909248352,-0.899758517742157,0.999954104423523,0.38144391775131226,0.212907075881958,-0.8998755216598511,0.9999499320983887,0.3623139262199402,0.21327397227287292,-0.900046706199646,0.9999470710754395,0.4320796728134155,0.21717730164527893,-0.5156426429748535,0.9999306201934814,0.31353074312210083,0.22145995497703552,-0.6821722984313965,0.9999600648880005,0.4290861189365387,0.25738996267318726,-0.7874194383621216,0.9999853372573853,0.39576128125190735,0.25958162546157837,-0.834600567817688,0.9999908208847046,0.5183157920837402,0.34479188919067383,-0.2751271426677704,0.9999043941497803,0.17092712223529816,0.3630523681640625,-0.5256704092025757,0.999808132648468,0.5742933750152588,0.5074937343597412,-0.023089701309800148,0.9825056791305542,0.1296394318342209,0.5199248194694519,-0.6656298041343689,0.9782469868659973,0.6308518648147583,0.6388707756996155,-0.2760851979255676,0.9822036027908325,0.2572333514690399,0.5572247505187988,-1.111030101776123,0.9588649272918701,0.6481336355209351,0.6816145777702332,-0.3679688274860382,0.968303382396698,0.3123542070388794,0.5679805874824524,-1.2276089191436768,0.944247305393219,0.629420280456543,0.6812645196914673,-0.45999395847320557,0.9709475040435791,0.32051071524620056,0.5441851019859314,-1.2888703346252441,0.9463953375816345,0.6187748908996582,0.6687403917312622,-0.31621140241622925,0.9711875319480896,0.3043520450592041,0.537053644657135,-1.140293836593628,0.9341369867324829,0.4831656515598297,0.6347538828849792,0.08109642565250397,0.9977380037307739,0.31100529432296753,0.6550042629241943,-0.0807318240404129,0.9981998205184937,0.4793548583984375,0.8349248766899109,0.2211706042289734,0.966541051864624,0.3406568169593811,0.8709348440170288,0.05156699940562248,0.974007785320282,0.482380211353302,0.9597213268280029,1.0248485803604126,0.9045183658599854,0.35587620735168457,0.9857142567634583,0.6927973031997681,0.9188475608825684,0.46262669563293457,0.9691112637519836,1.0856555700302124,0.8467166423797607,0.35654115676879883,0.9860755205154419,0.7423369288444519,0.7104130387306213,0.532397985458374,1.0220074653625488,0.8031134009361267,0.8549729585647583,0.38158929347991943,1.084180474281311,0.3589394986629486,0.8179642558097839
19404.59947630862,0.4256516098976135,0.23246735334396362,-0.969399631023407,0.9999817609786987,0.4300655424594879,0.2093697488307953,-0.9122955799102783,0.9999620914459229,0.43739214539527893,0.20834776759147644,-0.9123905301094055,0.9999560117721558,0.4442828893661499,0.20762240886688232,-0.9123960733413696,0.9999490976333618,0.3996369242668152,0.2106229066848755,-0.9432154297828674,0.9999674558639526,0.3840267062187195,0.2106665074825287,-0.9433305859565735,0.9999645948410034,0.36544880270957947,0.21100252866744995,-0.943457841873169,0.9999624490737915,0.4309856593608856,0.21390187740325928,-0.5633611083030701,0.9999480247497559,0.3169771730899811,0.2195517122745514,-0.7145146727561951,0.9999701976776123,0.43245717883110046,0.25381097197532654,-0.8378517627716064,0.9999886751174927,0.4003227651119232,0.25616636872291565,-0.880434513092041,0.999992847442627,0.5213410258293152,0.3430221378803253,-0.32963448762893677,0.9998984336853027,0.16782577335834503,0.3636225461959839,-0.5610895156860352,0.9998323917388916,0.5769416093826294,0.5083732604980469,-0.09954401105642319,0.9801033139228821,0.1310834437608719,0.5203356146812439,-0.6822195649147034,0.980492889881134,0.630574107170105,0.642475962638855,-0.3701515197753906,0.9774429798126221,0.26176223158836365,0.5603469014167786,-1.0982530117034912,0.95818030834198,0.6476498246192932,0.6843332648277283,-0.46606770157814026,0.960594892501831,0.3152696490287781,0.5680443644523621,-1.2148116827011108,0.9416666030883789,0.630226731300354,0.6834441423416138,-0.5590184926986694,0.9639138579368591,0.31893303990364075,0.543207585811615,-1.2720866203308105,0.9437323212623596,0.6199172139167786,0.6707881689071655,-0.41177842020988464,0.9649783372879028,0.3018036484718323,0.5367512702941895,-1.1260539293289185,0.9317582249641418,0.48218274116516113,0.6334314346313477,0.08451353013515472,0.9977129697799683,0.31159257888793945,0.6526380181312561,-0.08414072543382645,0.9982709884643555,0.47763994336128235,0.8340066075325012,0.2793121635913849,0.9595053791999817,0.3395000696182251,0.8641550540924072,0.07715407013893127,0.980531632900238,0.4807739853858948,0.9556595683097839,1.0641852617263794,0.9033148288726807,0.351245641708374,0.9849687218666077,0.7074155211448669,0.9321485757827759,0.4606456756591797,0.9662895798683167,1.1231504678726196,0.8563748002052307,0.3487383723258972,0.9865289926528931,0.7564415335655212,0.745450496673584,0.5331024527549744,1.015749454498291,0.8485644459724426,0.8634982109069824,0.3819734454154968,1.078128457069397,0.38264453411102295,0.8413794636726379
19421.266142975288,0.41870540380477905,0.23683413863182068,-0.9547783732414246,0.9999592304229736,0.42724108695983887,0.2128848135471344,-0.8970451354980469,0.9999210834503174,0.43563219904899597,0.21198296546936035,-0.8972275257110596,0.9999120235443115,0.4433152973651886,0.21147063374519348,-0.8973453640937805,0.9999006986618042,0.3947097361087799,0.21414318680763245,-0.9288449287414551,0.9999258518218994,0.37756606936454773,0.21445971727371216,-0.9289422035217285,0.9999167919158936,0.3589651584625244,0.21522986888885498,-0.9291077852249146,0.9999098777770996,0.4354219436645508,0.21787646412849426,-0.5299970507621765,0.9999130964279175,0.31089386343955994,0.22409570217132568,-0.6836085319519043,0.9999369382858276,0.42679154872894287,0.2584712505340576,-0.8137916922569275,0.9999775886535645,0.3920423686504364,0.2610417902469635,-0.8573184013366699,0.9999833106994629,0.5182963013648987,0.3442593216896057,-0.28098636865615845,0.9998973608016968,0.17074377834796906,0.36582446098327637,-0.5015535354614258,0.9996898174285889,0.5745234489440918,0.5080673694610596,-0.04171402007341385,0.9779471755027771,0.13584104180335999,0.5182550549507141,-0.6245128512382507,0.9658823609352112,0.6289685964584351,0.6413567662239075,-0.3218253552913666,0.9721119999885559,0.2447909265756607,0.556517481803894,-1.0792509317398071,0.9303774833679199,0.6464793682098389,0.6831498146057129,-0.4194897711277008,0.9536147713661194,0.30180588364601135,0.5662059187889099,-1.1959353685379028,0.9106644988059998,0.6281411647796631,0.6835898160934448,-0.5148149132728577,0.9576430320739746,0.30276724696159363,0.5395340919494629,-1.2637161016464233,0.9146157503128052,0.6163768768310547,0.6711472272872925,-0.3643580675125122,0.9587692618370056,0.2873407304286957,0.5333536267280579,-1.1119471788406372,0.8981438875198364,0.47790035605430603,0.6337183713912964,0.0677071288228035,0.9972884654998779,0.3023620545864105,0.650675356388092,-0.06724515557289124,0.9974398612976074,0.4736011028289795,0.8435367345809937,0.19139035046100616,0.9535080194473267,0.33390963077545166,0.8689308166503906,0.0531490296125412,0.956655740737915,0.48219048976898193,0.9678865671157837,0.977949321269989,0.8662986159324646,0.358191579580307,0.9906936287879944,0.6884333491325378,0.8697273135185242,0.4673874080181122,0.9748669862747192,1.035172700881958,0.7923767566680908,0.3589494824409485,0.9925607442855835,0.7366927862167358,0.6236653327941895,0.5267672538757324,1.0311734676361084,0.7288900017738342,0.7931194305419922,0.36566805839538574,1.0893718004226685,0.3399101197719574,0.7416478395462036
19437.932809641956,0.42216452956199646,0.23542684316635132,-0.9847058653831482,0.9999657869338989,0.42905527353286743,0.21187952160835266,-0.9279886484146118,0.9999305009841919,0.4370766282081604,0.21092313528060913,-0.9281240701675415,0.9999191761016846,0.4445177912712097,0.21033430099487305,-0.9281805157661438,0.9999077320098877,0.3970798850059509,0.21287766098976135,-0.9605316519737244,0.9999409914016724,0.3804684579372406,0.2128148078918457,-0.9606632590293884,0.9999337196350098,0.36124542355537415,0.21320003271102905,-0.9608256816864014,0.9999303817749023,0.43416646122932434,0.21609294414520264,-0.5675351619720459,0.9999096393585205,0.3120359182357788,0.22116920351982117,-0.7252823114395142,0.9999504089355469,0.4293402135372162,0.25649771094322205,-0.8468451499938965,0.9999791383743286,0.39496201276779175,0.2591392695903778,-0.8914644122123718,0.9999867677688599,0.5180472135543823,0.34405386447906494,-0.31313586235046387,0.999864935874939,0.16824480891227722,0.3636712431907654,-0.5618557333946228,0.9997922778129578,0.5767413973808289,0.5082399249076843,-0.07944666594266891,0.9755207300186157,0.13202345371246338,0.5203549861907959,-0.6641920208930969,0.9759578108787537,0.6305684447288513,0.6424006819725037,-0.35966238379478455,0.9685454368591309,0.2653157413005829,0.557914674282074,-1.0639787912368774,0.9430774450302124,0.6476603150367737,0.6837148666381836,-0.45679518580436707,0.9473711848258972,0.319670170545578,0.5680503249168396,-1.1785497665405273,0.9221670627593994,0.6292144060134888,0.6838778853416443,-0.5526032447814941,0.9516482353210449,0.3251160681247711,0.5433287620544434,-1.2419538497924805,0.9250670671463013,0.617738664150238,0.671400785446167,-0.4028273820877075,0.9534404873847961,0.30962300300598145,0.5366655588150024,-1.0935144424438477,0.9099727869033813,0.48125091195106506,0.6329452991485596,0.08496944606304169,0.996833860874176,0.3083806335926056,0.6509433388710022,-0.0845818892121315,0.9976229071617126,0.4763684570789337,0.839768648147583,0.26984497904777527,0.9483505487442017,0.33721622824668884,0.8677441477775574,0.06660416722297668,0.9707983136177063,0.48098981380462646,0.9644302725791931,1.0255697965621948,0.8772926926612854,0.3579942286014557,0.9899281859397888,0.6808854341506958,0.9092718362808228,0.4613575041294098,0.9733514785766602,1.0802066326141357,0.8294209837913513,0.3560504913330078,0.9914972186088562,0.7268602848052979,0.6993780732154846,0.5325460433959961,1.0256472826004028,0.7892820239067078,0.8276506066322327,0.373178631067276,1.0887725353240967,0.336327463388443,0.8038123250007629
19454.599476308624,0.42070966958999634,0.2329268753528595,-0.9526250958442688,0.9999778270721436,0.4279937744140625,0.2095913589000702,-0.8952110409736633,0.9999542236328125,0.4362596273422241,0.2088497281074524,-0.8953376412391663,0.9999463558197021,0.4439980387687683,0.20838546752929688,-0.8953757286071777,0.9999380111694336,0.3950992822647095,0.21058857440948486,-0.9284314513206482,0.9999620914459229,0.3777100443840027,0.21059414744377136,-0.9285661578178406,0.9999570846557617,0.35853311419487,0.211156964302063,-0.9287127256393433,0.9999550580978394,0.43523502349853516,0.21559619903564453,-0.540297269821167,0.9999417066574097,0.30938807129859924,0.22025084495544434,-0.7014153003692627,0.9999673366546631,0.4284837245941162,0.25515487790107727,-0.8177667260169983,0.9999867677688599,0.39305657148361206,0.25748518109321594,-0.8633323311805725,0.9999916553497314,0.5178265571594238,0.34471648931503296,-0.3007964491844177,0.9998868703842163,0.16677001118659973,0.3646667003631592,-0.5392705202102661,0.9998396635055542,0.576453447341919,0.5090777277946472,-0.08155081421136856,0.9796919226646423,0.13021621108055115,0.522240400314331,-0.6528416872024536,0.9800695180892944,0.6299217343330383,0.6423007845878601,-0.37443533539772034,0.9749914407730103,0.25942370295524597,0.5554407835006714,-1.0721065998077393,0.9578187465667725,0.6464799642562866,0.6821543574333191,-0.4730767607688904,0.9565660357475281,0.3138539791107178,0.5640859007835388,-1.1874855756759644,0.9407345652580261,0.6287619471549988,0.6821736097335815,-0.5685397386550903,0.9600837826728821,0.31709131598472595,0.5379793643951416,-1.2474539279937744,0.9424532651901245,0.6178998947143555,0.6699233055114746,-0.4173157513141632,0.9610204100608826,0.30151793360710144,0.5318330526351929,-1.1004847288131714,0.9287846088409424,0.48002660274505615,0.6327019333839417,0.0843350812792778,0.9970210194587708,0.3082559108734131,0.649145245552063,-0.08396545797586441,0.9979739785194397,0.47228679060935974,0.8399063944816589,0.2531052529811859,0.9557155966758728,0.3356809616088867,0.8664328455924988,0.04734736308455467,0.9766317009925842,0.48080071806907654,0.9627586007118225,0.9899259805679321,0.8961073756217957,0.3531445562839508,0.9910129308700562,0.6438392400741577,0.9266708493232727,0.4595333933830261,0.9715514183044434,1.0425382852554321,0.8548871874809265,0.3530516028404236,0.9917213916778564,0.6871178150177002,0.7258805632591248,0.5385167002677917,1.0202383995056152,0.7542867064476013,0.8566110730171204,0.3685375154018402,1.0890209674835205,0.29582494497299194,0.8328842520713806
19471.26614297529,0.4195593297481537,0.23096412420272827,-0.9656128883361816,0.9999760389328003,0.42677345871925354,0.2080267071723938,-0.9051070809364319,0.9999516010284424,0.43515557050704956,0.20736616849899292,-0.9052389860153198,0.9999431371688843,0.44290682673454285,0.2067635953426361,-0.9052627086639404,0.9999340772628784,0.39336973428726196,0.20883417129516602,-0.939966082572937,0.9999579191207886,0.37549889087677,0.20877596735954285,-0.9400747418403625,0.999953031539917,0.3562713861465454,0.20911279320716858,-0.9402359127998352,0.9999496936798096,0.43434613943099976,0.21380206942558289,-0.5402942895889282,0.9999397993087769,0.30771389603614807,0.21855667233467102,-0.7085977792739868,0.9999632835388184,0.4264582693576813,0.25371789932250977,-0.8276722431182861,0.9999866485595703,0.39101752638816833,0.25561824440956116,-0.8754109740257263,0.9999911785125732,0.5181609392166138,0.3451807498931885,-0.29324105381965637,0.9998921155929565,0.16497042775154114,0.36561650037765503,-0.5437374114990234,0.9998032450675964,0.5746058821678162,0.5093128681182861,-0.06268637627363205,0.9781760573387146,0.13328486680984497,0.5219407081604004,-0.6754792332649231,0.9743396043777466,0.6303434371948242,0.6419240236282349,-0.3637768626213074,0.974024772644043,0.25423675775527954,0.5570892691612244,-1.1390217542648315,0.9523483514785767,0.6467450857162476,0.6822933554649353,-0.46533700823783875,0.9556724429130554,0.30589979887008667,0.5664533376693726,-1.2623283863067627,0.9364954233169556,0.629802942276001,0.6818358302116394,-0.5612554550170898,0.9594183564186096,0.31138092279434204,0.5405247211456299,-1.326235055923462,0.9386950731277466,0.6200671195983887,0.6693021059036255,-0.40725943446159363,0.9601744413375854,0.2964552938938141,0.5344239473342896,-1.1702853441238403,0.9239401817321777,0.478994220495224,0.6317017674446106,0.08362915366888046,0.99806147813797,0.3053593039512634,0.647674560546875,-0.0832502618432045,0.9985200762748718,0.47334399819374084,0.8348187804222107,0.23993265628814697,0.9644569158554077,0.3350876569747925,0.8632336854934692,0.06450387835502625,0.9756891131401062,0.4792332947254181,0.9578480124473572,1.0512778759002686,0.9116160273551941,0.35306963324546814,0.9855179190635681,0.7283893823623657,0.9316484928131104,0.45870882272720337,0.9662969708442688,1.1108442544937134,0.8647571802139282,0.3516225814819336,0.9861475229263306,0.7783268690109253,0.7439699769020081,0.5323863625526428,1.0187433958053589,0.8114586472511292,0.8705751299858093,0.36162856221199036,1.0780411958694458,0.3827313184738159,0.8466230630874634
19487.93280964196,0.4197564423084259,0.2343273162841797,-0.9930437207221985,0.999975323677063,0.42776432633399963,0.21052199602127075,-0.9333650469779968,0.999951958656311,0.4359406530857086,0.20974689722061157,-0.9335146546363831,0.9999443292617798,0.44335806369781494,0.20929262042045593,-0.9335723519325256,0.9999347925186157,0.3945516049861908,0.2115526795387268,-0.966538667678833,0.9999568462371826,0.37660759687423706,0.21156662702560425,-0.9666626453399658,0.9999517202377319,0.3569584786891937,0.21214038133621216,-0.9668139219284058,0.9999474287033081,0.4342847764492035,0.21577361226081848,-0.5631959438323975,0.9999434947967529,0.3072241544723511,0.22074753046035767,-0.7240884304046631,0.9999622106552124,0.4274776875972748,0.2561802864074707,-0.8523616790771484,0.9999854564666748,0.3917059898376465,0.25892218947410583,-0.8978880643844604,0.9999897480010986,0.5194213390350342,0.3449358344078064,-0.3100235164165497,0.999895453453064,0.16346696019172668,0.3688379228115082,-0.5480980277061462,0.999765932559967,0.5737320184707642,0.509137749671936,-0.0715445950627327,0.9789707064628601,0.13883937895298004,0.5236283540725708,-0.6914076805114746,0.9727897047996521,0.6305977702140808,0.6432471871376038,-0.36244916915893555,0.9754543304443359,0.24319244921207428,0.5562306046485901,-1.1754790544509888,0.9506571292877197,0.6469682455062866,0.6843852400779724,-0.4595535099506378,0.9578579068183899,0.29857099056243896,0.5664095878601074,-1.298634648323059,0.9347022771835327,0.6290512084960938,0.6842395663261414,-0.5571852326393127,0.961509644985199,0.30005669593811035,0.5391064882278442,-1.3628177642822266,0.9373685717582703,0.6179194450378418,0.671638548374176,-0.4060094654560089,0.9626146554946899,0.2843509614467621,0.533053994178772,-1.207560420036316,0.9230301380157471,0.47921130061149597,0.6336034536361694,0.07736518234014511,0.9979000091552734,0.3037548065185547,0.6512534022331238,-0.07692839205265045,0.9982787370681763,0.4739627242088318,0.840062141418457,0.221784770488739,0.9602044224739075,0.3331436216831207,0.8664069771766663,0.05736789107322693,0.9718145728111267,0.48054951429367065,0.9633432030677795,1.033452033996582,0.8952630758285522,0.3543632924556732,0.9896078705787659,0.7168499231338501,0.9183624982833862,0.46104297041893005,0.9719964861869812,1.0928990840911865,0.8506383299827576,0.35301128029823303,0.9906125664710999,0.7666789293289185,0.7162914276123047,0.536020815372467,1.0241689682006836,0.7932653427124023,0.84531170129776,0.35933446884155273,1.084965705871582,0.3692035675048828,0.8196449875831604
19504.599476308627,0.42365556955337524,0.2308293581008911,-0.9438374042510986,0.999975323677063,0.42894625663757324,0.20820358395576477,-0.8811959624290466,0.9999511241912842,0.43675509095191956,0.20737990736961365,-0.8813397288322449,0.9999444484710693,0.4439537525177002,0.2064618468284607,-0.8813602924346924,0.9999357461929321,0.39637404680252075,0.20925304293632507,-0.9165800213813782,0.9999566078186035,0.37925541400909424,0.20913273096084595,-0.9167160391807556,0.9999523162841797,0.3599315881729126,0.20941296219825745,-0.9168890118598938,0.9999477863311768,0.43274784088134766,0.21322119235992432,-0.51643306016922,0.9999421834945679,0.3109522759914398,0.2186659872531891,-0.6876339912414551,0.99996018409729,0.42999041080474854,0.2532992959022522,-0.8072846531867981,0.9999861717224121,0.3965618312358856,0.2559366524219513,-0.855828046798706,0.9999908208847046,0.5184071063995361,0.3473988473415375,-0.28132787346839905,0.9999004602432251,0.1626681238412857,0.36870792508125305,-0.5318811535835266,0.9997609257698059,0.5769680738449097,0.5095424652099609,-0.055917490273714066,0.9824719429016113,0.1319420337677002,0.5219243764877319,-0.6872989535331726,0.9769697189331055,0.6304956674575806,0.643179714679718,-0.3502695560455322,0.9812377095222473,0.24288365244865417,0.5537201166152954,-1.1633291244506836,0.9548557996749878,0.6465663909912109,0.6846835613250732,-0.4494069814682007,0.9664842486381531,0.30158761143684387,0.5642848610877991,-1.2859606742858887,0.9382563829421997,0.6283770799636841,0.6838432550430298,-0.5426265597343445,0.9693748950958252,0.30402588844299316,0.5381945371627808,-1.3447880744934082,0.9401538372039795,0.6180406808853149,0.671138346195221,-0.39188992977142334,0.969541609287262,0.28795233368873596,0.5322080254554749,-1.1926344633102417,0.925491213798523,0.4781102240085602,0.6351556181907654,0.08806844800710678,0.9977214932441711,0.30449178814888,0.6528049111366272,-0.08769460767507553,0.9981459379196167,0.47579413652420044,0.8339988589286804,0.24267977476119995,0.9556229114532471,0.33733928203582764,0.867190957069397,0.053000688552856445,0.9699499011039734,0.48026537895202637,0.9586179256439209,1.0655107498168945,0.8875426650047302,0.35616084933280945,0.9879779815673828,0.7166942954063416,0.910011887550354,0.4611360728740692,0.9676505923271179,1.127068281173706,0.8383646607398987,0.35592401027679443,0.9888226389884949,0.7674171924591064,0.6899210810661316,0.534487247467041,1.0213466882705688,0.8358474373817444,0.8448402285575867,0.3797028064727783,1.084804892539978,0.3723408877849579,0.808560848236084
19521.266142975295,0.42306679487228394,0.23400819301605225,-0.9502752423286438,0.9999654293060303,0.42971062660217285,0.21058842539787292,-0.8916646838188171,0.9999332427978516,0.4373304545879364,0.20981180667877197,-0.8918065428733826,0.9999244213104248,0.4444199502468109,0.20934101939201355,-0.8918665647506714,0.9999134540557861,0.3980865478515625,0.21148785948753357,-0.9253159761428833,0.9999392032623291,0.38117605447769165,0.21144956350326538,-0.9254181385040283,0.9999336004257202,0.36156949400901794,0.2119911015033722,-0.925589919090271,0.9999275207519531,0.43410658836364746,0.2157076895236969,-0.5287882089614868,0.999922513961792,0.3111233711242676,0.22045063972473145,-0.6920116543769836,0.9999480247497559,0.4297156035900116,0.25533923506736755,-0.812192440032959,0.9999812841415405,0.3956545293331146,0.25824040174484253,-0.8583966493606567,0.9999871253967285,0.5202573537826538,0.34486281871795654,-0.2806283235549927,0.9998948574066162,0.16690373420715332,0.3656260669231415,-0.5280327200889587,0.9997344613075256,0.5751024484634399,0.5083575248718262,-0.0346045047044754,0.9772382378578186,0.13338033854961395,0.5175111889839172,-0.6759003400802612,0.9711962938308716,0.6283465027809143,0.6430273056030273,-0.3059594929218292,0.9738553762435913,0.24008134007453918,0.5546925663948059,-1.1421858072280884,0.937009334564209,0.6435781717300415,0.6841850876808167,-0.40020692348480225,0.9559047222137451,0.2977967858314514,0.5650482773780823,-1.261871576309204,0.9181240797042847,0.6265018582344055,0.6841776967048645,-0.49350884556770325,0.9598299860954285,0.30053919553756714,0.5391214489936829,-1.3252758979797363,0.9214968681335449,0.6156235933303833,0.6714038848876953,-0.34754106402397156,0.9608113765716553,0.28465813398361206,0.5328336954116821,-1.1737157106399536,0.9059188365936279,0.48076629638671875,0.6330606341362,0.08442661911249161,0.9977753758430481,0.3064233362674713,0.6505937576293945,-0.08399733155965805,0.9980151653289795,0.4765641987323761,0.8361790180206299,0.23598846793174744,0.9539830684661865,0.3358316123485565,0.8637773990631104,0.0599919930100441,0.9654651284217834,0.4810778498649597,0.9609735608100891,1.0399760007858276,0.8803064823150635,0.3538513779640198,0.9834999442100525,0.7136446833610535,0.8922052979469299,0.46256834268569946,0.9697056412696838,1.0999387502670288,0.8181326985359192,0.35192716121673584,0.9852877855300903,0.7640368938446045,0.6586976647377014,0.5316749215126038,1.0240755081176758,0.8032628893852234,0.8225570321083069,0.37573006749153137,1.0840857028961182,0.3705168664455414,0.7724533081054688
19537.932809641963,0.4193814992904663,0.2351752519607544,-1.01906418800354,0.9999686479568481,0.4268263876438141,0.21127501130104065,-0.9618105888366699,0.9999374151229858,0.4352164566516876,0.21036329865455627,-0.9619330167770386,0.999929666519165,0.4427322447299957,0.20987731218338013,-0.9619848132133484,0.9999184608459473,0.3937576413154602,0.21255245804786682,-0.9907850027084351,0.9999433755874634,0.3759196996688843,0.21274742484092712,-0.9908947944641113,0.999937891960144,0.3570858836174011,0.21351638436317444,-0.9910416007041931,0.9999309778213501,0.43499505519866943,0.2163315713405609,-0.5980759859085083,0.9999207258224487,0.3091103732585907,0.22223740816116333,-0.7406076192855835,0.9999485015869141,0.4282492697238922,0.2570874094963074,-0.8807336091995239,0.9999802112579346,0.3925507962703705,0.26005250215530396,-0.9208356738090515,0.9999862909317017,0.5213721394538879,0.3446739912033081,-0.33885788917541504,0.9998687505722046,0.1700579822063446,0.36718305945396423,-0.5701770186424255,0.9997218251228333,0.574396014213562,0.5081371068954468,-0.09303347766399384,0.975849449634552,0.13898342847824097,0.5213197469711304,-0.6991671919822693,0.9716492891311646,0.6275044679641724,0.6442726254463196,-0.3489817678928375,0.9715258479118347,0.2532961070537567,0.5556585192680359,-1.1390620470046997,0.9349915981292725,0.6448361277580261,0.6861928701400757,-0.44063833355903625,0.951644241809845,0.3106064796447754,0.5646378397941589,-1.2554694414138794,0.913850724697113,0.6271750926971436,0.6861870884895325,-0.5336819887161255,0.9557579159736633,0.3098611533641815,0.5376567244529724,-1.3158951997756958,0.9169341921806335,0.6156758666038513,0.6734927296638489,-0.38992518186569214,0.957490086555481,0.29374563694000244,0.5317372679710388,-1.1689344644546509,0.9020993113517761,0.47952792048454285,0.6339277029037476,0.08581406623125076,0.9973529577255249,0.30598184466362,0.6520841717720032,-0.08540454506874084,0.9978304505348206,0.4740722179412842,0.8377730250358582,0.279614120721817,0.9451686143875122,0.3353738486766815,0.8638582825660706,0.07783939689397812,0.9703018665313721,0.4796886444091797,0.9608754515647888,1.0407010316848755,0.8773407936096191,0.35259708762168884,0.9841618537902832,0.7055593132972717,0.9031885862350464,0.45768171548843384,0.9701659083366394,1.096168875694275,0.8303541541099548,0.349251389503479,0.9868376851081848,0.7533034086227417,0.6854218244552612,0.5366803407669067,1.0224477052688599,0.805858314037323,0.8198002576828003,0.373772531747818,1.0830665826797485,0.3637850284576416,0.7831078767776489
19554.59947630863,0.4181634187698364,0.2364492416381836,-0.9782459735870361,0.999954342842102,0.42600610852241516,0.21238529682159424,-0.9186244606971741,0.9999127388000488,0.434378057718277,0.21146228909492493,-0.9188220500946045,0.9999028444290161,0.44205498695373535,0.2109539806842804,-0.918950617313385,0.9998884201049805,0.39299723505973816,0.2134661078453064,-0.9513009786605835,0.999919056892395,0.37522995471954346,0.21351021528244019,-0.9514483213424683,0.9999109506607056,0.35630542039871216,0.21407076716423035,-0.9516441822052002,0.9999043941497803,0.4337877929210663,0.21726807951927185,-0.5437156558036804,0.9999080896377563,0.30712226033210754,0.22245392203330994,-0.7008765935897827,0.9999333620071411,0.4268384277820587,0.2581911087036133,-0.8343810439109802,0.9999758005142212,0.3908613324165344,0.26093003153800964,-0.879074215888977,0.9999821186065674,0.51969313621521,0.3447939455509186,-0.2875094413757324,0.9998779296875,0.1647111028432846,0.36739635467529297,-0.5100141167640686,0.9996470212936401,0.5740389823913574,0.5081503391265869,-0.05131074786186218,0.9800517559051514,0.138641357421875,0.5242469310760498,-0.6470821499824524,0.9693096280097961,0.6283117532730103,0.6448202729225159,-0.3467942178249359,0.9726699590682983,0.24931639432907104,0.554950475692749,-1.1333690881729126,0.9431771636009216,0.6452072262763977,0.6857835054397583,-0.4461069703102112,0.9527938961982727,0.3070315718650818,0.5638784170150757,-1.2535264492034912,0.9241504669189453,0.6271807551383972,0.6854961514472961,-0.541776180267334,0.9568497538566589,0.3070765733718872,0.5370309948921204,-1.3175318241119385,0.9272089004516602,0.6151427030563354,0.6728920936584473,-0.3892020881175995,0.9579479098320007,0.29043856263160706,0.531120240688324,-1.164241075515747,0.9099512696266174,0.48024964332580566,0.6356170177459717,0.06520997732877731,0.9968926310539246,0.30232423543930054,0.6524688005447388,-0.06479331851005554,0.9970766305923462,0.4713495671749115,0.8502433896064758,0.15025389194488525,0.9531438946723938,0.33289897441864014,0.8701894283294678,0.02766178734600544,0.9510543942451477,0.48472318053245544,0.9712017178535461,0.9720430970191956,0.8568840622901917,0.35794344544410706,0.9943833947181702,0.6840646862983704,0.8591781258583069,0.4689711928367615,0.9761877059936523,1.0318334102630615,0.7791532278060913,0.3581100106239319,0.9949391484260559,0.7334089875221252,0.5915605425834656,0.5308178067207336,1.035942554473877,0.7126509547233582,0.7826653718948364,0.36690592765808105,1.0989818572998047,0.31905263662338257,0.7310718297958374
19571.2661429753,0.42143872380256653,0.23628464341163635,-1.0171996355056763,0.9999738931655884,0.42884373664855957,0.21222901344299316,-0.9590970873832703,0.9999465942382812,0.43690529465675354,0.211215078830719,-0.959205150604248,0.999935507774353,0.4443556070327759,0.21055421233177185,-0.9592207670211792,0.9999251365661621,0.39590898156166077,0.21332594752311707,-0.9931851625442505,0.9999552965164185,0.3782956302165985,0.21328946948051453,-0.9933139681816101,0.9999510049819946,0.3590567409992218,0.21361896395683289,-0.9934681057929993,0.9999488592147827,0.43382540345191956,0.21615782380104065,-0.5906938314437866,0.999922513961792,0.309883713722229,0.22098124027252197,-0.7561072111129761,0.9999637603759766,0.4290829300880432,0.25722622871398926,-0.8767091035842896,0.9999840259552002,0.39423635601997375,0.2598722279071808,-0.9234445691108704,0.9999905824661255,0.5169987678527832,0.3430900573730469,-0.3155609965324402,0.9998794794082642,0.1639440506696701,0.36561229825019836,-0.5992836356163025,0.9998375177383423,0.5745248794555664,0.5084166526794434,-0.06205150857567787,0.9749128222465515,0.12862268090248108,0.5242173671722412,-0.7154823541641235,0.9816212058067322,0.6275427937507629,0.6430712938308716,-0.3390626311302185,0.9713161587715149,0.26067662239074707,0.5583004951477051,-1.1357289552688599,0.9618552327156067,0.6439535617828369,0.6849895715713501,-0.4333733916282654,0.9516177177429199,0.31382083892822266,0.5680268406867981,-1.2559224367141724,0.9463106989860535,0.6267523765563965,0.6849014163017273,-0.5290763974189758,0.9556745290756226,0.3185482621192932,0.5412988662719727,-1.3176997900009155,0.9485871195793152,0.6155163049697876,0.6723050475120544,-0.3821704089641571,0.9573021531105042,0.3022581934928894,0.5348693132400513,-1.1648503541946411,0.9363898038864136,0.47989359498023987,0.6343942284584045,0.10076364874839783,0.9976982474327087,0.30859145522117615,0.6530889272689819,-0.10043243318796158,0.9981733560562134,0.47654658555984497,0.8342481851577759,0.3015497028827667,0.941620945930481,0.33826640248298645,0.8640140891075134,0.06664621084928513,0.971458911895752,0.4800907373428345,0.9605841636657715,1.0886963605880737,0.8723840117454529,0.35578489303588867,0.9817184805870056,0.7123215198516846,0.910677969455719,0.4603852331638336,0.9703074097633362,1.1471164226531982,0.8389481902122498,0.35087427496910095,0.9843008518218994,0.7625216245651245,0.7163634896278381,0.5372558832168579,1.0198086500167847,0.862708568572998,0.8290109038352966,0.382965087890625,1.0812885761260986,0.37601232528686523,0.8079291582107544
19587.932809641967,0.4190932512283325,0.23767858743667603,-0.9742134213447571,0.9999750852584839,0.4274091124534607,0.2137661874294281,-0.9176032543182373,0.9999474287033081,0.4356914758682251,0.21280595660209656,-0.9177165627479553,0.9999388456344604,0.4436361789703369,0.21217086911201477,-0.9177473187446594,0.9999289512634277,0.3939683735370636,0.21503019332885742,-0.9501535296440125,0.9999539852142334,0.3757705092430115,0.21522006392478943,-0.950271725654602,0.9999502897262573,0.3569321632385254,0.21565082669258118,-0.9504428505897522,0.9999465942382812,0.43531638383865356,0.218309223651886,-0.5545383095741272,0.9999315738677979,0.30858859419822693,0.22368040680885315,-0.7125882506370544,0.9999611377716064,0.4273116886615753,0.25909411907196045,-0.8351298570632935,0.9999856948852539,0.3913828730583191,0.2616584002971649,-0.879838228225708,0.999990701675415,0.5182825326919556,0.3449145555496216,-0.29069066047668457,0.9999051094055176,0.17054928839206696,0.3636670708656311,-0.5524246096611023,0.9998190999031067,0.5732622146606445,0.5086899995803833,-0.03716879338026047,0.9770092368125916,0.13256651163101196,0.5212129950523376,-0.6886562705039978,0.9757642149925232,0.626815915107727,0.6404140591621399,-0.30565953254699707,0.9740900993347168,0.2553717792034149,0.5608418583869934,-1.1443694829940796,0.9520769119262695,0.6434873938560486,0.6823115944862366,-0.3984813988208771,0.9564856886863708,0.30909475684165955,0.5693383812904358,-1.2643851041793823,0.936731219291687,0.6262426376342773,0.681645929813385,-0.492103636264801,0.9603614211082458,0.3136352002620697,0.5430188179016113,-1.3280963897705078,0.9395893812179565,0.6159825325012207,0.6694642305374146,-0.34738168120384216,0.9614193439483643,0.29764464497566223,0.5366147756576538,-1.1753534078598022,0.9264153838157654,0.48243579268455505,0.6312854290008545,0.09162869304418564,0.9979225993156433,0.31147530674934387,0.651016354560852,-0.09123407304286957,0.9982231259346008,0.4764264225959778,0.8327103853225708,0.2225230187177658,0.9562627077102661,0.3424632251262665,0.8631312251091003,0.043706636875867844,0.9708744883537292,0.4795129597187042,0.9572995901107788,1.0162681341171265,0.8926892280578613,0.3574528992176056,0.9837309718132019,0.6991496682167053,0.9101274013519287,0.46014806628227234,0.9666793346405029,1.0755823850631714,0.8404783010482788,0.35458827018737793,0.9857209324836731,0.7498835325241089,0.6960465908050537,0.5321382284164429,1.0206589698791504,0.782179594039917,0.8441740274429321,0.3883213400840759,1.0809496641159058,0.3588508069515228,0.804153323173523
19604.599476308635,0.4257919490337372,0.2351294457912445,-0.9801860451698303,0.9999673366546631,0.43182528018951416,0.21181026101112366,-0.922694742679596,0.9999340772628784,0.439502477645874,0.21084558963775635,-0.9228230714797974,0.999923825263977,0.44659093022346497,0.2102559506893158,-0.9228606224060059,0.9999140501022339,0.40061989426612854,0.2127237319946289,-0.9587864279747009,0.9999418258666992,0.38409215211868286,0.21251684427261353,-0.9589167237281799,0.9999362230300903,0.3641243278980255,0.2127227783203125,-0.959092378616333,0.9999319314956665,0.4337560832500458,0.21618959307670593,-0.5573224425315857,0.999914288520813,0.3127138614654541,0.2202228307723999,-0.7317285537719727,0.999948263168335,0.4318638741970062,0.25622329115867615,-0.8402051329612732,0.9999806880950928,0.39822918176651,0.2590131461620331,-0.8897010684013367,0.9999873638153076,0.5184788703918457,0.3436504900455475,-0.29938530921936035,0.9998893737792969,0.1696779578924179,0.36268240213394165,-0.5641523003578186,0.9997574687004089,0.5747702717781067,0.5096281170845032,-0.051801543682813644,0.9777697324752808,0.1345152109861374,0.5207595825195312,-0.684585690498352,0.9722065329551697,0.6272403001785278,0.6429945826530457,-0.3326563239097595,0.9735177755355835,0.2599743902683258,0.5620208382606506,-1.1185295581817627,0.9399239420890808,0.6438277959823608,0.6838342547416687,-0.4298660457134247,0.9544636011123657,0.3125383257865906,0.5699118971824646,-1.2366943359375,0.921477735042572,0.6266613006591797,0.6836161613464355,-0.5248216390609741,0.9585590362548828,0.31690722703933716,0.5440050959587097,-1.3028671741485596,0.9249730110168457,0.615973949432373,0.671355128288269,-0.3754407465457916,0.9595571756362915,0.30108723044395447,0.5376876592636108,-1.1498124599456787,0.9091442823410034,0.48343899846076965,0.631259560585022,0.08762750029563904,0.9973989725112915,0.3100341856479645,0.6503550410270691,-0.08722749352455139,0.9977633953094482,0.4787779450416565,0.8328464031219482,0.24138543009757996,0.9530479311943054,0.34194961190223694,0.8631296157836914,0.04943792149424553,0.9669581055641174,0.48157545924186707,0.9597121477127075,1.034151554107666,0.8833281397819519,0.35606539249420166,0.9832779765129089,0.6906806826591492,0.9019393920898438,0.46293362975120544,0.9687744975090027,1.0928863286972046,0.8280720710754395,0.35409948229789734,0.9850943088531494,0.7394804954528809,0.6766114234924316,0.5302581787109375,1.0242424011230469,0.7962610125541687,0.8346054553985596,0.382686972618103,1.084518551826477,0.3431876301765442,0.7937196493148804
19621.266142975303,0.4264986515045166,0.23298439383506775,-0.9397107362747192,0.9999736547470093,0.43167737126350403,0.20998072624206543,-0.8783869743347168,0.9999464750289917,0.43923529982566833,0.20902541279792786,-0.8785186409950256,0.9999366998672485,0.44620221853256226,0.20852196216583252,-0.8785344958305359,0.9999268054962158,0.40106400847435,0.21107128262519836,-0.9129478335380554,0.9999556541442871,0.38528716564178467,0.21105608344078064,-0.9130719900131226,0.9999508857727051,0.3659992516040802,0.21141406893730164,-0.9132400155067444,0.9999483823776245,0.43198737502098083,0.21474814414978027,-0.510495662689209,0.9999285936355591,0.31668493151664734,0.21900847554206848,-0.6780627965927124,0.9999600648880005,0.43296924233436584,0.2541049122810364,-0.8010638952255249,0.9999840259552002,0.39999550580978394,0.2567175626754761,-0.8485004901885986,0.9999901056289673,0.5189051628112793,0.34447091817855835,-0.26804178953170776,0.999879002571106,0.16645850241184235,0.36459025740623474,-0.5155825018882751,0.9998067021369934,0.5767844319343567,0.5092191696166992,-0.041314203292131424,0.9790892004966736,0.13008172810077667,0.5199804902076721,-0.6561970114707947,0.9772687554359436,0.6265920400619507,0.6439077854156494,-0.3417893946170807,0.9751841425895691,0.24314935505390167,0.5561419725418091,-1.123922348022461,0.9560275077819824,0.6442267894744873,0.6835184693336487,-0.441658616065979,0.9565980434417725,0.2963424026966095,0.5659044981002808,-1.2450084686279297,0.9398481249809265,0.6268056035041809,0.6839056611061096,-0.5350761413574219,0.960253894329071,0.3008068799972534,0.5394159555435181,-1.3067430257797241,0.9420691728591919,0.6156374216079712,0.6716269254684448,-0.383874773979187,0.9607265591621399,0.28513848781585693,0.5323125123977661,-1.1539181470870972,0.9277969002723694,0.4805261194705963,0.6343206763267517,0.08889737725257874,0.997423529624939,0.3086300492286682,0.6528233289718628,-0.08850345760583878,0.9981759786605835,0.4758833348751068,0.8319532871246338,0.23699022829532623,0.9551085829734802,0.3368135988712311,0.8668646812438965,0.03759678825736046,0.9725143313407898,0.47968000173568726,0.9564897418022156,1.031555414199829,0.8915167450904846,0.35155585408210754,0.9853298664093018,0.6783206462860107,0.9189186692237854,0.4592875838279724,0.9667323231697083,1.0903654098510742,0.8530377745628357,0.35234954953193665,0.9872324466705322,0.7263617515563965,0.7102248072624207,0.5318760871887207,1.0179336071014404,0.8008387088775635,0.8522571921348572,0.37168481945991516,1.0832228660583496,0.33103105425834656,0.8218103051185608
19637.93280964197,0.42249971628189087,0.23302283883094788,-0.9433155059814453,0.9999551773071289,0.4292113184928894,0.20965296030044556,-0.8828920125961304,0.9999158382415771,0.4371914565563202,0.20875594019889832,-0.8830714225769043,0.9999055862426758,0.4442448914051056,0.20815929770469666,-0.8831610679626465,0.9998944997787476,0.3979186713695526,0.21098807454109192,-0.9176569581031799,0.9999208450317383,0.3805012106895447,0.21121269464492798,-0.9177641868591309,0.9999116659164429,0.3617633581161499,0.21203342080116272,-0.9179500937461853,0.9999032020568848,0.4339689016342163,0.21452099084854126,-0.5153015851974487,0.9999068975448608,0.31221434473991394,0.22077342867851257,-0.6826537251472473,0.9999289512634277,0.42980536818504333,0.2549368739128113,-0.8037418127059937,0.9999769926071167,0.39611655473709106,0.2576562166213989,-0.8511859774589539,0.9999829530715942,0.5199846029281616,0.34419798851013184,-0.2673102617263794,0.9998867511749268,0.16564057767391205,0.3682827353477478,-0.525854229927063,0.9996707439422607,0.5740781426429749,0.508749783039093,-0.033697791397571564,0.9769684672355652,0.1376093178987503,0.5224399566650391,-0.6792042851448059,0.9670829176902771,0.6261217594146729,0.6456636786460876,-0.3182680308818817,0.9731132388114929,0.23907268047332764,0.555070161819458,-1.1520453691482544,0.9324402213096619,0.6425542831420898,0.6862081289291382,-0.41667553782463074,0.9548028707504272,0.2955763041973114,0.565394401550293,-1.2752450704574585,0.9141767024993896,0.6258167028427124,0.6858581304550171,-0.5097450017929077,0.9587634801864624,0.29639101028442383,0.5385738611221313,-1.3385971784591675,0.9176623225212097,0.614524245262146,0.673561692237854,-0.36005181074142456,0.9596275091171265,0.281324177980423,0.5322641134262085,-1.1838520765304565,0.900562584400177,0.4790990352630615,0.635073721408844,0.0901489332318306,0.9975305199623108,0.30528080463409424,0.6523046493530273,-0.08971010148525238,0.9977452158927917,0.47588053345680237,0.839592695236206,0.24277330935001373,0.9467471837997437,0.3366311192512512,0.8665207624435425,0.05327816307544708,0.9599962830543518,0.48008784651756287,0.9605255126953125,1.069311499595642,0.8578497171401978,0.3565874695777893,0.9845414757728577,0.7212331891059875,0.8778299689292908,0.46211695671081543,0.9688473343849182,1.1318097114562988,0.8021131157875061,0.3536481261253357,0.9852789044380188,0.7730770707130432,0.6353216767311096,0.5319445133209229,1.020990014076233,0.8370899558067322,0.7999925017356873,0.37878018617630005,1.0858371257781982,0.3753340244293213,0.7516968846321106
19654.59947630864,0.41833794116973877,0.23376095294952393,-0.9681098461151123,0.9999645948410034,0.42730486392974854,0.21053758263587952,-0.9085458517074585,0.9999309778213501,0.4361988306045532,0.20975038409233093,-0.9087042808532715,0.9999209642410278,0.44375741481781006,0.2093433141708374,-0.9087725281715393,0.9999110698699951,0.3945513665676117,0.21144983172416687,-0.9407162666320801,0.9999359846115112,0.3767666220664978,0.2114652693271637,-0.9408387541770935,0.9999291896820068,0.35874903202056885,0.21208667755126953,-0.941016674041748,0.9999251365661621,0.43667009472846985,0.21590670943260193,-0.5389617085456848,0.9999147653579712,0.3116011321544647,0.22065451741218567,-0.6943491101264954,0.9999457597732544,0.42710068821907043,0.2561028003692627,-0.8275436162948608,0.9999817609786987,0.3918645977973938,0.2580728530883789,-0.8715397715568542,0.9999876022338867,0.5196830034255981,0.343587726354599,-0.2777992784976959,0.9999030828475952,0.16664567589759827,0.36563751101493835,-0.5299999713897705,0.9997683167457581,0.5729017853736877,0.5076689124107361,-0.04298251122236252,0.9783984422683716,0.13248005509376526,0.5203292369842529,-0.6621555089950562,0.9743744730949402,0.6260432004928589,0.6434313058853149,-0.3417320251464844,0.9750418663024902,0.24957215785980225,0.5567457675933838,-1.1211771965026855,0.94607013463974,0.6431379914283752,0.6844253540039062,-0.442781537771225,0.9575213193893433,0.30483928322792053,0.566775381565094,-1.2431763410568237,0.9277627468109131,0.6248780488967896,0.684196949005127,-0.5376293063163757,0.9611527919769287,0.3084019422531128,0.5408341288566589,-1.3069257736206055,0.9307329058647156,0.6130737662315369,0.6717559099197388,-0.3846524655818939,0.9616122245788574,0.2926849126815796,0.5341163277626038,-1.1521544456481934,0.9160711169242859,0.4784749150276184,0.6333322525024414,0.09531115740537643,0.9976320266723633,0.30689460039138794,0.650844156742096,-0.09496548026800156,0.9978677034378052,0.47656384110450745,0.8404953479766846,0.2364978790283203,0.9476000666618347,0.3388492166996002,0.8703445196151733,0.03205754607915878,0.9646222591400146,0.4834864139556885,0.9651604294776917,1.0374857187271118,0.8685699701309204,0.3603677749633789,0.9891807436943054,0.6796579957008362,0.8863188028335571,0.46632254123687744,0.9727906584739685,1.0966920852661133,0.7970717549324036,0.3578983545303345,0.9892005324363708,0.7292426228523254,0.6367877721786499,0.5324867367744446,1.0289480686187744,0.7920040488243103,0.8134778738021851,0.39198359847068787,1.0896902084350586,0.326470285654068,0.7700822353363037
19671.266142975306,0.421733558177948,0.2332257628440857,-0.9923366904258728,0.9999741315841675,0.42723092436790466,0.20935553312301636,-0.9294975399971008,0.9999469518661499,0.4350723922252655,0.2083345353603363,-0.9296533465385437,0.9999376535415649,0.4424360692501068,0.20758765935897827,-0.929673433303833,0.9999269247055054,0.3956753611564636,0.21067550778388977,-0.959550142288208,0.999955415725708,0.3788212239742279,0.21078908443450928,-0.9596800804138184,0.999950647354126,0.36082693934440613,0.21108803153038025,-0.9598523378372192,0.9999490976333618,0.4309976398944855,0.21375355124473572,-0.5469724535942078,0.9999279975891113,0.3134540617465973,0.21983221173286438,-0.6927118897438049,0.9999606609344482,0.43049055337905884,0.25420624017715454,-0.8481294512748718,0.9999840259552002,0.39599573612213135,0.25663191080093384,-0.8892995119094849,0.9999903440475464,0.521613359451294,0.34476613998413086,-0.2821243703365326,0.9998760223388672,0.16416729986667633,0.3665303885936737,-0.516237199306488,0.999810516834259,0.5706864595413208,0.5097904801368713,-0.056687839329242706,0.9783362150192261,0.13056179881095886,0.5215176939964294,-0.660984456539154,0.9782067537307739,0.6264816522598267,0.6442379355430603,-0.38579052686691284,0.973386287689209,0.25549882650375366,0.5552712678909302,-1.164233922958374,0.9587999582290649,0.6432398557662964,0.6839019060134888,-0.49155953526496887,0.9542341828346252,0.3069005012512207,0.5651184320449829,-1.2927579879760742,0.941598653793335,0.6259719133377075,0.6840291619300842,-0.589043915271759,0.9577730298042297,0.3120453953742981,0.537746250629425,-1.351862907409668,0.9434081315994263,0.6146279573440552,0.6713290810585022,-0.43003058433532715,0.9580499529838562,0.2958028316497803,0.5310609936714172,-1.1934179067611694,0.9286840558052063,0.4806685149669647,0.6372637748718262,0.090318962931633,0.9970836043357849,0.3065149188041687,0.6555827260017395,-0.08994249999523163,0.9979320764541626,0.4730939269065857,0.8365612030029297,0.24471327662467957,0.9538094401359558,0.33870306611061096,0.8707223534584045,0.03965179994702339,0.9722594618797302,0.4797925353050232,0.9619841575622559,1.0500004291534424,0.8876807689666748,0.35629019141197205,0.9904255270957947,0.6876416206359863,0.9135547876358032,0.46103206276893616,0.9702851176261902,1.1084834337234497,0.8346872925758362,0.3548106551170349,0.9907286763191223,0.7356405854225159,0.6930912733078003,0.5299872159957886,1.024204969406128,0.7978896498680115,0.8443487286567688,0.3824315369129181,1.0936081409454346,0.3225680887699127,0.814216673374176
19687.932809641974,0.420635461807251,0.23415327072143555,-0.9364679455757141,0.9999797344207764,0.4270651340484619,0.210333913564682,-0.8748405575752258,0.9999595880508423,0.4354010224342346,0.2092800736427307,-0.8750064969062805,0.9999526739120483,0.4429396986961365,0.2086813747882843,-0.8750324249267578,0.9999455213546753,0.3948517441749573,0.21192052960395813,-0.9053516387939453,0.9999638795852661,0.3771287202835083,0.21228140592575073,-0.9054624438285828,0.9999593496322632,0.35892942547798157,0.213090717792511,-0.9056356549263,0.9999568462371826,0.43327784538269043,0.21546286344528198,-0.505355715751648,0.9999511241912842,0.3107844293117523,0.22162780165672302,-0.6524123549461365,0.9999682903289795,0.4292806386947632,0.2557227313518524,-0.7971999645233154,0.9999892711639404,0.3942735195159912,0.25839003920555115,-0.838758647441864,0.9999927282333374,0.5208609700202942,0.3445301949977875,-0.26214590668678284,0.9999227523803711,0.16598723828792572,0.3662969768047333,-0.48701754212379456,0.9998273849487305,0.5741032958030701,0.5071195363998413,-0.049008291214704514,0.9835013747215271,0.13501711189746857,0.5213502645492554,-0.640230119228363,0.977241039276123,0.6267249584197998,0.6407374143600464,-0.3767802119255066,0.9823300242424011,0.2447638064622879,0.5545605421066284,-1.1531751155853271,0.9625425934791565,0.6436307430267334,0.6816383600234985,-0.4846581816673279,0.9685852527618408,0.29633069038391113,0.5666772127151489,-1.2807058095932007,0.949027419090271,0.625907838344574,0.6809525489807129,-0.5787652134895325,0.971204400062561,0.3027840852737427,0.5401991009712219,-1.345993995666504,0.9511864185333252,0.6161532402038574,0.6686357259750366,-0.4195430874824524,0.9709432721138,0.2877260446548462,0.5325916409492493,-1.1857048273086548,0.9392260313034058,0.4823674261569977,0.6354734301567078,0.07959447801113129,0.9980133771896362,0.31028950214385986,0.6538471579551697,-0.07917220890522003,0.9984872341156006,0.4763880670070648,0.8339312672615051,0.2061186134815216,0.965076744556427,0.3413076102733612,0.8667665719985962,0.04752421751618385,0.9731341600418091,0.47951191663742065,0.9592359662055969,1.027483582496643,0.9059554934501648,0.3582984209060669,0.9827789068222046,0.7109752893447876,0.918495774269104,0.45874205231666565,0.9684479832649231,1.0881041288375854,0.8549491763114929,0.3609723448753357,0.9850843548774719,0.7611373662948608,0.7128366827964783,0.5320374965667725,1.0193618535995483,0.7858837246894836,0.8598507642745972,0.37543538212776184,1.0815167427062988,0.36383235454559326,0.823215901851654
19704.599476308642,0.4186258316040039,0.23380285501480103,-1.001612663269043,0.9999774694442749,0.4258119761943817,0.21034389734268188,-0.9425914287567139,0.9999527931213379,0.4345521330833435,0.20947173237800598,-0.9427208304405212,0.9999457597732544,0.44258442521095276,0.2090277075767517,-0.9427390098571777,0.9999358654022217,0.39245089888572693,0.2116333246231079,-0.9718915820121765,0.9999591112136841,0.37415266036987305,0.21194544434547424,-0.9720267057418823,0.9999551773071289,0.3561462163925171,0.21276745200157166,-0.9721989035606384,0.9999521970748901,0.43464675545692444,0.2160012423992157,-0.5730516910552979,0.9999409914016724,0.30858898162841797,0.2216888666152954,-0.7147482633590698,0.9999634027481079,0.4281732738018036,0.25601449608802795,-0.8614325523376465,0.9999864101409912,0.3914823532104492,0.25836941599845886,-0.901444673538208,0.9999910593032837,0.5206311345100403,0.34467679262161255,-0.3119715452194214,0.9998948574066162,0.16722804307937622,0.3668830394744873,-0.5433220267295837,0.9998169541358948,0.5730389356613159,0.5083989500999451,-0.08087661862373352,0.9789184927940369,0.13145390152931213,0.521831750869751,-0.6824662089347839,0.9779119491577148,0.6245036125183105,0.6417798399925232,-0.3829587697982788,0.9744422435760498,0.2536236643791199,0.5560632944107056,-1.167878270149231,0.9575698971748352,0.6428996920585632,0.6821356415748596,-0.48317551612854004,0.9560260772705078,0.30511897802352905,0.565949559211731,-1.2916581630706787,0.9416399598121643,0.6269019842147827,0.6823790073394775,-0.5783239603042603,0.9596068859100342,0.31003710627555847,0.5384364128112793,-1.354062795639038,0.9436346292495728,0.6166313886642456,0.670016884803772,-0.42556607723236084,0.9602609276771545,0.29482728242874146,0.5311374664306641,-1.1986500024795532,0.9298207759857178,0.479710191488266,0.634730339050293,0.08365315943956375,0.9975433945655823,0.30836400389671326,0.6532077789306641,-0.08325625211000443,0.9982342720031738,0.4734434187412262,0.8352248668670654,0.22553956508636475,0.9625065326690674,0.3388003706932068,0.8641667366027832,0.04360353574156761,0.977301299571991,0.477714478969574,0.9561859965324402,1.0263751745224,0.9119781255722046,0.35526910424232483,0.986493706703186,0.6927297115325928,0.9318673014640808,0.4555895924568176,0.9658631682395935,1.0848852396011353,0.8639957308769226,0.3557736873626709,0.9886705279350281,0.7411501407623291,0.7319563627243042,0.5304754972457886,1.0192756652832031,0.7828511595726013,0.8740016222000122,0.37566617131233215,1.0842585563659668,0.33925485610961914,0.846582293510437
19721.26614297531,0.4222036600112915,0.233322411775589,-1.0052043199539185,0.9999672174453735,0.4281138479709625,0.20995745062828064,-0.9457104206085205,0.9999339580535889,0.4362841248512268,0.2090761363506317,-0.94586181640625,0.9999234676361084,0.4438324570655823,0.2086491584777832,-0.9459440112113953,0.9999117851257324,0.39563852548599243,0.21100729703903198,-0.9783819913864136,0.9999427795410156,0.3779516816139221,0.21111473441123962,-0.9785097241401672,0.999935507774353,0.35914117097854614,0.21184378862380981,-0.9786545634269714,0.9999314546585083,0.4340337812900543,0.21559521555900574,-0.5749720335006714,0.9999157190322876,0.31045129895210266,0.2211500108242035,-0.7320878505706787,0.9999485015869141,0.43032559752464294,0.25507038831710815,-0.8639377951622009,0.9999790191650391,0.39560961723327637,0.25780990719795227,-0.9084480404853821,0.9999856948852539,0.519229531288147,0.34483519196510315,-0.3146546185016632,0.9998536109924316,0.16826656460762024,0.36782798171043396,-0.5588858127593994,0.9997360110282898,0.5716214179992676,0.5090785622596741,-0.08372096717357635,0.9737759828567505,0.1332022100687027,0.5276781916618347,-0.6728078126907349,0.9703705906867981,0.6252475380897522,0.644015371799469,-0.372688353061676,0.9635443091392517,0.26073428988456726,0.5576410293579102,-1.1076805591583252,0.9405604004859924,0.6424257755279541,0.6850022673606873,-0.47016966342926025,0.939231276512146,0.3174518942832947,0.5662208795547485,-1.2272039651870728,0.9204201698303223,0.624387264251709,0.6853317618370056,-0.5667105317115784,0.9441145658493042,0.32003703713417053,0.5387130379676819,-1.289095163345337,0.9230415225028992,0.6123583912849426,0.6720268130302429,-0.4160293936729431,0.9459776282310486,0.30265921354293823,0.5325518846511841,-1.1375370025634766,0.9051158428192139,0.4790397882461548,0.6346593499183655,0.08429824560880661,0.9973915815353394,0.30689823627471924,0.652439534664154,-0.08395098149776459,0.9979743361473083,0.47416725754737854,0.8374384045600891,0.2459980994462967,0.9594196677207947,0.3388429880142212,0.8677664995193481,0.05446230620145798,0.975393533706665,0.48194658756256104,0.9626801609992981,1.0243548154830933,0.9065119624137878,0.3586136996746063,0.9874528646469116,0.693923830986023,0.9326578378677368,0.4612453877925873,0.97132807970047,1.0799281597137451,0.8591921925544739,0.3563416600227356,0.9884132742881775,0.7409822344779968,0.7294913530349731,0.5372604727745056,1.0209181308746338,0.7756664752960205,0.8661779761314392,0.3633715510368347,1.0861842632293701,0.33964064717292786,0.8507237434387207
19737.932809641978,0.4228043854236603,0.23360508680343628,-0.9781249165534973,0.9999688863754272,0.4288688004016876,0.210536926984787,-0.9178192615509033,0.9999369382858276,0.43703293800354004,0.20972341299057007,-0.9179863333702087,0.9999266862869263,0.4445369243621826,0.20937317609786987,-0.9180703163146973,0.9999152421951294,0.39655569195747375,0.21119621396064758,-0.9500946402549744,0.999945878982544,0.37942183017730713,0.21111589670181274,-0.9502246379852295,0.9999388456344604,0.36043781042099,0.2117007076740265,-0.9503909945487976,0.9999363422393799,0.4346972405910492,0.21600720286369324,-0.546373724937439,0.9999204874038696,0.311865895986557,0.22074350714683533,-0.7015795111656189,0.9999527931213379,0.43061932921409607,0.25513744354248047,-0.8368956446647644,0.9999812841415405,0.3959587514400482,0.2575441896915436,-0.8809029459953308,0.9999878406524658,0.5199260711669922,0.3452213704586029,-0.28903573751449585,0.9998620748519897,0.16868196427822113,0.36614730954170227,-0.5289722084999084,0.9997736811637878,0.5708286762237549,0.5100314021110535,-0.06386677175760269,0.9765008687973022,0.13519112765789032,0.5247412919998169,-0.6472495198249817,0.9742669463157654,0.6256659030914307,0.6441325545310974,-0.3712705969810486,0.9683310389518738,0.26053985953330994,0.5573400259017944,-1.0993901491165161,0.9509201645851135,0.6422324776649475,0.6854920387268066,-0.4727236032485962,0.9467169642448425,0.31636083126068115,0.5678972005844116,-1.2204298973083496,0.9328822493553162,0.6243072748184204,0.6857431530952454,-0.5698502659797668,0.9510157108306885,0.3237110376358032,0.5427955389022827,-1.2825167179107666,0.9351099133491516,0.6117660999298096,0.6722254157066345,-0.4152106046676636,0.9522767663002014,0.30481597781181335,0.535626232624054,-1.129058837890625,0.9187533855438232,0.479053258895874,0.6370008587837219,0.08431003242731094,0.997036337852478,0.30608928203582764,0.6543675661087036,-0.08395587652921677,0.9977675676345825,0.4729626178741455,0.8440669775009155,0.21546675264835358,0.956275463104248,0.3368864357471466,0.8702847957611084,0.028315361589193344,0.9723780155181885,0.4827714264392853,0.9648017287254333,1.001861810684204,0.8914235234260559,0.35929062962532043,0.9902620911598206,0.66343092918396,0.9197016358375549,0.46167176961898804,0.9726337790489197,1.0583057403564453,0.84074467420578,0.35724520683288574,0.9898265600204468,0.7099248766899109,0.7002455592155457,0.5382049083709717,1.027095079421997,0.7521980404853821,0.8481864333152771,0.3735686242580414,1.09234619140625,0.3021184802055359,0.8277909755706787
19754.599476308646,0.4222971200942993,0.23205113410949707,-1.0042380094528198,0.9999806880950928,0.4277746379375458,0.208875834941864,-0.9429501891136169,0.9999604225158691,0.4356771409511566,0.20783117413520813,-0.9430659413337708,0.9999532699584961,0.44288012385368347,0.20723119378089905,-0.9430506825447083,0.9999439716339111,0.3964538872241974,0.2102777361869812,-0.9725877642631531,0.9999662637710571,0.37989747524261475,0.21037888526916504,-0.9727015495300293,0.9999628067016602,0.361795574426651,0.2110031545162201,-0.9728567004203796,0.9999605417251587,0.43121805787086487,0.21367889642715454,-0.5711531043052673,0.9999469518661499,0.3138377368450165,0.21899014711380005,-0.7154467701911926,0.9999699592590332,0.43039968609809875,0.25362882018089294,-0.8643873929977417,0.9999877214431763,0.3960324227809906,0.25596117973327637,-0.905131995677948,0.9999922513961792,0.5212848782539368,0.34336137771606445,-0.31939616799354553,0.9998936653137207,0.1650104820728302,0.3668608069419861,-0.5393009185791016,0.9998273849487305,0.5735734105110168,0.5104110836982727,-0.09394065290689468,0.9801663756370544,0.13458187878131866,0.5211102366447449,-0.684050440788269,0.9792927503585815,0.627339243888855,0.6430441737174988,-0.4054231643676758,0.9757996201515198,0.2569364905357361,0.5547745823860168,-1.1783998012542725,0.9644940495491028,0.641976535320282,0.6835781335830688,-0.508967399597168,0.9575847387313843,0.30896300077438354,0.5660493969917297,-1.3047865629196167,0.9495930075645447,0.6239914894104004,0.6835045218467712,-0.6047874093055725,0.9609299302101135,0.3164162039756775,0.5396728515625,-1.3653488159179688,0.9512173533439636,0.6135810613632202,0.6709075570106506,-0.4486536681652069,0.9615487456321716,0.30094659328460693,0.5321507453918457,-1.2084829807281494,0.9387506246566772,0.4798918664455414,0.6350415945053101,0.07453332841396332,0.9980552196502686,0.3086938261985779,0.6527520418167114,-0.07410113513469696,0.998623251914978,0.474552720785141,0.8316859006881714,0.22624081373214722,0.9672998189926147,0.33762624859809875,0.8598932027816772,0.0651075541973114,0.9788493514060974,0.4793151915073395,0.9589474201202393,1.0423698425292969,0.9177807569503784,0.3505168557167053,0.9825154542922974,0.7314490675926208,0.937419056892395,0.4597247838973999,0.9687514901161194,1.1012314558029175,0.8712460398674011,0.35138052701950073,0.9844534397125244,0.7815771102905273,0.7570048570632935,0.5285452604293823,1.0204391479492188,0.7953518629074097,0.8736139535903931,0.35109904408454895,1.0746722221374512,0.3842208981513977,0.8556391000747681
19771.266142975313,0.42208656668663025,0.2349550724029541,-0.960287868976593,0.9999697208404541,0.4294385313987732,0.2113693356513977,-0.9019468426704407,0.9999382495880127,0.43772265315055847,0.21029481291770935,-0.9020683169364929,0.9999297857284546,0.4450046122074127,0.209633469581604,-0.9021061062812805,0.9999192953109741,0.396838515996933,0.21327775716781616,-0.934586763381958,0.9999449253082275,0.37923961877822876,0.2138243317604065,-0.9347087740898132,0.999940037727356,0.36051231622695923,0.2147444188594818,-0.934879720211029,0.9999347925186157,0.43482455611228943,0.21634522080421448,-0.5409714579582214,0.9999260902404785,0.31211861968040466,0.223090261220932,-0.698302686214447,0.9999486207962036,0.43038278818130493,0.25635796785354614,-0.823150634765625,0.999983549118042,0.39592310786247253,0.25942257046699524,-0.8676807284355164,0.9999884366989136,0.519758939743042,0.3449375331401825,-0.29335498809814453,0.9998971223831177,0.1702359914779663,0.3656296730041504,-0.5355392694473267,0.9997397065162659,0.5734592080116272,0.5090480446815491,-0.048025526106357574,0.9793850183486938,0.13336408138275146,0.5216532945632935,-0.6780005097389221,0.9717409014701843,0.627342164516449,0.6429280638694763,-0.31259605288505554,0.9756742119789124,0.24730384349822998,0.558380663394928,-1.1446845531463623,0.9440611004829407,0.6426107883453369,0.6833835244178772,-0.4056604206562042,0.9580560922622681,0.300728440284729,0.5681250095367432,-1.264263391494751,0.9269341826438904,0.6246941685676575,0.6830887794494629,-0.4974828064441681,0.9616408944129944,0.3048052191734314,0.5412743091583252,-1.32715904712677,0.9297782182693481,0.6153111457824707,0.6710854768753052,-0.35292139649391174,0.9623098373413086,0.2889183759689331,0.5346031188964844,-1.1757841110229492,0.9146573543548584,0.4823888838291168,0.6338061690330505,0.08285434544086456,0.9978887438774109,0.30924710631370544,0.6532332897186279,-0.08246295154094696,0.998144268989563,0.475691556930542,0.8344374299049377,0.19120104610919952,0.9646271467208862,0.3411716818809509,0.8673080205917358,0.047826774418354034,0.9710215926170349,0.4784923791885376,0.9571443796157837,1.0074735879898071,0.9091214537620544,0.35328227281570435,0.9842981696128845,0.7259241938591003,0.9172827005386353,0.4575542211532593,0.967811644077301,1.0684231519699097,0.8471376895904541,0.3521207571029663,0.9854288697242737,0.7779731750488281,0.6952505111694336,0.529471755027771,1.0223361253738403,0.7677000761032104,0.8636487126350403,0.3753030002117157,1.0827269554138184,0.38151687383651733,0.8199267983436584
19787.93280964198,0.4262152314186096,0.23168447613716125,-0.9284380674362183,0.999976396560669,0.431521475315094,0.20895040035247803,-0.8691500425338745,0.9999526739120483,0.43898001313209534,0.20806840062141418,-0.8692622184753418,0.999945878982544,0.4456762373447418,0.20762646198272705,-0.869297206401825,0.9999376535415649,0.40109872817993164,0.20973113179206848,-0.9060077667236328,0.999958872795105,0.38528817892074585,0.2096426784992218,-0.9061229228973389,0.9999558925628662,0.3663214147090912,0.2100536823272705,-0.9062777161598206,0.9999526739120483,0.43199339509010315,0.2140357792377472,-0.5113113522529602,0.9999436140060425,0.3168998956680298,0.21817699074745178,-0.688342273235321,0.9999630451202393,0.4326364994049072,0.253262460231781,-0.7926865816116333,0.9999872446060181,0.3998924791812897,0.2553655803203583,-0.8429322242736816,0.9999912977218628,0.5178101658821106,0.3427172303199768,-0.2758631408214569,0.9999101161956787,0.16671429574489594,0.363202303647995,-0.5240459442138672,0.999776303768158,0.5744647979736328,0.5084631443023682,-0.029873764142394066,0.9833322763442993,0.13189557194709778,0.5185031294822693,-0.6707978844642639,0.9784019589424133,0.6276736259460449,0.6432867050170898,-0.2994832694530487,0.9803184866905212,0.24584197998046875,0.5567595958709717,-1.1446176767349243,0.9608380198478699,0.6425079107284546,0.6840226650238037,-0.3951666057109833,0.9641863107681274,0.296877920627594,0.5670998096466064,-1.2646441459655762,0.9464882612228394,0.624167799949646,0.6834407448768616,-0.4851326644420624,0.9671862125396729,0.3017108738422394,0.5408181548118591,-1.3268883228302002,0.9485494494438171,0.6144160032272339,0.6712392568588257,-0.33936527371406555,0.9675301313400269,0.2866853177547455,0.5336719751358032,-1.1749279499053955,0.9360027313232422,0.48213788866996765,0.6343096494674683,0.07186925411224365,0.9979670643806458,0.30857521295547485,0.6530045866966248,-0.07146422564983368,0.9982306361198425,0.47726431488990784,0.8352875709533691,0.1690070778131485,0.9661589860916138,0.3419545590877533,0.8656470775604248,0.04428573697805405,0.9642589092254639,0.4814866781234741,0.9591609239578247,0.9963169097900391,0.8982918858528137,0.35425788164138794,0.9830406904220581,0.7185670137405396,0.8968682885169983,0.4624469578266144,0.9687947630882263,1.058255672454834,0.8290881514549255,0.35382845997810364,0.9848446249961853,0.7703903317451477,0.6610516309738159,0.5293169617652893,1.0235962867736816,0.7578220963478088,0.8434536457061768,0.373299241065979,1.0832082033157349,0.3749714493751526,0.7868686318397522
19804.59947630865,0.4239068329334259,0.2298424243927002,-0.9162493348121643,0.9999600648880005,0.42904046177864075,0.2071056067943573,-0.8584752082824707,0.9999203681945801,0.4371769428253174,0.20623350143432617,-0.8586276173591614,0.9999126195907593,0.4446395933628082,0.2053338587284088,-0.8587384223937988,0.9999037981033325,0.3973746597766876,0.20841380953788757,-0.8921730518341064,0.9999257326126099,0.38076722621917725,0.20860782265663147,-0.8922823667526245,0.9999185800552368,0.3622998297214508,0.20915216207504272,-0.8924434185028076,0.9999102354049683,0.4348909854888916,0.212802916765213,-0.5089535713195801,0.9999139308929443,0.31404736638069153,0.21883037686347961,-0.6713464260101318,0.9999314546585083,0.43058300018310547,0.25276026129722595,-0.7834710478782654,0.99997878074646,0.39762142300605774,0.25498199462890625,-0.829596221446991,0.9999837875366211,0.5179707407951355,0.34409981966018677,-0.2798507511615753,0.9998795986175537,0.1706090271472931,0.36493584513664246,-0.5164498686790466,0.9996273517608643,0.5727753639221191,0.5080955624580383,-0.04448176175355911,0.9774662852287292,0.13454857468605042,0.520026445388794,-0.6417257785797119,0.9604915976524353,0.6253092288970947,0.6408154368400574,-0.2912440896034241,0.971158504486084,0.2523634433746338,0.557526171207428,-1.0601239204406738,0.9122028946876526,0.640540599822998,0.6834425926208496,-0.3810831606388092,0.9513333439826965,0.3061407804489136,0.5687534213066101,-1.1721100807189941,0.8917421102523804,0.6231086254119873,0.6828529238700867,-0.470985472202301,0.9556801915168762,0.31296929717063904,0.5433498620986938,-1.234082579612732,0.8961645364761353,0.6129403710365295,0.670204758644104,-0.3306563198566437,0.9568772315979004,0.2976936399936676,0.5365338325500488,-1.0905146598815918,0.878627598285675,0.48197072744369507,0.629518985748291,0.08037018775939941,0.9970355033874512,0.30950385332107544,0.647966206073761,-0.0800088495016098,0.9972991347312927,0.477576345205307,0.8359050750732422,0.19764669239521027,0.9569878578186035,0.3442961871623993,0.866398274898529,0.03213735297322273,0.9653774499893188,0.48193880915641785,0.9611506462097168,0.9797151684761047,0.8853303790092468,0.3588123619556427,0.9849684834480286,0.6598115563392639,0.896006166934967,0.4633188843727112,0.9695773720741272,1.037375807762146,0.8028934001922607,0.35837849974632263,0.9843952059745789,0.7073001861572266,0.6392491459846497,0.5365357398986816,1.020811676979065,0.7438046932220459,0.8236589431762695,0.3866198658943176,1.0851194858551025,0.3194827735424042,0.7783573865890503
19821.266142975317,0.42473894357681274,0.23328793048858643,-0.9427682161331177,0.9999661445617676,0.43128180503845215,0.2099803388118744,-0.8818183541297913,0.9999322891235352,0.4388280212879181,0.2091957926750183,-0.8819808959960938,0.9999228715896606,0.445728600025177,0.20862123370170593,-0.8820756673812866,0.9999144077301025,0.40035080909729004,0.21098953485488892,-0.9214572906494141,0.9999368190765381,0.3833223581314087,0.21099931001663208,-0.9215646982192993,0.9999305009841919,0.36418795585632324,0.21153885126113892,-0.9217254519462585,0.9999251365661621,0.4336755573749542,0.21511822938919067,-0.517283022403717,0.9999274015426636,0.31353121995925903,0.2196001410484314,-0.705946683883667,0.9999403953552246,0.43095654249191284,0.2553659975528717,-0.8039591908454895,0.9999833106994629,0.3971670866012573,0.2578270435333252,-0.8578031659126282,0.9999873638153076,0.5169102549552917,0.3452340364456177,-0.28317511081695557,0.9999061822891235,0.1631658375263214,0.3668670952320099,-0.5330802202224731,0.9996531009674072,0.5723145604133606,0.5110490918159485,-0.036424510180950165,0.981212317943573,0.13374339044094086,0.5243172645568848,-0.6725718379020691,0.9655523896217346,0.6279394626617432,0.645035982131958,-0.31558728218078613,0.9764516353607178,0.25026485323905945,0.5595263838768005,-1.1485748291015625,0.9417470693588257,0.6419510841369629,0.685746967792511,-0.4150140881538391,0.9583565592765808,0.3062143325805664,0.5681029558181763,-1.2727195024490356,0.9258425235748291,0.6237698793411255,0.6853628158569336,-0.5084779262542725,0.9620077013969421,0.3082130551338196,0.5406836867332458,-1.335364580154419,0.9285156726837158,0.614693284034729,0.6730999946594238,-0.35712140798568726,0.9622876644134521,0.292059063911438,0.5339574217796326,-1.1796742677688599,0.9102455377578735,0.4816659688949585,0.6335828900337219,0.07056081295013428,0.9981366395950317,0.30730172991752625,0.6515886783599854,-0.07017389684915543,0.9981690645217896,0.4744124114513397,0.8399458527565002,0.16705892980098724,0.9695744514465332,0.34236109256744385,0.8682819604873657,0.05374673008918762,0.9642093777656555,0.4809475541114807,0.9598667621612549,1.0645835399627686,0.9046424031257629,0.3582606315612793,0.9838835597038269,0.780998706817627,0.9049582481384277,0.46448832750320435,0.9685884714126587,1.1335452795028687,0.830625057220459,0.3597486913204193,0.984446108341217,0.8380368947982788,0.6679621934890747,0.5295778512954712,1.0215003490447998,0.8253783583641052,0.8545014262199402,0.37326520681381226,1.0802711248397827,0.43733033537864685,0.8065292239189148
19837.932809641985,0.4236868917942047,0.2340327501296997,-0.9387180805206299,0.9999666213989258,0.4314495325088501,0.21029892563819885,-0.8779107332229614,0.9999337196350098,0.43947815895080566,0.20928648114204407,-0.8780685067176819,0.9999254941940308,0.4463421106338501,0.20865121483802795,-0.8781494498252869,0.9999159574508667,0.3997357189655304,0.2118993103504181,-0.9130234718322754,0.9999393224716187,0.38224509358406067,0.21221163868904114,-0.9131289124488831,0.9999336004257202,0.3631887137889862,0.21307262778282166,-0.9132970571517944,0.9999279975891113,0.43511301279067993,0.21519476175308228,-0.5104049444198608,0.9999250173568726,0.3133406639099121,0.22138261795043945,-0.6789349913597107,0.999943733215332,0.4310130476951599,0.25580114126205444,-0.7991951107978821,0.9999817609786987,0.39701128005981445,0.25858795642852783,-0.847181499004364,0.9999867677688599,0.5193641185760498,0.34520435333251953,-0.26670846343040466,0.9998937845230103,0.16522561013698578,0.365164190530777,-0.510296642780304,0.9996986389160156,0.5717059373855591,0.5109018087387085,-0.022683657705783844,0.9774065017700195,0.13262474536895752,0.5209364891052246,-0.6584881544113159,0.9656890034675598,0.6270585060119629,0.644440233707428,-0.3012290596961975,0.9724522829055786,0.24739356338977814,0.5581976175308228,-1.143763780593872,0.9348689317703247,0.6424823999404907,0.6853726506233215,-0.39738714694976807,0.9532026052474976,0.301497220993042,0.5676999092102051,-1.2668312788009644,0.9168875813484192,0.6247422695159912,0.6843011379241943,-0.49156609177589417,0.9572526812553406,0.3041365146636963,0.5401930809020996,-1.328735113143921,0.9199338555335999,0.6153677105903625,0.6719281673431396,-0.34309878945350647,0.9575035572052002,0.2884366512298584,0.5330290794372559,-1.1749401092529297,0.9014719724655151,0.48128268122673035,0.6345911622047424,0.07841920852661133,0.9977573752403259,0.30592596530914307,0.6523876190185547,-0.07802043110132217,0.9980050921440125,0.4759218394756317,0.8373156785964966,0.19004637002944946,0.965389609336853,0.34167376160621643,0.8678767681121826,0.04108655825257301,0.9685220718383789,0.48191767930984497,0.9598482251167297,1.0349769592285156,0.9004504680633545,0.3559398055076599,0.985163688659668,0.7231072783470154,0.9093056321144104,0.46316564083099365,0.968589186668396,1.0983638763427734,0.8287222981452942,0.3555248975753784,0.9845342636108398,0.7753674983978271,0.6760334372520447,0.5335873961448669,1.0209978818893433,0.7911967039108276,0.8500313758850098,0.3795940577983856,1.0831682682037354,0.37349334359169006,0.8106876015663147
19854.599476308653,0.426546186208725,0.23326376080513,-0.9649468660354614,0.9999740123748779,0.43132996559143066,0.21019214391708374,-0.9050671458244324,0.9999469518661499,0.43872296810150146,0.20912805199623108,-0.9051880240440369,0.9999388456344604,0.44543972611427307,0.20848503708839417,-0.9052427411079407,0.9999301433563232,0.4006437659263611,0.21141809225082397,-0.9427483081817627,0.9999536275863647,0.3845767676830292,0.2114626169204712,-0.9428571462631226,0.9999500513076782,0.36528491973876953,0.21188366413116455,-0.943001925945282,0.9999462366104126,0.43198561668395996,0.21466246247291565,-0.5413541197776794,0.9999357461929321,0.3152765929698944,0.2197798192501068,-0.7224114537239075,0.9999587535858154,0.4329885244369507,0.2544742524623871,-0.8266982436180115,0.9999854564666748,0.40016525983810425,0.25716179609298706,-0.8780828714370728,0.9999901056289673,0.5183671116828918,0.34328579902648926,-0.2956297695636749,0.9999047517776489,0.16276656091213226,0.3658784329891205,-0.5560760498046875,0.9997493624687195,0.5748479962348938,0.509053647518158,-0.0400494821369648,0.9820168614387512,0.13317348062992096,0.5232604742050171,-0.6970617175102234,0.976341724395752,0.6264994740486145,0.6436235904693604,-0.30783024430274963,0.9787180423736572,0.24755141139030457,0.5581806898117065,-1.1623784303665161,0.9567185640335083,0.6414812803268433,0.6854755282402039,-0.40334343910217285,0.9617875218391418,0.30126020312309265,0.5672361254692078,-1.2847709655761719,0.9419044852256775,0.6221073865890503,0.6853888630867004,-0.495415598154068,0.9650910496711731,0.30401796102523804,0.5400862693786621,-1.3460817337036133,0.9442417621612549,0.6119746565818787,0.6727142333984375,-0.3486473560333252,0.9657761454582214,0.28778666257858276,0.5329820513725281,-1.1924229860305786,0.9304802417755127,0.4824712574481964,0.6334538459777832,0.07891020178794861,0.9980194568634033,0.3079959452152252,0.6527509689331055,-0.07851041108369827,0.9982321858406067,0.47577133774757385,0.8372750282287598,0.20563872158527374,0.9626290202140808,0.3417925536632538,0.8647016882896423,0.05433385446667671,0.9667378067970276,0.4811481237411499,0.9582611322402954,1.058608055114746,0.8924119472503662,0.35535740852355957,0.982411801815033,0.7423684597015381,0.9029669165611267,0.46221351623535156,0.9680987596511841,1.1237092018127441,0.8352757096290588,0.35411590337753296,0.9847322702407837,0.7962056398391724,0.6811845302581787,0.5335044860839844,1.020198106765747,0.8298794627189636,0.8391739130020142,0.3783993124961853,1.080243706703186,0.4041329026222229,0.7943612933158875
19871.26614297532,0.42337286472320557,0.23470598459243774,-0.944819986820221,0.9999701976776123,0.42999303340911865,0.21084490418434143,-0.8828281760215759,0.9999411106109619,0.43796560168266296,0.2097703218460083,-0.8829939961433411,0.9999324083328247,0.44490107893943787,0.2091023325920105,-0.8830586671829224,0.9999241828918457,0.39820241928100586,0.21257704496383667,-0.916271984577179,0.9999456405639648,0.3806176483631134,0.21290233731269836,-0.9163649678230286,0.9999390840530396,0.36190158128738403,0.2136824131011963,-0.916512668132782,0.9999334812164307,0.4337707757949829,0.21538618206977844,-0.5142902135848999,0.9999289512634277,0.31254908442497253,0.2220090925693512,-0.6744885444641113,0.99994957447052,0.43150654435157776,0.25606685876846313,-0.8061367273330688,0.9999840259552002,0.3972812592983246,0.2590460181236267,-0.8514702320098877,0.9999881982803345,0.519682765007019,0.345553457736969,-0.26895833015441895,0.9998990297317505,0.16864663362503052,0.3671470284461975,-0.5232718586921692,0.9997398257255554,0.5717601776123047,0.508391797542572,-0.03724486008286476,0.9769065976142883,0.1352987438440323,0.5216993093490601,-0.6569309234619141,0.9677181839942932,0.626700222492218,0.6420941948890686,-0.32715341448783875,0.973301351070404,0.24789784848690033,0.5582355260848999,-1.1155502796173096,0.9366872906684875,0.6436257362365723,0.6831732988357544,-0.42665982246398926,0.9549351930618286,0.2965463101863861,0.5694619417190552,-1.2385464906692505,0.9193257093429565,0.6253165602684021,0.6831163167953491,-0.5213325023651123,0.9590967297554016,0.30326902866363525,0.5439064502716064,-1.304837942123413,0.9229172468185425,0.6148316860198975,0.6707218885421753,-0.37015265226364136,0.9598507285118103,0.2884141504764557,0.5367832779884338,-1.1486328840255737,0.9067240953445435,0.4804970622062683,0.6364669799804688,0.09464307129383087,0.9980046153068542,0.30933961272239685,0.6552576422691345,-0.09427545964717865,0.9982321858406067,0.4764632284641266,0.8379765748977661,0.24584877490997314,0.9564692378044128,0.34249961376190186,0.8678105473518372,0.0534108430147171,0.9722632765769958,0.4803593158721924,0.9615265130996704,1.068368911743164,0.8975649476051331,0.35803475975990295,0.9861074090003967,0.7277953028678894,0.9170709252357483,0.46051445603370667,0.9715055227279663,1.1300686597824097,0.8489382266998291,0.35457849502563477,0.9876804947853088,0.779723048210144,0.7034668326377869,0.5389901399612427,1.019863486289978,0.8321279883384705,0.8571544289588928,0.38664403557777405,1.0807075500488281,0.38660523295402527,0.8237446546554565
19887.93280964199,0.4240511357784271,0.23637300729751587,-0.9225293397903442,0.9999697208404541,0.431017130613327,0.21278733015060425,-0.8650965690612793,0.9999375343322754,0.4387019872665405,0.2117173969745636,-0.8652777671813965,0.9999291896820068,0.4457671642303467,0.21103167533874512,-0.8653976321220398,0.9999210834503174,0.3993913531303406,0.21408435702323914,-0.8987832069396973,0.9999457597732544,0.38231220841407776,0.21413931250572205,-0.8989220857620239,0.9999397993087769,0.36305561661720276,0.21454328298568726,-0.8990951180458069,0.9999363422393799,0.4342907965183258,0.21698185801506042,-0.5077226758003235,0.9999305009841919,0.3122607469558716,0.22214296460151672,-0.6695713996887207,0.9999520778656006,0.4307805001735687,0.2577609717845917,-0.7855124473571777,0.999983549118042,0.39660173654556274,0.26066577434539795,-0.8315644860267639,0.9999886751174927,0.5193614363670349,0.34451955556869507,-0.2731987535953522,0.9998912811279297,0.16274923086166382,0.36446040868759155,-0.5029257535934448,0.9997437596321106,0.5728186368942261,0.51075279712677,-0.04322565346956253,0.9808157086372375,0.13282616436481476,0.5225475430488586,-0.6281870603561401,0.9704857468605042,0.6272486448287964,0.6446018815040588,-0.3164987862110138,0.9748709797859192,0.2472214251756668,0.5598752498626709,-1.0717445611953735,0.94150710105896,0.6418506503105164,0.686168372631073,-0.41430795192718506,0.956379771232605,0.3008009195327759,0.5692674517631531,-1.1885254383087158,0.9236510396003723,0.622683048248291,0.6854298114776611,-0.5064183473587036,0.9601189494132996,0.30372655391693115,0.543213963508606,-1.251531958580017,0.9269530177116394,0.6127386689186096,0.67290860414505,-0.3573401868343353,0.960668683052063,0.2880248427391052,0.5368999242782593,-1.102249026298523,0.9112161993980408,0.48326537013053894,0.6352227926254272,0.07360957562923431,0.9965813755989075,0.3085987865924835,0.654132604598999,-0.07317870855331421,0.99729984998703,0.477826863527298,0.8425517082214355,0.20042109489440918,0.9632652401924133,0.34516769647598267,0.8761516213417053,0.040433090180158615,0.9686346054077148,0.4831558167934418,0.9640105366706848,1.0046504735946655,0.8846948742866516,0.3612814247608185,0.9914435744285583,0.6741971969604492,0.9007664322853088,0.4649394154548645,0.971824586391449,1.065003752708435,0.8159494400024414,0.3620050549507141,0.9912293553352356,0.722507655620575,0.6581054329872131,0.5347545146942139,1.0245943069458008,0.7724613547325134,0.8273273706436157,0.38704434037208557,1.0981080532073975,0.3260633647441864,0.7859571576118469
19904.599476308656,0.42577818036079407,0.2352721393108368,-0.9364317059516907,0.9999738931655884,0.43226519227027893,0.21142101287841797,-0.8769039511680603,0.9999483823776245,0.44000566005706787,0.2101987898349762,-0.8770877718925476,0.9999419450759888,0.4469369947910309,0.20942005515098572,-0.8772063255310059,0.9999346733093262,0.40057283639907837,0.21312040090560913,-0.9097427725791931,0.9999527931213379,0.38375917077064514,0.21325403451919556,-0.9098594188690186,0.9999474287033081,0.36421382427215576,0.21375441551208496,-0.9099955558776855,0.9999434947967529,0.43408164381980896,0.21538296341896057,-0.5130941271781921,0.9999420642852783,0.31283658742904663,0.22153818607330322,-0.6707342863082886,0.9999572038650513,0.4323579967021942,0.2564117908477783,-0.7976517677307129,0.9999861717224121,0.39844411611557007,0.2595849931240082,-0.8424041271209717,0.9999902248382568,0.5180218815803528,0.3434790074825287,-0.2761644423007965,0.9999122619628906,0.16208815574645996,0.3645514249801636,-0.5002653002738953,0.9997338652610779,0.5726715326309204,0.5107647180557251,-0.05428989231586456,0.9823052883148193,0.13081829249858856,0.5250555276870728,-0.632084846496582,0.9706700444221497,0.625784158706665,0.643439769744873,-0.3457009196281433,0.9779089689254761,0.24518904089927673,0.5593838095664978,-1.0906693935394287,0.9432817101478577,0.640642523765564,0.6853262782096863,-0.4470795691013336,0.9611263275146484,0.3023951053619385,0.5677275657653809,-1.2109360694885254,0.9250952005386353,0.6218087673187256,0.6846117973327637,-0.5387027263641357,0.9643900394439697,0.3028109073638916,0.5399721264839172,-1.2705506086349487,0.9280831813812256,0.6119078397750854,0.6720268130302429,-0.3865852952003479,0.9644315242767334,0.28628015518188477,0.5335111021995544,-1.1201987266540527,0.9123637676239014,0.4803362786769867,0.6337759494781494,0.07990354299545288,0.9972199201583862,0.30744701623916626,0.6534966230392456,-0.0795309767127037,0.9975277781486511,0.4780729115009308,0.844194769859314,0.20845896005630493,0.9629396200180054,0.3446443974971771,0.8764349222183228,0.04288320988416672,0.9699132442474365,0.48473432660102844,0.9659367203712463,1.035826325416565,0.8885411620140076,0.361036092042923,0.991015613079071,0.6978508234024048,0.9034907221794128,0.46639785170555115,0.9729604125022888,1.0982574224472046,0.8142277002334595,0.3753281533718109,1.0252418518066406,0.7484844923019409,0.6633696556091309,0.5378707647323608,1.0266633033752441,0.8022664189338684,0.8311534523963928,0.3922249674797058,1.0959796905517578,0.3518929183483124,0.7921040058135986
