0,1
19171.26614297527,163.0
19171.266205472504,-80.0
19171.266267969742,387.0
19171.26633046698,649.0
19171.26639296422,1077.0
19171.266455461453,1189.0
19171.26651795869,1030.0
19171.26658045593,1401.0
19171.266642953167,891.0
19171.2667054504,384.0
19171.26676794764,1133.0
19171.266830444878,1108.0
19171.266892942112,733.0
19171.26695543935,1070.0
19171.26701793659,1152.0
19171.267080433827,1380.0
19171.26714293106,1610.0
19171.2672054283,1048.0
19171.267267925537,685.0
19171.267330422776,1008.0
19171.26739292001,1291.0
19171.267455417248,1359.0
19171.267517914486,995.0
19171.267580411724,1159.0
19171.26764290896,1681.0
19171.267705406197,2261.0
19171.267767903435,1834.0
19171.267830400673,828.0
19171.267892897908,1054.0
19171.267955395146,947.0
19171.268017892384,803.0
19171.268080389622,959.0
19171.268142886856,861.0
19171.268205384094,1266.0
19171.268267881333,1651.0
19171.268330378567,1374.0
19171.268392875805,816.0
19171.268455373043,620.0
19171.26851787028,667.0
19171.26858036752,1085.0
19171.268642864754,900.0
19171.268705361992,19.0
19171.26876785923,-14.0
19171.268830356465,478.0
19171.268892853703,1014.0
19171.26895535094,809.0
19171.26901784818,921.0
19171.269080345413,1174.0
19171.26914284265,940.0
19171.26920533989,963.0
19171.269267837128,609.0
19171.269330334362,-106.0
19171.2693928316,-392.0
19171.26945532884,56.0
19171.269517826076,-46.0
19171.26958032331,-369.0
19171.26964282055,-288.0
19171.269705317787,59.0
19171.269767815025,767.0
19171.26983031226,788.0
19171.269892809498,-82.0
19171.269955306736,-453.0
19171.270017803974,-158.0
19171.27008030121,300.0
19171.270142798447,149.0
19171.270205295685,-265.0
19171.27026779292,10.0
19171.270330290157,838.0
19171.270392787395,981.0
19171.270455284633,438.0
19171.270517781868,234.0
19171.270580279106,-321.0
19171.270642776344,-563.0
19171.270705273582,-496.0
19171.270767770817,-827.0
19171.270830268055,-917.0
19171.270892765293,-630.0
19171.27095526253,-692.0
19171.271017759766,-816.0
19171.271080257004,-939.0
19171.27114275424,-839.0
19171.27120525148,-518.0
19171.271267748714,-277.0
19171.271330245952,-565.0
19171.27139274319,-1244.0
19171.27145524043,-1804.0
19171.271517737663,-1857.0
19171.2715802349,-1526.0
19171.27164273214,-1684.0
19171.271705229377,-1576.0
19171.271767726612,-1390.0
19171.27183022385,-1285.0
19171.271892721088,-1305.0
19171.271955218326,-1436.0
19171.27201771556,-1274.0
19171.2720802128,-803.0
19171.272142710037,-545.0
19171.27220520727,-847.0
19171.27226770451,-1451.0
19171.272330201748,-1992.0
19171.272392698986,-2275.0
19171.27245519622,-1973.0
19171.27251769346,-1496.0
19171.272580190696,-1056.0
19171.272642687934,-667.0
19171.27270518517,-408.0
19171.272767682407,-388.0
19171.272830179645,-715.0
19171.272892676883,-533.0
19171.272955174118,-191.0
19171.273017671356,-297.0
19171.273080168594,-315.0
19171.273142665832,-323.0
19171.273205163066,-847.0
19171.273267660305,-951.0
19171.273330157543,-387.0
19171.27339265478,-165.0
19171.273455152015,509.0
19171.273517649253,739.0
19171.27358014649,719.0
19171.273642643726,387.0
19171.273705140964,67.0
19171.273767638202,868.0
19171.27383013544,1190.0
19171.27389263268,584.0
19171.273955129913,-210.0
19171.27401762715,-279.0
19171.27408012439,-108.0
19171.274142621623,-565.0
19171.27420511886,-971.0
19171.2742676161,-453.0
19171.274330113338,218.0
19171.274392610572,718.0
19171.27445510781,660.0
19171.27451760505,264.0
19171.274580102287,-24.0
19171.27464259952,63.0
19171.27470509676,282.0
19171.274767593997,143.0
19171.274830091235,-123.0
19171.27489258847,64.0
19171.274955085708,658.0
19171.275017582946,744.0
19171.275080080184,857.0
19171.27514257742,857.0
19171.275205074657,844.0
19171.275267571895,1242.0
19171.275330069133,576.0
19171.275392566367,-203.0
19171.275455063605,72.0
19171.275517560844,151.0
19171.275580058078,564.0
19171.275642555316,788.0
19171.275705052554,528.0
19171.275767549792,760.0
19171.275830047027,854.0
19171.275892544265,1625.0
19171.275955041503,2085.0
19171.27601753874,1482.0
19171.276080035976,1221.0
19171.276142533214,1337.0
19171.276205030452,1506.0
19171.27626752769,890.0
19171.276330024924,-139.0
19171.276392522162,82.0
19171.2764550194,696.0
19171.27651751664,827.0
19171.276580013873,584.0
19171.27664251111,643.0
19171.27670500835,995.0
19171.276767505587,961.0
19171.276830002822,625.0
19171.27689250006,54.0
19171.276954997298,-582.0
19171.277017494536,12.0
19171.27707999177,589.0
19171.27714248901,282.0
19171.277204986247,4.0
19171.277267483485,-137.0
19171.27732998072,-164.0
19171.277392477958,-342.0
19171.277454975196,-4.0
19171.27751747243,-123.0
19171.27757996967,434.0
19171.277642466906,-111.0
19171.277704964145,-574.0
19171.27776746138,270.0
19171.277829958617,-302.0
19171.277892455855,-547.0
19171.277954953093,35.0
19171.278017450328,18.0
19171.278079947566,-102.0
19171.278142444804,-288.0
19171.278204942042,-838.0
19171.278267439277,-1046.0
19171.278329936515,-612.0
19171.278392433753,-414.0
19171.27845493099,-593.0
19171.278517428225,-940.0
19171.278579925463,-1390.0
19171.2786424227,-1554.0
19171.27870491994,-1227.0
19171.278767417174,-1929.0
19171.278829914412,-2501.0
19171.27889241165,-2236.0
19171.278954908885,-2140.0
19171.279017406123,-1907.0
19171.27907990336,-1745.0
19171.2791424006,-1599.0
19171.279204897837,-1461.0
19171.27926739507,-1075.0
19171.27932989231,-1050.0
19171.279392389548,-1473.0
19171.279454886782,-866.0
19171.27951738402,-397.0
19171.27957988126,-805.0
19171.279642378497,-1063.0
19171.27970487573,-1233.0
19171.27976737297,-798.0
19171.279829870207,-1005.0
19171.279892367445,-1027.0
19171.27995486468,-719.0
19171.280017361918,-970.0
19171.280079859156,-1034.0
19171.280142356394,-1069.0
19171.28020485363,-960.0
19171.280267350867,-1203.0
19171.280329848105,-1160.0
19171.280392345343,-1101.0
19171.280454842577,-1431.0
19171.280517339816,-1103.0
19171.280579837054,-868.0
19171.28064233429,-580.0
19171.280704831526,-327.0
19171.280767328764,-514.0
19171.280829826002,-596.0
19171.280892323237,-585.0
19171.280954820475,-763.0
19171.281017317713,-965.0
19171.28107981495,-451.0
19171.281142312186,340.0
19171.281204809424,499.0
19171.281267306662,30.0
19171.2813298039,363.0
19171.281392301134,722.0
19171.281454798373,391.0
19171.28151729561,716.0
19171.28157979285,511.0
19171.281642290083,47.0
19171.28170478732,568.0
19171.28176728456,849.0
19171.281829781798,680.0
19171.281892279032,866.0
19171.28195477627,1578.0
19171.28201727351,1719.0
19171.282079770746,1130.0
19171.28214226798,1517.0
19171.28220476522,1401.0
19171.282267262457,1144.0
19171.282329759695,1441.0
19171.28239225693,1058.0
19171.282454754168,1682.0
19171.282517251406,2327.0
19171.282579748644,1889.0
19171.28264224588,1624.0
19171.282704743116,1813.0
19171.282767240355,1975.0
19171.28282973759,1553.0
19171.282892234827,1137.0
19171.282954732065,1472.0
19171.283017229303,2179.0
19171.283079726538,1889.0
19171.283142223776,995.0
19171.283204721014,619.0
19171.283267218252,609.0
19171.283329715487,1384.0
19171.283392212725,1415.0
19171.283454709963,802.0
19171.2835172072,607.0
19171.283579704435,573.0
19171.283642201674,617.0
19171.28370469891,457.0
19171.28376719615,466.0
19171.283829693384,503.0
19171.283892190622,337.0
19171.28395468786,406.0
19171.2840171851,-169.0
19171.284079682333,-1083.0
19171.28414217957,-681.0
19171.28420467681,421.0
19171.284267174044,62.0
19171.28432967128,-967.0
19171.28439216852,-1337.0
19171.284454665758,-1436.0
19171.284517162996,-1365.0
19171.28457966023,-1201.0
19171.28464215747,-1326.0
19171.284704654707,-1251.0
19171.28476715194,-959.0
19171.28482964918,-1104.0
19171.284892146417,-1089.0
19171.284954643656,-1363.0
19171.28501714089,-1815.0
19171.285079638128,-2137.0
19171.285142135366,-1942.0
19171.285204632604,-1326.0
19171.28526712984,-789.0
19171.285329627077,-163.0
19171.285392124315,157.0
19171.285454621553,323.0
19171.285517118788,-362.0
19171.285579616026,-1098.0
19171.285642113264,-1453.0
19171.285704610502,-2234.0
19171.285767107736,-2442.0
19171.285829604974,-2360.0
19171.285892102213,-2345.0
19171.28595459945,-1975.0
19171.286017096685,-2063.0
19171.286079593923,-2104.0
19171.28614209116,-1573.0
19171.286204588396,-1700.0
19171.286267085634,-1920.0
19171.286329582872,-1441.0
19171.28639208011,-1127.0
19171.28645457735,-808.0
19171.286517074583,-109.0
19171.28657957182,-178.0
19171.28664206906,-499.0
19171.286704566293,-717.0
19171.28676706353,-993.0
19171.28682956077,-62.0
19171.286892058008,316.0
19171.286954555242,-402.0
19171.28701705248,-167.0
19171.28707954972,33.0
19171.287142046956,129.0
19171.28720454419,538.0
19171.28726704143,46.0
19171.287329538667,-488.0
19171.287392035905,140.0
19171.28745453314,-36.0
19171.287517030378,-798.0
19171.287579527616,-745.0
19171.287642024854,-579.0
19171.28770452209,168.0
19171.287767019327,928.0
19171.287829516565,532.0
19171.287892013803,-191.0
19171.287954511037,-175.0
19171.288017008275,931.0
19171.288079505513,1153.0
19171.288142002748,586.0
19171.288204499986,683.0
19171.288266997224,927.0
19171.288329494462,1427.0
19171.288391991697,1594.0
19171.288454488935,1491.0
19171.288516986173,1947.0
19171.28857948341,2435.0
19171.288641980645,2878.0
19171.288704477884,2701.0
19171.28876697512,2225.0
19171.28882947236,2304.0
19171.288891969594,2835.0
19171.288954466832,3242.0
19171.28901696407,3030.0
19171.28907946131,2285.0
19171.289141958543,2398.0
19171.28920445578,2471.0
19171.28926695302,2116.0
19171.289329450257,1881.0
19171.289391947492,1814.0
19171.28945444473,2420.0
19171.289516941968,3270.0
19171.289579439206,3642.0
19171.28964193644,2658.0
19171.28970443368,1854.0
19171.289766930917,1809.0
19171.289829428155,749.0
19171.28989192539,-143.0
19171.289954422627,-34.0
19171.290016919866,87.0
19171.2900794171,48.0
19171.290141914338,221.0
19171.290204411576,-46.0
19171.290266908814,-488.0
19171.29032940605,-54.0
19171.290391903287,-52.0
19171.290454400525,128.0
19171.290516897763,191.0
19171.290579394998,-822.0
19171.290641892236,-542.0
19171.290704389474,330.0
19171.290766886712,60.0
19171.290829383946,16.0
19171.290891881185,518.0
19171.290954378423,229.0
19171.29101687566,82.0
19171.291079372895,262.0
19171.291141870133,-389.0
19171.29120436737,-187.0
19171.29126686461,590.0
19171.291329361844,754.0
19171.291391859082,400.0
19171.29145435632,241.0
19171.291516853555,338.0
19171.291579350793,158.0
19171.29164184803,-252.0
19171.29170434527,-600.0
19171.291766842507,-347.0
19171.29182933974,142.0
19171.29189183698,343.0
19171.291954334218,522.0
19171.292016831452,313.0
19171.29207932869,-43.0
19171.29214182593,123.0
19171.292204323167,138.0
19171.2922668204,-196.0
19171.29232931764,-250.0
19171.292391814877,318.0
19171.292454312115,672.0
19171.29251680935,170.0
19171.292579306588,-174.0
19171.292641803826,506.0
19171.292704301064,490.0
19171.2927667983,-40.0
19171.292829295537,-396.0
19171.292891792775,-767.0
19171.292954290013,-259.0
19171.293016787247,56.0
19171.293079284485,-770.0
19171.293141781724,-1223.0
19171.29320427896,-774.0
19171.293266776196,-545.0
19171.293329273434,-709.0
19171.293391770672,-1320.0
19171.293454267907,-1689.0
19171.293516765145,-1210.0
19171.293579262383,-1143.0
19171.29364175962,-1548.0
19171.293704256856,-1499.0
19171.293766754094,-866.0
19171.29382925133,-111.0
19171.29389174857,-45.0
19171.293954245804,-922.0
19171.294016743042,-1481.0
19171.29407924028,-1441.0
19171.29414173752,-1879.0
19171.294204234753,-2235.0
19171.29426673199,-2066.0
19171.29432922923,-2324.0
19171.294391726467,-2101.0
19171.294454223702,-1685.0
19171.29451672094,-1612.0
19171.294579218178,-1362.0
19171.294641715416,-1300.0
19171.29470421265,-1019.0
19171.29476670989,-826.0
19171.294829207127,-1331.0
19171.294891704365,-1720.0
19171.2949542016,-1259.0
19171.295016698838,-997.0
19171.295079196076,-1115.0
19171.295141693314,-1075.0
19171.29520419055,-1142.0
19171.295266687786,-594.0
19171.295329185024,-258.0
19171.29539168226,-471.0
19171.295454179497,-27.0
19171.295516676735,170.0
19171.295579173973,-196.0
19171.295641671208,89.0
19171.295704168446,604.0
19171.295766665684,829.0
19171.295829162922,1002.0
19171.295891660156,973.0
19171.295954157395,918.0
19171.296016654633,859.0
19171.29607915187,811.0
19171.296141649105,882.0
19171.296204146343,1206.0
19171.29626664358,1566.0
19171.29632914082,1831.0
19171.296391638054,1267.0
19171.296454135292,649.0
19171.29651663253,900.0
19171.29657912977,925.0
19171.296641627003,935.0
19171.29670412424,362.0
19171.29676662148,132.0
19171.296829118714,1022.0
19171.29689161595,1414.0
19171.29695411319,1418.0
19171.297016610428,1481.0
19171.297079107666,1741.0
19171.2971416049,1792.0
19171.29720410214,1257.0
19171.297266599377,1010.0
19171.29732909661,1499.0
19171.29739159385,1372.0
19171.297454091087,1298.0
19171.297516588325,957.0
19171.29757908556,214.0
19171.297641582798,131.0
19171.297704080036,355.0
19171.297766577274,686.0
19171.29782907451,486.0
19171.297891571747,332.0
19171.297954068985,602.0
19171.298016566223,470.0
19171.298079063457,283.0
19171.298141560696,-105.0
19171.298204057934,-547.0
19171.29826655517,-1106.0
19171.298329052406,-1846.0
19171.298391549644,-1868.0
19171.298454046882,-1668.0
19171.29851654412,-1482.0
19171.298579041355,-1049.0
19171.298641538593,-855.0
19171.29870403583,-1239.0
19171.298766533066,-1338.0
19171.298829030304,-1349.0
19171.298891527542,-2186.0
19171.29895402478,-2000.0
19171.299016522014,-1364.0
19171.299079019253,-1469.0
19171.29914151649,-1194.0
19171.29920401373,-831.0
19171.299266510963,-540.0
19171.2993290082,-363.0
19171.29939150544,-348.0
19171.299454002678,102.0
19171.299516499912,194.0
19171.29957899715,-541.0
19171.29964149439,-304.0
19171.299703991626,-55.0
19171.29976648886,-540.0
19171.2998289861,-659.0
19171.299891483337,-592.0
19171.299953980575,-286.0
19171.30001647781,-491.0
19171.300078975048,-919.0
19171.300141472286,-214.0
19171.300203969524,-70.0
19171.30026646676,60.0
19171.300328963996,270.0
19171.300391461235,320.0
19171.300453958473,663.0
19171.300516455707,44.0
19171.300578952945,-368.0
19171.300641450183,-767.0
19171.300703947418,-731.0
19171.300766444656,-544.0
19171.300828941894,-466.0
19171.300891439132,-21.0
19171.300953936367,-85.0
19171.301016433605,302.0
19171.301078930843,459.0
19171.30114142808,-88.0
19171.301203925315,-534.0
19171.301266422553,-417.0
19171.30132891979,-426.0
19171.30139141703,-1241.0
19171.301453914264,-1306.0
19171.301516411502,-813.0
19171.30157890874,-280.0
19171.30164140598,107.0
19171.301703903213,-148.0
19171.30176640045,-356.0
19171.30182889769,-177.0
19171.301891394927,-258.0
19171.30195389216,-908.0
19171.3020163894,-900.0
19171.302078886638,-405.0
19171.302141383872,-179.0
19171.30220388111,406.0
19171.30226637835,766.0
19171.302328875587,553.0
19171.302391372825,999.0
19171.30245387006,936.0
19171.302516367297,931.0
19171.302578864535,1202.0
19171.30264136177,990.0
19171.302703859008,989.0
19171.302766356246,1040.0
19171.302828853484,1163.0
19171.30289135072,1051.0
19171.302953847957,611.0
19171.303016345195,832.0
19171.303078842433,1295.0
19171.303141339667,1018.0
19171.303203836906,436.0
19171.303266334144,-2.0
19171.30332883138,28.0
19171.303391328616,863.0
19171.303453825854,1143.0
19171.303516323092,578.0
19171.30357882033,486.0
19171.303641317565,443.0
19171.303703814803,412.0
19171.30376631204,872.0
19171.30382880928,1313.0
19171.303891306514,1355.0
19171.303953803752,1210.0
19171.30401630099,1304.0
19171.304078798225,1220.0
19171.304141295463,799.0
19171.3042037927,695.0
19171.30426628994,972.0
19171.304328787173,1129.0
19171.30439128441,1433.0
19171.30445378165,1744.0
19171.304516278888,1230.0
19171.304578776122,842.0
19171.30464127336,767.0
19171.3047037706,874.0
19171.304766267836,314.0
19171.30482876507,-763.0
19171.30489126231,-865.0
19171.304953759547,-451.0
19171.305016256785,-162.0
19171.30507875402,-389.0
19171.305141251258,-299.0
19171.305203748496,434.0
19171.305266245734,570.0
19171.30532874297,-2.0
19171.305391240207,-480.0
19171.305453737445,-694.0
19171.305516234683,-1104.0
19171.305578731917,-1267.0
19171.305641229155,-1373.0
19171.305703726393,-1084.0
19171.30576622363,-605.0
19171.305828720866,-445.0
19171.305891218104,-863.0
19171.305953715342,-729.0
19171.306016212577,41.0
19171.306078709815,507.0
19171.306141207053,926.0
19171.30620370429,755.0
19171.306266201525,941.0
19171.306328698764,1138.0
19171.306391196,648.0
19171.30645369324,292.0
19171.306516190474,138.0
19171.306578687712,851.0
19171.30664118495,909.0
19171.30670368219,-16.0
19171.306766179423,-139.0
19171.30682867666,13.0
19171.3068911739,207.0
19171.306953671137,496.0
19171.30701616837,371.0
19171.30707866561,231.0
19171.307141162848,793.0
19171.307203660086,524.0
19171.30726615732,-59.0
19171.30732865456,-298.0
19171.307391151797,-742.0
19171.30745364903,-263.0
19171.30751614627,562.0
19171.307578643507,716.0
19171.307641140746,391.0
19171.307703637984,370.0
19171.307766135218,656.0
19171.307828632456,1216.0
19171.307891129694,1178.0
19171.30795362693,352.0
19171.308016124167,190.0
19171.308078621405,250.0
19171.308141118643,-131.0
19171.308203615878,-299.0
19171.308266113116,-482.0
19171.308328610354,27.0
19171.308391107592,711.0
19171.308453604826,687.0
19171.308516102064,557.0
19171.308578599303,47.0
19171.30864109654,229.0
19171.308703593775,483.0
19171.308766091013,-210.0
19171.30882858825,-331.0
19171.30889108549,-118.0
19171.308953582724,104.0
19171.309016079962,440.0
19171.3090785772,-421.0
19171.30914107444,-382.0
19171.309203571673,-259.0
19171.30926606891,-437.0
19171.30932856615,69.0
19171.309391063383,-179.0
19171.30945356062,-529.0
19171.30951605786,-114.0
19171.309578555098,303.0
19171.309641052336,-219.0
19171.30970354957,-632.0
19171.30976604681,-289.0
19171.309828544046,-192.0
19171.30989104128,-47.0
19171.30995353852,-84.0
19171.310016035757,-810.0
19171.310078532995,-991.0
19171.31014103023,-260.0
19171.310203527468,-472.0
19171.310266024706,-1097.0
19171.310328521944,-892.0
19171.31039101918,-1043.0
19171.310453516417,-1011.0
19171.310516013655,-420.0
19171.310578510893,-766.0
19171.310641008127,-932.0
19171.310703505365,55.0
19171.310766002603,181.0
19171.31082849984,-295.0
19171.310890997076,-498.0
19171.310953494314,-433.0
19171.311015991552,-133.0
19171.31107848879,64.0
19171.311140986025,129.0
19171.311203483263,307.0
19171.3112659805,1002.0
19171.311328477736,1240.0
19171.311390974974,1069.0
19171.31145347221,806.0
19171.31151596945,842.0
19171.311578466684,439.0
19171.311640963922,204.0
19171.31170346116,922.0
19171.3117659584,1145.0
19171.311828455633,671.0
19171.31189095287,375.0
19171.31195345011,9.0
19171.312015947347,-628.0
19171.312078444582,-291.0
19171.31214094182,-355.0
19171.312203439058,-659.0
19171.312265936296,-454.0
19171.31232843353,-219.0
19171.31239093077,-160.0
19171.312453428007,-594.0
19171.312515925245,-849.0
19171.31257842248,-658.0
19171.312640919718,-226.0
19171.312703416956,-567.0
19171.312765914194,-1034.0
19171.31282841143,-632.0
19171.312890908666,-713.0
19171.312953405904,-436.0
19171.313015903143,-52.0
19171.313078400377,-351.0
19171.313140897615,-446.0
19171.313203394853,-381.0
19171.313265892088,-305.0
19171.313328389326,-189.0
19171.313390886564,-558.0
19171.313453383802,-281.0
19171.313515881036,601.0
19171.313578378275,218.0
19171.313640875513,-128.0
19171.31370337275,-99.0
19171.313765869985,46.0
19171.313828367223,400.0
19171.31389086446,193.0
19171.3139533617,178.0
19171.314015858934,679.0
19171.314078356172,327.0
19171.31414085341,248.0
19171.31420335065,241.0
19171.314265847883,-204.0
19171.31432834512,180.0
19171.31439084236,51.0
19171.314453339597,-547.0
19171.31451583683,-211.0
19171.31457833407,-32.0
19171.314640831308,321.0
19171.314703328542,806.0
19171.31476582578,576.0
19171.31482832302,636.0
19171.314890820257,623.0
19171.314953317495,399.0
19171.31501581473,588.0
19171.315078311967,975.0
19171.315140809205,1350.0
19171.31520330644,1382.0
19171.315265803678,1033.0
19171.315328300916,247.0
19171.315390798154,302.0
19171.31545329539,563.0
19171.315515792627,563.0
19171.315578289865,1111.0
19171.315640787103,1107.0
19171.315703284337,901.0
19171.315765781575,589.0
19171.315828278814,240.0
19171.31589077605,83.0
19171.315953273286,-162.0
19171.316015770524,500.0
19171.316078267762,443.0
19171.316140765,210.0
19171.316203262235,478.0
19171.316265759473,-298.0
19171.31632825671,-320.0
19171.31639075395,-29.0
19171.316453251184,-895.0
19171.31651574842,-1221.0
19171.31657824566,-644.0
19171.316640742894,-584.0
19171.316703240132,-371.0
19171.31676573737,-668.0
19171.31682823461,-769.0
19171.316890731843,-273.0
19171.31695322908,-792.0
19171.31701572632,-1331.0
19171.317078223557,-1065.0
19171.317140720792,-502.0
19171.31720321803,-365.0
19171.317265715268,-1042.0
19171.317328212506,-1182.0
19171.31739070974,-958.0
19171.31745320698,-913.0
19171.317515704217,-371.0
19171.317578201455,-760.0
19171.31764069869,-1636.0
19171.317703195928,-1545.0
19171.317765693166,-1220.0
19171.317828190404,-1955.0
19171.31789068764,-2456.0
19171.317953184876,-2004.0
19171.318015682114,-1474.0
19171.318078179353,-1258.0
19171.318140676587,-1161.0
19171.318203173825,-548.0
19171.318265671063,-118.0
19171.3183281683,199.0
19171.318390665536,-216.0
19171.318453162774,-565.0
19171.318515660012,-53.0
19171.318578157247,262.0
19171.318640654485,581.0
19171.318703151723,203.0
19171.31876564896,604.0
19171.318828146195,1439.0
19171.318890643433,480.0
19171.31895314067,339.0
19171.31901563791,1221.0
19171.319078135144,1117.0
19171.319140632382,683.0
19171.31920312962,54.0
19171.31926562686,-712.0
19171.319328124093,-1005.0
19171.31939062133,-968.0
19171.31945311857,-907.0
19171.319515615807,-804.0
19171.31957811304,-262.0
19171.31964061028,251.0
19171.319703107518,-252.0
19171.319765604756,-1274.0
19171.31982810199,-1486.0
19171.31989059923,-994.0
19171.319953096467,-400.0
19171.3200155937,-68.0
19171.32007809094,-107.0
19171.320140588177,518.0
19171.320203085415,946.0
19171.320265582654,425.0
19171.320328079888,50.0
19171.320390577126,-235.0
19171.320453074364,-285.0
19171.3205155716,-231.0
19171.320578068837,-799.0
19171.320640566075,-1165.0
19171.320703063313,-1212.0
19171.320765560547,-1284.0
19171.320828057786,-1106.0
19171.320890555024,-565.0
19171.32095305226,-199.0
19171.321015549496,-636.0
19171.321078046734,-785.0
19171.321140543972,-1021.0
19171.32120304121,-1171.0
19171.321265538445,-398.0
19171.321328035683,-203.0
19171.32139053292,13.0
19171.32145303016,329.0
19171.321515527394,-196.0
19171.321578024632,-367.0
19171.32164052187,-520.0
19171.321703019108,-783.0
19171.321765516343,-233.0
19171.32182801358,791.0
19171.32189051082,1045.0
19171.321953008053,676.0
19171.32201550529,554.0
19171.32207800253,257.0
19171.322140499768,324.0
19171.322202997002,418.0
19171.32226549424,419.0
19171.32232799148,609.0
19171.322390488716,589.0
19171.32245298595,784.0
19171.32251548319,1162.0
19171.322577980427,1320.0
19171.322640477665,1056.0
19171.3227029749,1352.0
19171.322765472138,1687.0
19171.322827969376,942.0
19171.322890466614,236.0
19171.32295296385,313.0
19171.323015461086,589.0
19171.323077958325,547.0
19171.323140455563,756.0
19171.323202952797,555.0
19171.323265450035,634.0
19171.323327947273,1294.0
19171.32339044451,1513.0
19171.323452941746,1683.0
19171.323515438984,1520.0
19171.323577936222,1646.0
19171.32364043346,2243.0
19171.323702930695,1950.0
19171.323765427933,1631.0
19171.32382792517,1882.0
19171.323890422405,1759.0
19171.323952919643,1886.0
19171.32401541688,1963.0
19171.32407791412,1756.0
19171.324140411354,1366.0
19171.324202908592,1219.0
19171.32426540583,1661.0
19171.32432790307,1203.0
19171.324390400303,596.0
19171.32445289754,675.0
19171.32451539478,540.0
19171.324577892017,609.0
19171.32464038925,539.0
19171.32470288649,92.0
19171.324765383728,223.0
19171.324827880966,233.0
19171.3248903782,-87.0
19171.32495287544,-34.0
19171.325015372677,38.0
19171.325077869915,-405.0
19171.32514036715,89.0
19171.325202864387,334.0
19171.325265361625,-102.0
19171.32532785886,-509.0
19171.325390356098,-618.0
19171.325452853336,-74.0
19171.325515350574,-68.0
19171.325577847812,-877.0
19171.325640345047,-1094.0
19171.325702842285,-580.0
19171.325765339523,-433.0
19171.325827836758,-335.0
19171.325890333996,-301.0
19171.325952831234,-490.0
19171.326015328472,-447.0
19171.326077825706,-353.0
19171.326140322944,-903.0
19171.326202820183,-1053.0
19171.32626531742,-788.0
19171.326327814655,-122.0
19171.326390311893,502.0
19171.32645280913,-571.0
19171.32651530637,-876.0
19171.326577803604,-20.0
19171.326640300842,111.0
19171.32670279808,-520.0
19171.32676529532,-999.0
19171.326827792553,-556.0
19171.32689028979,93.0
19171.32695278703,-82.0
19171.327015284267,-807.0
19171.3270777815,-341.0
19171.32714027874,410.0
19171.327202775978,29.0
19171.327265273212,-279.0
19171.32732777045,-149.0
19171.32739026769,280.0
19171.327452764926,708.0
19171.32751526216,350.0
19171.3275777594,108.0
19171.327640256637,392.0
19171.327702753875,677.0
19171.32776525111,709.0
19171.327827748348,724.0
19171.327890245586,858.0
19171.327952742824,1146.0
19171.32801524006,950.0
19171.328077737297,60.0
19171.328140234535,-435.0
19171.328202731773,-478.0
19171.328265229007,-793.0
19171.328327726245,-1438.0
19171.328390223483,-1253.0
19171.32845272072,-584.0
19171.328515217956,-659.0
19171.328577715194,-215.0
19171.328640212432,325.0
19171.32870270967,51.0
19171.328765206905,431.0
19171.328827704143,426.0
19171.32889020138,-153.0
19171.32895269862,318.0
19171.329015195854,396.0
19171.32907769309,219.0
19171.32914019033,444.0
19171.329202687564,401.0
19171.329265184802,288.0
19171.32932768204,597.0
19171.32939017928,944.0
19171.329452676513,555.0
19171.32951517375,308.0
19171.32957767099,21.0
19171.329640168227,151.0
19171.32970266546,598.0
19171.3297651627,621.0
19171.329827659938,376.0
19171.329890157176,165.0
19171.32995265441,693.0
19171.33001515165,891.0
19171.330077648887,551.0
19171.330140146125,121.0
19171.33020264336,-253.0
19171.330265140597,-254.0
19171.330327637836,-322.0
19171.330390135074,-909.0
19171.330452632308,-1901.0
19171.330515129546,-1955.0
19171.330577626784,-1250.0
19171.33064012402,-717.0
19171.330702621257,-1386.0
19171.330765118495,-1730.0
19171.330827615733,-1105.0
19171.33089011297,-809.0
19171.330952610206,-643.0
19171.331015107444,-680.0
19171.331077604682,-719.0
19171.331140101916,-695.0
19171.331202599154,-1004.0
19171.331265096393,-1153.0
19171.33132759363,-1510.0
19171.331390090865,-2065.0
19171.331452588103,-1075.0
19171.33151508534,-195.0
19171.33157758258,-1085.0
19171.331640079814,-1625.0
19171.331702577052,-1500.0
19171.33176507429,-1348.0
19171.33182757153,-1252.0
19171.331890068763,-1328.0
19171.331952566,-1465.0
19171.33201506324,-1240.0
19171.332077560477,-1616.0
19171.33214005771,-2020.0
19171.33220255495,-1277.0
19171.332265052188,-973.0
19171.332327549426,-1030.0
19171.33239004666,-543.0
19171.3324525439,-706.0
19171.332515041137,-1126.0
19171.33257753837,-979.0
19171.33264003561,-751.0
19171.332702532847,-492.0
19171.332765030085,-541.0
19171.332827527323,-441.0
19171.332890024558,-436.0
19171.332952521796,-125.0
19171.333015019034,-315.0
19171.33307751627,-455.0
19171.333140013507,-158.0
19171.333202510745,-577.0
19171.333265007983,-880.0
19171.333327505217,-597.0
19171.333390002455,-212.0
19171.333452499694,-625.0
19171.33351499693,-796.0
19171.333577494166,-79.0
19171.333639991404,231.0
19171.333702488642,78.0
19171.33376498588,172.0
19171.333827483115,828.0
19171.333889980353,1020.0
19171.33395247759,473.0
19171.33401497483,694.0
19171.334077472064,1264.0
19171.3341399693,1708.0
19171.33420246654,1752.0
19171.334264963778,2036.0
19171.334327461012,2341.0
19171.33438995825,1763.0
19171.33445245549,1213.0
19171.334514952723,1256.0
19171.33457744996,1677.0
19171.3346399472,1209.0
19171.334702444437,600.0
19171.334764941672,943.0
19171.33482743891,1257.0
19171.334889936148,1394.0
19171.334952433386,1586.0
19171.33501493062,1093.0
19171.33507742786,876.0
19171.335139925097,1161.0
19171.335202422335,1117.0
19171.33526491957,941.0
19171.335327416808,622.0
19171.335389914046,804.0
19171.335452411284,1608.0
19171.33551490852,1749.0
19171.335577405756,730.0
19171.335639902994,393.0
19171.335702400233,1216.0
19171.335764897467,1734.0
19171.335827394705,1318.0
19171.335889891943,920.0
19171.33595238918,1004.0
19171.336014886416,1254.0
19171.336077383654,1077.0
19171.336139880892,384.0
19171.33620237813,-58.0
19171.336264875365,466.0
19171.336327372603,697.0
19171.33638986984,166.0
19171.336452367075,43.0
19171.336514864313,43.0
19171.33657736155,485.0
19171.33663985879,1192.0
19171.336702356024,1263.0
19171.336764853262,516.0
19171.3368273505,-33.0
19171.33688984774,242.0
19171.336952344973,409.0
19171.33701484221,39.0
19171.33707733945,-145.0
19171.337139836687,291.0
19171.33720233392,811.0
19171.33726483116,488.0
19171.337327328398,-357.0
19171.337389825636,-872.0
19171.33745232287,-903.0
19171.33751482011,-679.0
19171.337577317347,-869.0
19171.337639814585,-999.0
19171.33770231182,-1302.0
19171.337764809057,-1329.0
19171.337827306295,-858.0
19171.33788980353,-1218.0
19171.337952300768,-1515.0
19171.338014798006,-1268.0
19171.338077295244,-916.0
19171.338139792482,-841.0
19171.338202289717,-825.0
19171.338264786955,-519.0
19171.338327284193,160.0
19171.338389781427,455.0
19171.338452278665,316.0
19171.338514775904,102.0
19171.33857727314,436.0
19171.338639770376,169.0
19171.338702267614,-371.0
19171.338764764852,140.0
19171.33882726209,45.0
19171.338889759325,496.0
19171.338952256563,993.0
19171.3390147538,350.0
19171.33907725104,-55.0
19171.339139748274,-64.0
19171.339202245512,482.0
19171.33926474275,344.0
19171.339327239988,-708.0
19171.339389737223,-950.0
19171.33945223446,-366.0
19171.3395147317,-444.0
19171.339577228937,-955.0
19171.33963972617,-966.0
19171.33970222341,-872.0
19171.339764720648,-867.0
19171.339827217882,-1239.0
19171.33988971512,-1910.0
19171.33995221236,-1623.0
19171.340014709596,-835.0
19171.34007720683,-983.0
19171.34013970407,-747.0
19171.340202201307,0.0
19171.340264698545,-26.0
19171.34032719578,284.0
19171.340389693018,754.0
19171.340452190256,453.0
19171.340514687494,521.0
19171.34057718473,967.0
19171.340639681966,1089.0
19171.340702179205,748.0
19171.340764676443,247.0
19171.340827173677,534.0
19171.340889670915,983.0
19171.340952168153,603.0
19171.34101466539,36.0
19171.341077162626,19.0
19171.341139659864,253.0
19171.341202157102,286.0
19171.34126465434,4.0
19171.341327151575,-365.0
19171.341389648813,-89.0
19171.34145214605,-16.0
19171.34151464329,-562.0
19171.341577140523,-733.0
19171.34163963776,-279.0
19171.341702135,250.0
19171.341764632234,403.0
19171.341827129472,-36.0
19171.34188962671,245.0
19171.34195212395,612.0
19171.342014621183,223.0
19171.34207711842,12.0
19171.34213961566,-28.0
19171.342202112897,122.0
19171.34226461013,-4.0
19171.34232710737,-169.0
19171.342389604608,320.0
19171.342452101846,1088.0
19171.34251459908,1201.0
19171.34257709632,824.0
19171.342639593557,626.0
19171.342702090795,680.0
19171.34276458803,1203.0
19171.342827085267,1216.0
19171.342889582505,658.0
19171.342952079744,327.0
19171.343014576978,-89.0
19171.343077074216,-158.0
19171.343139571454,101.0
19171.34320206869,442.0
19171.343264565927,921.0
19171.343327063165,453.0
19171.343389560403,-66.0
19171.34345205764,348.0
19171.343514554876,-28.0
19171.343577052114,-292.0
19171.34363954935,184.0
19171.343702046586,207.0
19171.343764543824,689.0
19171.343827041062,497.0
19171.3438895383,424.0
19171.343952035535,435.0
19171.344014532773,-154.0
19171.34407703001,213.0
19171.34413952725,537.0
19171.344202024484,507.0
19171.344264521722,485.0
19171.34432701896,816.0
19171.344389516198,819.0
19171.344452013433,597.0
19171.34451451067,480.0
19171.34457700791,203.0
19171.344639505147,43.0
19171.34470200238,373.0
19171.34476449962,1138.0
19171.344826996858,900.0
19171.344889494096,-181.0
19171.34495199133,-695.0
19171.34501448857,-435.0
19171.345076985806,-535.0
19171.34513948304,-926.0
19171.34520198028,-934.0
19171.345264477517,-772.0
19171.345326974755,-748.0
19171.34538947199,-1028.0
19171.345451969228,-1446.0
19171.345514466466,-1102.0
19171.345576963704,-678.0
19171.34563946094,-609.0
19171.345701958177,-240.0
19171.345764455415,-174.0
19171.345826952653,-352.0
19171.345889449887,-432.0
19171.345951947125,-629.0
19171.346014444363,-713.0
19171.3460769416,-686.0
19171.346139438836,-364.0
19171.346201936074,-155.0
19171.346264433312,-464.0
19171.34632693055,-798.0
19171.346389427785,-860.0
19171.346451925023,-986.0
19171.34651442226,-1662.0
19171.3465769195,-2581.0
19171.346639416734,-2304.0
19171.34670191397,-1966.0
19171.34676441121,-2383.0
19171.346826908448,-2272.0
19171.346889405682,-2059.0
19171.34695190292,-2308.0
19171.34701440016,-2405.0
19171.347076897393,-2261.0
19171.34713939463,-2371.0
19171.34720189187,-1577.0
19171.347264389107,-1044.0
19171.34732688634,-1144.0
19171.34738938358,-919.0
19171.347451880818,-980.0
19171.347514378056,-929.0
19171.34757687529,-1162.0
19171.34763937253,-1295.0
19171.347701869767,-622.0
19171.347764367005,-318.0
19171.34782686424,-421.0
19171.347889361477,-203.0
19171.347951858716,297.0
19171.348014355954,716.0
19171.348076853188,712.0
19171.348139350426,454.0
19171.348201847664,-14.0
19171.348264344902,-198.0
19171.348326842137,440.0
19171.348389339375,-270.0
19171.348451836613,-761.0
19171.348514333848,-39.0
19171.348576831086,399.0
19171.348639328324,674.0
19171.348701825562,-27.0
19171.3487643228,-255.0
19171.348826820034,-227.0
19171.348889317273,-325.0
19171.34895181451,226.0
19171.349014311745,602.0
19171.349076808983,1038.0
19171.34913930622,1371.0
19171.34920180346,1616.0
19171.349264300694,1448.0
19171.349326797932,957.0
19171.34938929517,882.0
19171.34945179241,892.0
19171.349514289643,1050.0
19171.34957678688,1039.0
19171.34963928412,969.0
19171.349701781357,1228.0
19171.34976427859,1442.0
19171.34982677583,1780.0
19171.349889273068,1805.0
19171.349951770306,1794.0
19171.35001426754,2062.0
19171.35007676478,1882.0
19171.350139262016,1193.0
19171.350201759255,977.0
19171.35026425649,1113.0
19171.350326753727,1167.0
19171.350389250965,1512.0
19171.3504517482,1862.0
19171.350514245438,1716.0
19171.350576742676,1588.0
19171.350639239914,1457.0
19171.35070173715,1213.0
19171.350764234387,1106.0
19171.350826731625,640.0
19171.350889228863,668.0
19171.350951726097,1149.0
19171.351014223335,847.0
19171.351076720573,364.0
19171.35113921781,384.0
19171.351201715046,309.0
19171.351264212284,386.0
19171.351326709522,604.0
19171.35138920676,459.0
19171.351451703995,807.0
19171.351514201233,761.0
19171.35157669847,643.0
19171.35163919571,804.0
19171.351701692944,890.0
19171.35176419018,1143.0
19171.35182668742,1312.0
19171.351889184658,1267.0
19171.351951681892,822.0
19171.35201417913,418.0
19171.35207667637,453.0
19171.352139173607,824.0
19171.35220167084,672.0
19171.35226416808,607.0
19171.352326665317,605.0
19171.352389162552,207.0
19171.35245165979,325.0
19171.352514157028,192.0
19171.352576654266,-465.0
19171.3526391515,-624.0
19171.35270164874,-316.0
19171.352764145977,-386.0
19171.352826643215,86.0
19171.35288914045,508.0
19171.352951637688,35.0
19171.353014134926,140.0
19171.353076632164,-24.0
19171.3531391294,-576.0
19171.353201626636,36.0
19171.353264123874,234.0
19171.353326621113,-294.0
19171.353389118347,-239.0
19171.353451615585,-575.0
19171.353514112823,-370.0
19171.35357661006,-100.0
19171.353639107296,-845.0
19171.353701604534,-891.0
19171.353764101772,-453.0
19171.353826599006,-448.0
19171.353889096245,-1262.0
19171.353951593483,-1187.0
19171.35401409072,-283.0
19171.35407658796,258.0
19171.354139085193,338.0
19171.35420158243,591.0
19171.35426407967,580.0
19171.354326576904,464.0
19171.354389074142,219.0
19171.35445157138,6.0
19171.35451406862,-195.0
19171.354576565853,-189.0
19171.35463906309,108.0
19171.35470156033,331.0
19171.354764057567,186.0
19171.3548265548,-363.0
19171.35488905204,261.0
19171.354951549278,1218.0
19171.355014046516,1022.0
19171.35507654375,410.0
19171.35513904099,-211.0
19171.355201538227,-333.0
19171.355264035465,-86.0
19171.3553265327,-115.0
19171.355389029937,-700.0
19171.355451527175,-628.0
19171.355514024413,-5.0
19171.355576521648,350.0
19171.355639018886,26.0
19171.355701516124,-798.0
19171.35576401336,-549.0
19171.355826510597,-412.0
19171.355889007835,-376.0
19171.355951505073,-1001.0
19171.35601400231,-1337.0
19171.356076499545,-444.0
19171.356138996784,-35.0
19171.35620149402,-65.0
19171.356263991256,-937.0
19171.356326488494,-1385.0
19171.356388985732,-818.0
19171.35645148297,-735.0
19171.356513980205,-814.0
19171.356576477443,-1058.0
19171.35663897468,-1151.0
19171.35670147192,-865.0
19171.356763969154,-937.0
19171.35682646639,-966.0
19171.35688896363,-1043.0
19171.356951460868,-737.0
19171.357013958102,-255.0
19171.35707645534,-588.0
19171.35713895258,-1110.0
19171.357201449817,-1490.0
19171.35726394705,-1288.0
19171.35732644429,-877.0
19171.357388941527,-1028.0
19171.357451438766,-1099.0
19171.357513936,-820.0
19171.357576433238,-704.0
19171.357638930476,-603.0
19171.35770142771,-577.0
19171.35776392495,-961.0
19171.357826422187,-935.0
19171.357888919425,-688.0
19171.35795141666,-808.0
19171.358013913898,-373.0
19171.358076411136,-565.0
19171.358138908374,-779.0
19171.35820140561,-632.0
19171.358263902846,-627.0
19171.358326400084,-213.0
19171.358388897323,-576.0
19171.358451394557,-627.0
19171.358513891795,-462.0
19171.358576389033,-985.0
19171.35863888627,-801.0
19171.358701383506,-568.0
19171.358763880744,-374.0
19171.358826377982,-551.0
19171.35888887522,-711.0
19171.358951372455,7.0
19171.359013869693,-105.0
19171.35907636693,-233.0
19171.35913886417,347.0
19171.359201361403,484.0
19171.35926385864,412.0
19171.35932635588,376.0
19171.359388853118,356.0
19171.359451350352,766.0
19171.35951384759,378.0
19171.35957634483,111.0
19171.359638842063,349.0
19171.3597013393,684.0
19171.35976383654,1076.0
19171.359826333777,841.0
19171.35988883101,688.0
19171.35995132825,191.0
19171.360013825488,347.0
19171.360076322726,526.0
19171.36013881996,227.0
19171.3602013172,-229.0
19171.360263814437,-331.0
19171.360326311675,314.0
19171.36038880891,124.0
19171.360451306147,-399.0
19171.360513803385,-379.0
19171.360576300624,-257.0
19171.360638797858,-530.0
19171.360701295096,-92.0
19171.360763792334,434.0
19171.360826289572,-164.0
19171.360888786807,-369.0
19171.360951284045,-345.0
19171.361013781283,-636.0
19171.361076278517,-849.0
19171.361138775756,-812.0
19171.361201272994,-263.0
19171.36126377023,331.0
19171.36132626747,254.0
19171.361388764704,-247.0
19171.361451261942,-400.0
19171.36151375918,-611.0
19171.361576256415,-667.0
19171.361638753653,-177.0
19171.36170125089,85.0
19171.36176374813,432.0
19171.361826245364,991.0
19171.361888742602,822.0
19171.36195123984,393.0
19171.362013737078,684.0
19171.362076234313,1134.0
19171.36213873155,1262.0
19171.36220122879,1288.0
19171.362263726027,885.0
19171.36232622326,545.0
19171.3623887205,665.0
19171.362451217738,577.0
19171.362513714976,461.0
19171.36257621221,867.0
19171.36263870945,1400.0
19171.362701206686,1151.0
19171.362763703924,323.0
19171.36282620116,-490.0
19171.362888698397,-50.0
19171.362951195635,555.0
19171.36301369287,454.0
19171.363076190108,615.0
19171.363138687346,1042.0
19171.363201184584,1342.0
19171.36326368182,591.0
19171.363326179056,-165.0
19171.363388676295,-192.0
19171.363451173533,521.0
19171.363513670767,609.0
19171.363576168005,-175.0
19171.363638665243,-753.0
19171.36370116248,-939.0
19171.363763659716,-87.0
19171.363826156954,16.0
19171.363888654192,-373.0
19171.36395115143,-129.0
19171.364013648665,566.0
19171.364076145903,990.0
19171.36413864314,126.0
19171.36420114038,-466.0
19171.364263637613,199.0
19171.36432613485,654.0
19171.36438863209,685.0
19171.364451129328,668.0
19171.364513626562,407.0
19171.3645761238,509.0
19171.36463862104,471.0
19171.364701118277,-150.0
19171.36476361551,-737.0
19171.36482611275,-747.0
19171.364888609987,142.0
19171.36495110722,194.0
19171.36501360446,-1060.0
19171.365076101698,-970.0
19171.365138598936,-213.0
19171.36520109617,-247.0
19171.36526359341,-611.0
19171.365326090647,-625.0
19171.365388587885,-395.0
19171.36545108512,-392.0
19171.365513582357,-199.0
19171.365576079595,-380.0
19171.365638576834,-386.0
19171.365701074068,296.0
19171.365763571306,223.0
19171.365826068544,0.0
19171.365888565782,-29.0
19171.365951063017,-347.0
19171.366013560255,198.0
19171.366076057493,177.0
19171.36613855473,-84.0
19171.366201051966,90.0
19171.366263549204,-71.0
19171.366326046442,481.0
19171.366388543676,519.0
19171.366451040914,329.0
19171.366513538153,660.0
19171.36657603539,568.0
19171.36663853263,227.0
19171.366701029863,-182.0
19171.3667635271,-408.0
19171.36682602434,-217.0
19171.366888521574,-76.0
19171.366951018812,-6.0
19171.36701351605,256.0
19171.367076013288,319.0
19171.367138510523,42.0
19171.36720100776,-228.0
19171.367263505,-302.0
19171.367326002237,-331.0
19171.36738849947,-560.0
19171.36745099671,-588.0
19171.367513493948,-250.0
19171.367575991186,-339.0
19171.36763848842,-461.0
19171.36770098566,-408.0
19171.367763482896,-370.0
19171.367825980135,-290.0
19171.36788847737,-657.0
19171.367950974607,-936.0
19171.368013471845,-883.0
19171.368075969083,-698.0
19171.368138466318,-461.0
19171.368200963556,-625.0
19171.368263460794,-1184.0
19171.36832595803,-1267.0
19171.368388455267,-973.0
19171.368450952505,-684.0
19171.368513449743,-813.0
19171.368575946977,-1620.0
19171.368638444215,-1817.0
19171.368700941453,-1290.0
19171.36876343869,-1496.0
19171.368825935926,-1961.0
19171.368888433164,-1524.0
19171.368950930402,-705.0
19171.36901342764,-353.0
19171.369075924875,-777.0
19171.369138422113,-1184.0
19171.36920091935,-1678.0
19171.36926341659,-2153.0
19171.369325913824,-1456.0
19171.36938841106,-1379.0
19171.3694509083,-1450.0
19171.369513405538,-719.0
19171.369575902772,-167.0
19171.36963840001,-766.0
19171.36970089725,-1773.0
19171.369763394487,-1389.0
19171.36982589172,-864.0
19171.36988838896,-605.0
19171.369950886197,-1150.0
19171.370013383435,-1856.0
19171.37007588067,-951.0
19171.370138377908,29.0
19171.370200875146,-131.0
19171.37026337238,-395.0
19171.37032586962,289.0
19171.370388366857,1278.0
19171.370450864095,1348.0
19171.37051336133,837.0
19171.370575858567,544.0
19171.370638355806,498.0
19171.370700853044,1043.0
19171.370763350278,897.0
19171.370825847516,-177.0
19171.370888344754,-546.0
19171.370950841992,-137.0
19171.371013339227,678.0
19171.371075836465,690.0
19171.371138333703,433.0
19171.37120083094,500.0
19171.371263328176,1062.0
19171.371325825414,1940.0
19171.371388322652,1241.0
19171.37145081989,397.0
19171.371513317124,682.0
19171.371575814363,958.0
19171.3716383116,1503.0
19171.371700808835,1695.0
19171.371763306073,1529.0
19171.37182580331,2160.0
19171.37188830055,2260.0
19171.371950797788,2238.0
19171.372013295022,2499.0
19171.37207579226,2015.0
19171.3721382895,1780.0
19171.372200786733,2275.0
19171.37226328397,2239.0
19171.37232578121,1605.0
19171.372388278447,1257.0
19171.37245077568,1377.0
19171.37251327292,1089.0
19171.372575770158,615.0
19171.372638267396,736.0
19171.37270076463,717.0
19171.37276326187,687.0
19171.372825759106,363.0
19171.372888256345,425.0
19171.37295075358,470.0
19171.373013250817,-361.0
19171.373075748055,-1088.0
19171.373138245293,-900.0
19171.373200742528,-68.0
19171.373263239766,-64.0
19171.373325737004,-950.0
19171.373388234242,-744.0
19171.373450731477,97.0
19171.373513228715,-286.0
19171.373575725953,-528.0
19171.373638223187,-713.0
19171.373700720425,-772.0
19171.373763217664,-432.0
19171.3738257149,-717.0
19171.37388821214,-605.0
19171.373950709374,-476.0
19171.374013206612,-650.0
19171.37407570385,-309.0
19171.374138201085,-395.0
19171.374200698323,-899.0
19171.37426319556,-1214.0
19171.3743256928,-432.0
19171.374388190034,543.0
19171.37445068727,477.0
19171.37451318451,10.0
19171.374575681748,-880.0
19171.374638178982,-788.0
19171.37470067622,-534.0
19171.37476317346,-972.0
19171.374825670697,-1107.0
19171.37488816793,-1036.0
19171.37495066517,-675.0
19171.375013162407,-431.0
19171.375075659646,-521.0
19171.37513815688,-501.0
19171.375200654118,48.0
19171.375263151356,782.0
19171.375325648594,981.0
19171.37538814583,411.0
19171.375450643067,-191.0
19171.375513140305,7.0
19171.37557563754,442.0
19171.375638134778,132.0
19171.375700632016,-219.0
19171.375763129254,-185.0
19171.37582562649,314.0
19171.375888123726,593.0
19171.375950620964,-79.0
19171.376013118203,-82.0
19171.376075615437,389.0
19171.376138112675,327.0
19171.376200609913,155.0
19171.37626310715,-115.0
19171.376325604386,-485.0
19171.376388101624,-870.0
19171.376450598862,-599.0
19171.3765130961,-392.0
19171.376575593335,-353.0
19171.376638090573,-320.0
19171.37670058781,-194.0
19171.37676308505,269.0
19171.376825582283,224.0
19171.37688807952,284.0
19171.37695057676,10.0
19171.377013073998,207.0
19171.377075571232,1502.0
19171.37713806847,1046.0
19171.37720056571,668.0
19171.377263062946,1431.0
19171.37732556018,1360.0
19171.37738805742,1426.0
19171.377450554657,1640.0
19171.37751305189,2045.0
19171.37757554913,2116.0
19171.377638046368,1326.0
19171.377700543606,980.0
19171.37776304084,1011.0
19171.37782553808,926.0
19171.377888035317,525.0
19171.377950532555,883.0
19171.37801302979,1331.0
19171.378075527027,977.0
19171.378138024265,953.0
19171.378200521503,1144.0
19171.378263018738,623.0
19171.378325515976,321.0
19171.378388013214,439.0
19171.378450510452,534.0
19171.378513007687,752.0
19171.378575504925,553.0
19171.378638002163,232.0
19171.3787004994,614.0
19171.378762996635,975.0
19171.378825493874,443.0
19171.37888799111,322.0
19171.378950488346,279.0
19171.379012985584,285.0
19171.379075482822,658.0
19171.37913798006,493.0
19171.3792004773,200.0
19171.379262974533,287.0
19171.37932547177,448.0
19171.37938796901,118.0
19171.379450466244,-303.0
19171.379512963482,-114.0
19171.37957546072,16.0
19171.379637957958,380.0
19171.379700455193,808.0
19171.37976295243,740.0
19171.37982544967,150.0
19171.379887946907,-457.0
19171.37995044414,-602.0
19171.38001294138,-653.0
19171.380075438617,-1147.0
19171.380137935856,-1775.0
19171.38020043309,-2026.0
19171.380262930328,-1694.0
19171.380325427566,-1310.0
19171.380387924804,-1545.0
19171.38045042204,-1990.0
19171.380512919277,-1867.0
19171.380575416515,-1482.0
19171.380637913753,-1538.0
19171.380700410988,-1868.0
19171.380762908226,-1902.0
19171.380825405464,-1680.0
19171.3808879027,-1393.0
19171.380950399936,-1695.0
19171.381012897175,-2007.0
19171.381075394413,-2385.0
19171.381137891647,-1800.0
19171.381200388885,-1036.0
19171.381262886123,-1324.0
19171.38132538336,-1335.0
19171.381387880596,-828.0
19171.381450377834,-504.0
19171.381512875072,-955.0
19171.38157537231,-1174.0
19171.381637869545,-1172.0
19171.381700366783,-1619.0
19171.38176286402,-1688.0
19171.38182536126,-1324.0
19171.381887858493,-1391.0
19171.38195035573,-1205.0
19171.38201285297,-896.0
19171.382075350208,-652.0
19171.382137847442,-509.0
19171.38220034468,-957.0
19171.38226284192,-1367.0
19171.382325339157,-1524.0
19171.38238783639,-790.0
19171.38245033363,-659.0
19171.382512830867,-698.0
19171.382575328105,-264.0
19171.38263782534,-263.0
19171.382700322578,-104.0
19171.382762819816,-489.0
19171.38282531705,-1041.0
19171.38288781429,-896.0
19171.382950311527,-327.0
19171.383012808765,-121.0
19171.383075306,182.0
19171.383137803237,455.0
19171.383200300475,270.0
19171.383262797714,682.0
19171.383325294948,76.0
19171.383387792186,-730.0
19171.383450289424,-568.0
19171.383512786662,-122.0
19171.383575283897,330.0
19171.383637781135,215.0
19171.383700278373,99.0
19171.38376277561,-3.0
19171.383825272846,-178.0
19171.383887770084,-587.0
19171.38395026732,-564.0
19171.38401276456,-328.0
19171.384075261794,-479.0
19171.384137759032,-199.0
19171.38420025627,25.0
19171.384262753505,209.0
19171.384325250743,442.0
19171.38438774798,730.0
19171.38445024522,877.0
19171.384512742457,535.0
19171.384575239692,323.0
19171.38463773693,354.0
19171.384700234168,321.0
19171.384762731403,591.0
19171.38482522864,506.0
19171.38488772588,280.0
19171.384950223117,451.0
19171.38501272035,356.0
19171.38507521759,553.0
19171.385137714828,877.0
19171.385200212066,938.0
19171.3852627093,621.0
19171.38532520654,925.0
19171.385387703776,873.0
19171.385450201014,-136.0
19171.38551269825,396.0
19171.385575195487,527.0
19171.385637692725,618.0
19171.385700189963,1477.0
19171.385762687198,1569.0
19171.385825184436,1543.0
19171.385887681674,1836.0
19171.385950178912,1695.0
19171.386012676146,913.0
19171.386075173385,410.0
19171.386137670623,734.0
19171.386200167857,1320.0
19171.386262665095,1687.0
19171.386325162333,1585.0
19171.38638765957,1196.0
19171.386450156806,1276.0
19171.386512654044,1577.0
19171.386575151282,1173.0
19171.38663764852,462.0
19171.386700145755,539.0
19171.386762642993,1219.0
19171.38682514023,1448.0
19171.38688763747,709.0
19171.386950134704,565.0
19171.38701263194,516.0
19171.38707512918,738.0
19171.387137626418,1237.0
19171.387200123652,975.0
19171.38726262089,75.0
19171.38732511813,159.0
19171.387387615367,962.0
19171.3874501126,717.0
19171.38751260984,75.0
19171.387575107077,-264.0
19171.387637604315,122.0
19171.38770010155,257.0
19171.387762598788,-295.0
19171.387825096026,-586.0
19171.387887593264,-549.0
19171.3879500905,-344.0
19171.388012587737,191.0
19171.388075084975,527.0
19171.38813758221,255.0
19171.388200079447,-55.0
19171.388262576686,156.0
19171.388325073924,773.0
19171.388387571158,-69.0
19171.388450068396,-525.0
19171.388512565634,0.0
19171.388575062872,59.0
19171.388637560107,21.0
19171.388700057345,-276.0
19171.388762554583,-351.0
19171.38882505182,-175.0
19171.388887549056,79.0
19171.388950046294,28.0
19171.389012543532,-227.0
19171.38907504077,-433.0
19171.389137538004,-538.0
19171.389200035243,-360.0
19171.38926253248,-51.0
19171.38932502972,-587.0
19171.389387526953,-341.0
19171.38945002419,685.0
19171.38951252143,399.0
19171.389575018664,448.0
19171.389637515902,680.0
19171.38970001314,128.0
19171.38976251038,268.0
19171.389825007616,398.0
19171.38988750485,-190.0
19171.38995000209,-379.0
19171.390012499327,-573.0
19171.39007499656,-733.0
19171.3901374938,-645.0
19171.390199991038,-961.0
19171.390262488276,-1094.0
19171.39032498551,-865.0
19171.39038748275,-399.0
19171.390449979986,-231.0
19171.390512477225,-578.0
19171.39057497446,-779.0
19171.390637471697,-875.0
19171.390699968935,-717.0
19171.390762466173,-612.0
19171.390824963408,-219.0
19171.390887460646,97.0
19171.390949957884,-27.0
19171.391012455122,229.0
19171.391074952357,-44.0
19171.391137449595,-685.0
19171.391199946833,-598.0
19171.39126244407,-276.0
19171.391324941305,-614.0
19171.391387438543,-568.0
19171.39144993578,-75.0
19171.391512433016,-230.0
19171.391574930254,-43.0
19171.391637427492,-205.0
19171.39169992473,-626.0
19171.391762421965,-306.0
19171.391824919203,-337.0
19171.39188741644,-674.0
19171.39194991368,-580.0
19171.392012410914,-408.0
19171.39207490815,-456.0
19171.39213740539,-495.0
19171.392199902628,126.0
19171.392262399862,733.0
19171.3923248971,393.0
19171.39238739434,350.0
19171.392449891577,488.0
19171.39251238881,48.0
19171.39257488605,213.0
19171.392637383287,241.0
19171.392699880525,-100.0
19171.39276237776,186.0
19171.392824874998,316.0
19171.392887372236,328.0
19171.392949869474,-17.0
19171.39301236671,-221.0
19171.393074863947,-14.0
19171.393137361185,-37.0
19171.393199858423,-651.0
19171.393262355657,-1105.0
19171.393324852896,-529.0
19171.393387350134,-286.0
19171.393449847368,-650.0
19171.393512344606,-1159.0
19171.393574841844,-1398.0
19171.393637339082,-976.0
19171.393699836317,-419.0
19171.393762333555,-110.0
19171.393824830793,-235.0
19171.39388732803,-266.0
19171.393949825266,-49.0
19171.394012322504,112.0
19171.394074819742,-69.0
19171.39413731698,-172.0
19171.394199814215,-88.0
19171.394262311453,142.0
19171.39432480869,84.0
19171.39438730593,-783.0
19171.394449803163,-1318.0
19171.3945123004,-650.0
19171.39457479764,-132.0
19171.394637294878,-211.0
19171.394699792112,-335.0
19171.39476228935,-645.0
19171.39482478659,-845.0
19171.394887283823,-476.0
19171.39494978106,-649.0
19171.3950122783,-1414.0
19171.395074775537,-973.0
19171.395137272775,-273.0
19171.39519977001,211.0
19171.395262267248,169.0
19171.395324764486,-534.0
19171.39538726172,-281.0
19171.39544975896,211.0
19171.395512256197,-187.0
19171.395574753435,-740.0
19171.39563725067,-755.0
19171.395699747907,-829.0
19171.395762245145,-360.0
19171.395824742383,124.0
19171.395887239618,-85.0
19171.395949736856,243.0
19171.396012234094,695.0
19171.396074731332,975.0
19171.396137228567,495.0
19171.396199725805,-188.0
19171.396262223043,19.0
19171.39632472028,395.0
19171.396387217515,499.0
19171.396449714754,767.0
19171.39651221199,1176.0
19171.39657470923,842.0
19171.396637206464,286.0
19171.396699703702,349.0
19171.39676220094,593.0
19171.396824698175,347.0
19171.396887195413,24.0
19171.39694969265,371.0
19171.39701218989,401.0
19171.397074687127,-233.0
19171.39713718436,-472.0
19171.3971996816,-345.0
19171.397262178838,399.0
19171.397324676072,1068.0
19171.39738717331,733.0
19171.39744967055,36.0
19171.397512167787,213.0
19171.39757466502,611.0
19171.39763716226,443.0
19171.397699659497,590.0
19171.397762156736,684.0
19171.39782465397,726.0
19171.397887151208,1121.0
19171.397949648446,465.0
19171.398012145684,-484.0
19171.39807464292,-168.0
19171.398137140157,519.0
19171.398199637395,536.0
19171.398262134633,213.0
19171.398324631868,281.0
19171.398387129106,420.0
19171.398449626344,396.0
19171.398512123582,725.0
19171.398574620816,765.0
19171.398637118054,113.0
19171.398699615293,24.0
19171.398762112527,288.0
19171.398824609765,748.0
19171.398887107003,497.0
19171.39894960424,18.0
19171.399012101476,693.0
19171.399074598714,658.0
19171.399137095952,-98.0
19171.39919959319,-145.0
19171.399262090425,229.0
19171.399324587663,683.0
19171.3993870849,1599.0
19171.39944958214,1697.0
19171.399512079373,1103.0
19171.39957457661,851.0
19171.39963707385,1118.0
19171.399699571088,1404.0
19171.399762068322,1032.0
19171.39982456556,629.0
19171.3998870628,958.0
19171.399949560036,1525.0
19171.40001205727,1624.0
19171.40007455451,1268.0
19171.400137051747,917.0
19171.400199548985,1256.0
19171.40026204622,1150.0
19171.400324543458,816.0
19171.400387040696,762.0
19171.400449537934,745.0
19171.40051203517,1132.0
19171.400574532407,1389.0
19171.400637029645,1300.0
19171.40069952688,1121.0
19171.400762024117,865.0
19171.400824521355,1943.0
19171.400887018593,2742.0
19171.400949515828,2345.0
19171.401012013066,1918.0
19171.401074510304,2007.0
19171.401137007542,2392.0
19171.401199504777,1666.0
19171.401262002015,1364.0
19171.401324499253,2066.0
19171.40138699649,2180.0
19171.401449493726,1405.0
19171.401511990964,1320.0
19171.4015744882,952.0
19171.40163698544,693.0
19171.401699482674,824.0
19171.401761979912,224.0
19171.40182447715,5.0
19171.40188697439,-362.0
19171.401949471623,-750.0
19171.40201196886,-890.0
19171.4020744661,-697.0
19171.402136963334,-387.0
19171.402199460572,-725.0
19171.40226195781,-945.0
19171.402324455048,-1009.0
19171.402386952286,-1084.0
19171.40244944952,-745.0
19171.40251194676,-947.0
19171.402574443997,-1688.0
19171.40263694123,-1245.0
19171.40269943847,-765.0
19171.402761935708,-805.0
19171.402824432946,-766.0
19171.40288693018,-552.0
19171.40294942742,-195.0
19171.403011924656,120.0
19171.403074421894,-542.0
19171.40313691913,-795.0
19171.403199416367,-261.0
19171.403261913605,-233.0
19171.403324410843,-267.0
19171.403386908078,-599.0
19171.403449405316,-652.0
19171.403511902554,-789.0
19171.403574399792,-529.0
19171.403636897026,40.0
19171.403699394265,-89.0
19171.403761891503,-432.0
19171.40382438874,-1011.0
19171.403886885975,-1110.0
19171.403949383213,-699.0
19171.40401188045,-1086.0
19171.404074377686,-1127.0
19171.404136874924,-335.0
19171.404199372162,-251.0
19171.4042618694,-585.0
19171.404324366635,-1168.0
19171.404386863873,-1319.0
19171.40444936111,-822.0
19171.40451185835,-758.0
19171.404574355583,-951.0
19171.40463685282,-1171.0
19171.40469935006,-1486.0
19171.404761847298,-919.0
19171.404824344532,-712.0
19171.40488684177,-1093.0
19171.40494933901,-973.0
19171.405011836247,-1302.0
19171.40507433348,-1690.0
19171.40513683072,-1906.0
19171.405199327957,-1863.0
19171.405261825195,-1345.0
19171.40532432243,-1122.0
19171.405386819668,-636.0
19171.405449316906,-198.0
19171.405511814144,-96.0
19171.40557431138,-64.0
19171.405636808617,-601.0
19171.405699305855,-1281.0
19171.405761803093,-737.0
19171.405824300327,-246.0
19171.405886797565,-995.0
19171.405949294804,-808.0
19171.406011792038,-778.0
19171.406074289276,-1041.0
19171.406136786514,-676.0
19171.406199283752,-957.0
19171.406261780987,-1267.0
19171.406324278225,-971.0
19171.406386775463,-1090.0
19171.4064492727,-1474.0
19171.406511769936,-1901.0
19171.406574267174,-2096.0
19171.40663676441,-1886.0
19171.40669926165,-1149.0
19171.406761758884,-774.0
19171.406824256122,-1367.0
19171.40688675336,-1205.0
19171.4069492506,-924.0
19171.407011747833,-1369.0
19171.40707424507,-1319.0
19171.40713674231,-1196.0
19171.407199239547,-1258.0
19171.407261736782,-1096.0
19171.40732423402,-901.0
19171.407386731258,-1334.0
19171.407449228493,-1383.0
19171.40751172573,-1277.0
19171.40757422297,-1681.0
19171.407636720207,-1219.0
19171.407699217445,-181.0
19171.40776171468,-993.0
19171.407824211918,-1709.0
19171.407886709156,-1011.0
19171.40794920639,-231.0
19171.40801170363,-42.0
19171.408074200866,-802.0
19171.408136698104,-1048.0
19171.40819919534,-639.0
19171.408261692577,-1144.0
19171.408324189815,-1273.0
19171.408386687053,-1241.0
19171.408449184288,-1542.0
19171.408511681526,-858.0
19171.408574178764,-874.0
19171.408636676002,-783.0
19171.408699173237,-607.0
19171.408761670475,-856.0
19171.408824167713,-272.0
19171.40888666495,-141.0
19171.408949162185,-231.0
19171.409011659423,-293.0
19171.40907415666,-530.0
19171.4091366539,-198.0
19171.409199151134,143.0
19171.409261648372,366.0
19171.40932414561,522.0
19171.409386642845,593.0
19171.409449140083,989.0
19171.40951163732,1433.0
19171.40957413456,1295.0
19171.409636631794,495.0
19171.40969912903,137.0
19171.40976162627,478.0
19171.409824123508,1003.0
19171.409886620742,987.0
19171.40994911798,453.0
19171.41001161522,319.0
19171.410074112457,844.0
19171.41013660969,745.0
19171.41019910693,140.0
19171.410261604167,335.0
19171.410324101405,822.0
19171.41038659864,1244.0
19171.410449095878,1602.0
19171.410511593116,1147.0
19171.410574090354,565.0
19171.41063658759,511.0
19171.410699084827,177.0
19171.410761582065,303.0
19171.410824079303,414.0
19171.410886576537,471.0
19171.410949073776,1002.0
19171.411011571014,1178.0
19171.41107406825,983.0
19171.411136565486,1223.0
19171.411199062724,1587.0
19171.411261559962,1394.0
19171.411324057197,1116.0
19171.411386554435,539.0
19171.411449051673,488.0
19171.41151154891,803.0
19171.411574046146,172.0
19171.411636543384,-228.0
19171.411699040622,228.0
19171.41176153786,527.0
19171.411824035094,878.0
19171.411886532333,1311.0
19171.41194902957,1517.0
19171.41201152681,1959.0
19171.412074024043,1855.0
19171.41213652128,1307.0
19171.41219901852,1062.0
19171.412261515758,1506.0
19171.412324012992,2017.0
19171.41238651023,1829.0
19171.41244900747,1334.0
19171.412511504706,1659.0
19171.41257400194,2101.0
19171.41263649918,2337.0
19171.412698996417,2657.0
19171.41276149365,2499.0
19171.41282399089,2678.0
19171.412886488128,3034.0
19171.412948985366,2737.0
19171.413011482604,2219.0
19171.41307397984,1742.0
19171.413136477076,1861.0
19171.413198974315,2038.0
19171.41326147155,1887.0
19171.413323968787,1808.0
19171.413386466025,1817.0
19171.413448963263,2511.0
19171.413511460498,3018.0
19171.413573957736,2454.0
19171.413636454974,1602.0
19171.413698952212,1295.0
19171.413761449447,1239.0
19171.413823946685,759.0
19171.413886443923,512.0
19171.41394894116,542.0
19171.414011438395,250.0
19171.414073935633,494.0
19171.41413643287,833.0
19171.41419893011,355.0
19171.414261427344,-304.0
19171.414323924582,-782.0
19171.41438642182,91.0
19171.41444891906,648.0
19171.414511416293,374.0
19171.41457391353,416.0
19171.41463641077,-203.0
19171.414698908004,-51.0
19171.41476140524,637.0
19171.41482390248,-130.0
19171.414886399718,-674.0
19171.414948896952,-528.0
19171.41501139419,-32.0
19171.41507389143,91.0
19171.415136388667,-663.0
19171.4151988859,-1192.0
19171.41526138314,-1312.0
19171.415323880377,-930.0
19171.415386377616,-928.0
19171.41544887485,-1472.0
19171.415511372088,-1647.0
19171.415573869326,-1466.0
19171.415636366564,-1445.0
19171.4156988638,-1276.0
19171.415761361037,-1201.0
19171.415823858275,-1282.0
19171.415886355513,-1683.0
19171.415948852748,-1475.0
19171.416011349986,-838.0
19171.416073847224,-1240.0
19171.416136344462,-1748.0
19171.416198841696,-1533.0
19171.416261338934,-1041.0
19171.416323836173,-955.0
19171.41638633341,-991.0
19171.416448830645,-1449.0
19171.416511327883,-1440.0
19171.41657382512,-1022.0
19171.416636322356,-1478.0
19171.416698819594,-1794.0
19171.416761316832,-1381.0
19171.41682381407,-1210.0
19171.416886311305,-1242.0
19171.416948808543,-933.0
19171.41701130578,-1173.0
19171.41707380302,-1408.0
19171.417136300253,-1050.0
19171.41719879749,-691.0
19171.41726129473,-979.0
19171.417323791968,-1003.0
19171.417386289202,-1026.0
19171.41744878644,-1488.0
19171.41751128368,-1637.0
19171.417573780916,-1659.0
19171.41763627815,-1829.0
19171.41769877539,-1478.0
19171.417761272627,-1421.0
19171.417823769865,-1565.0
19171.4178862671,-792.0
19171.417948764338,-907.0
19171.418011261576,-1256.0
19171.41807375881,-673.0
19171.41813625605,-390.0
19171.418198753287,-206.0
19171.418261250525,-44.0
19171.418323747763,-333.0
19171.418386244997,-316.0
19171.418448742235,-312.0
19171.418511239473,-1028.0
19171.418573736708,-1146.0
19171.418636233946,-188.0
19171.418698731184,162.0
19171.418761228422,139.0
19171.418823725657,221.0
19171.418886222895,-492.0
19171.418948720133,-1184.0
19171.41901121737,-1183.0
19171.419073714605,-1098.0
19171.419136211844,-1150.0
19171.41919870908,-599.0
19171.41926120632,-135.0
19171.419323703554,-25.0
19171.419386200792,53.0
19171.41944869803,-136.0
19171.41951119527,361.0
19171.419573692503,1001.0
19171.41963618974,766.0
19171.41969868698,399.0
19171.419761184217,669.0
19171.41982368145,759.0
19171.41988617869,695.0
19171.419948675928,540.0
19171.420011173162,529.0
19171.4200736704,572.0
19171.42013616764,525.0
19171.420198664877,1014.0
19171.420261162115,1406.0
19171.42032365935,1080.0
19171.420386156587,690.0
19171.420448653826,974.0
19171.42051115106,1098.0
19171.420573648298,1101.0
19171.420636145536,1367.0
19171.420698642774,1091.0
19171.42076114001,685.0
19171.420823637247,490.0
19171.420886134485,316.0
19171.420948631723,731.0
19171.421011128958,790.0
19171.421073626196,451.0
19171.421136123434,733.0
19171.421198620672,1126.0
19171.421261117906,985.0
19171.421323615145,669.0
19171.421386112383,907.0
19171.42144860962,1086.0
19171.421511106855,822.0
19171.421573604093,376.0
19171.42163610133,245.0
19171.42169859857,782.0
19171.421761095804,1322.0
19171.421823593042,1568.0
19171.42188609028,1654.0
19171.421948587515,1385.0
19171.422011084753,1547.0
19171.42207358199,1835.0
19171.42213607923,1836.0
19171.422198576463,1781.0
19171.4222610737,1883.0
19171.42232357094,2073.0
19171.422386068178,1516.0
19171.422448565412,1371.0
19171.42251106265,1674.0
19171.42257355989,1319.0
19171.422636057127,1563.0
19171.42269855436,1676.0
19171.4227610516,1403.0
19171.422823548837,1459.0
19171.422886046075,985.0
19171.42294854331,535.0
19171.423011040548,646.0
19171.423073537786,390.0
19171.423136035024,30.0
19171.42319853226,279.0
19171.423261029497,131.0
19171.423323526735,44.0
19171.423386023973,437.0
19171.423448521207,194.0
19171.423511018445,41.0
19171.423573515684,262.0
19171.42363601292,440.0
19171.423698510156,679.0
19171.423761007394,651.0
19171.423823504632,687.0
19171.423886001867,860.0
19171.423948499105,799.0
19171.424010996343,549.0
19171.42407349358,-6.0
19171.424135990816,109.0
19171.424198488054,-81.0
19171.42426098529,-375.0
19171.42432348253,27.0
19171.424385979764,182.0
19171.424448477002,419.0
19171.42451097424,646.0
19171.42457347148,194.0
19171.424635968713,-263.0
19171.42469846595,-180.0
19171.42476096319,-192.0
19171.424823460427,-921.0
19171.424885957662,-1244.0
19171.4249484549,-883.0
19171.425010952138,-949.0
19171.425073449376,-1042.0
19171.42513594661,-1032.0
19171.42519844385,-629.0
19171.425260941087,448.0
19171.42532343832,538.0
19171.42538593556,-366.0
19171.425448432798,-1328.0
19171.425510930036,-1574.0
19171.425573427274,-1487.0
19171.42563592451,-1248.0
19171.425698421746,-1008.0
19171.425760918984,-813.0
19171.42582341622,-463.0
19171.425885913457,-732.0
19171.425948410695,-1156.0
19171.426010907933,-1137.0
19171.426073405168,-955.0
19171.426135902406,-902.0
19171.426198399644,-831.0
19171.426260896882,-513.0
19171.426323394116,-709.0
19171.426385891355,-1160.0
19171.426448388593,-981.0
19171.42651088583,-815.0
19171.426573383065,-712.0
19171.426635880303,-618.0
19171.42669837754,-866.0
19171.42676087478,-764.0
19171.426823372014,-526.0
19171.426885869252,-700.0
19171.42694836649,-922.0
19171.42701086373,-936.0
19171.427073360963,-870.0
19171.4271358582,-686.0
19171.42719835544,-523.0
19171.427260852673,-636.0
19171.42732334991,-755.0
19171.42738584715,-713.0
19171.427448344388,-549.0
19171.427510841622,-501.0
19171.42757333886,-874.0
19171.4276358361,-895.0
19171.427698333337,-675.0
19171.42776083057,-673.0
19171.42782332781,-961.0
19171.427885825047,-2052.0
19171.427948322285,-2689.0
19171.42801081952,-2272.0
19171.428073316758,-2148.0
19171.428135813996,-1977.0
19171.428198311234,-1383.0
19171.42826080847,-1006.0
19171.428323305707,-766.0
19171.428385802945,-745.0
19171.428448300183,-1908.0
19171.428510797417,-2908.0
19171.428573294656,-2765.0
19171.428635791894,-3308.0
19171.42869828913,-3591.0
19171.428760786366,-2692.0
19171.428823283604,-2147.0
19171.428885780842,-2284.0
19171.42894827808,-1907.0
19171.429010775315,-1418.0
19171.429073272553,-1332.0
19171.42913576979,-1054.0
19171.429198267026,-977.0
19171.429260764264,-679.0
19171.429323261502,-320.0
19171.42938575874,-65.0
19171.429448255974,615.0
19171.429510753213,1035.0
19171.42957325045,1130.0
19171.42963574769,1403.0
19171.429698244923,1798.0
19171.42976074216,1683.0
19171.4298232394,1422.0
19171.429885736638,2079.0
19171.429948233872,2617.0
19171.43001073111,1816.0
19171.43007322835,1005.0
19171.430135725586,1024.0
19171.43019822282,1363.0
19171.43026072006,932.0
19171.430323217297,619.0
19171.430385714535,1393.0
19171.43044821177,2083.0
19171.430510709008,1914.0
19171.430573206246,1332.0
19171.43063570348,1417.0
19171.43069820072,1330.0
19171.430760697956,889.0
19171.430823195195,1188.0
19171.430885692433,1316.0
19171.430948189667,1450.0
19171.431010686905,1474.0
19171.431073184143,1595.0
19171.431135681378,2268.0
19171.431198178616,1565.0
19171.431260675854,780.0
19171.431323173092,1149.0
19171.431385670327,1247.0
19171.431448167565,604.0
19171.431510664803,519.0
19171.43157316204,1301.0
19171.431635659275,1492.0
19171.431698156513,1090.0
19171.43176065375,1219.0
19171.43182315099,1749.0
19171.431885648224,1955.0
19171.431948145462,1263.0
19171.4320106427,475.0
19171.43207313994,480.0
19171.432135637173,384.0
19171.43219813441,135.0
19171.43226063165,133.0
19171.432323128887,88.0
19171.43238562612,-136.0
19171.43244812336,-109.0
19171.432510620598,-258.0
19171.432573117832,-721.0
19171.43263561507,-1041.0
19171.43269811231,-915.0
19171.432760609547,-709.0
19171.43282310678,-1240.0
19171.43288560402,-1428.0
19171.432948101257,-877.0
19171.433010598495,-556.0
19171.43307309573,-11.0
19171.433135592968,-409.0
19171.433198090206,-860.0
19171.433260587444,-743.0
19171.43332308468,-732.0
19171.433385581917,-890.0
19171.433448079155,-1331.0
19171.433510576393,-1654.0
19171.433573073627,-1671.0
19171.433635570866,-1107.0
19171.433698068104,-1253.0
19171.43376056534,-1121.0
19171.433823062576,-1002.0
19171.433885559814,-1245.0
19171.433948057052,-649.0
19171.43401055429,-792.0
19171.434073051525,-1055.0
19171.434135548763,-68.0
19171.434198046,424.0
19171.43426054324,844.0
19171.434323040474,891.0
19171.434385537712,398.0
19171.43444803495,374.0
19171.434510532185,21.0
19171.434573029423,-108.0
19171.43463552666,-175.0
19171.4346980239,-131.0
19171.434760521133,24.0
19171.43482301837,72.0
19171.43488551561,551.0
19171.434948012848,550.0
19171.435010510082,126.0
19171.43507300732,188.0
19171.43513550456,32.0
19171.435198001796,-17.0
19171.43526049903,335.0
19171.43532299627,398.0
19171.435385493507,358.0
19171.435447990745,693.0
19171.43551048798,974.0
19171.435572985218,695.0
19171.435635482456,317.0
19171.435697979694,437.0
19171.43576047693,789.0
19171.435822974167,745.0
19171.435885471405,-276.0
19171.43594796864,-1100.0
19171.436010465877,-542.0
19171.436072963115,-372.0
19171.436135460353,-697.0
19171.43619795759,-570.0
19171.436260454826,-413.0
19171.436322952064,-240.0
19171.436385449302,-236.0
19171.436447946537,-401.0
19171.436510443775,-388.0
19171.436572941013,-14.0
19171.43663543825,-122.0
19171.436697935485,-358.0
19171.436760432724,-391.0
19171.43682292996,-894.0
19171.4368854272,-1176.0
19171.436947924434,-1205.0
19171.437010421672,-843.0
19171.43707291891,-954.0
19171.43713541615,-1061.0
19171.437197913383,-348.0
19171.43726041062,-248.0
19171.43732290786,-87.0
19171.437385405097,448.0
19171.43744790233,-74.0
19171.43751039957,-460.0
19171.437572896808,331.0
19171.437635394046,293.0
19171.43769789128,-314.0
19171.43776038852,-392.0
19171.437822885757,127.0
19171.43788538299,795.0
19171.43794788023,896.0
19171.438010377467,802.0
19171.438072874706,1133.0
19171.43813537194,1039.0
19171.438197869178,525.0
19171.438260366416,268.0
19171.438322863654,163.0
19171.43838536089,367.0
19171.438447858127,429.0
19171.438510355365,352.0
19171.438572852603,245.0
19171.438635349838,303.0
19171.438697847076,203.0
19171.438760344314,11.0
19171.438822841552,526.0
19171.438885338786,544.0
19171.438947836024,67.0
19171.439010333263,359.0
19171.4390728305,451.0
19171.439135327735,-95.0
19171.439197824973,-338.0
19171.43926032221,195.0
19171.43932281945,541.0
19171.439385316684,349.0
19171.439447813922,74.0
19171.43951031116,-273.0
19171.4395728084,6.0
19171.439635305633,18.0
19171.43969780287,-452.0
19171.43976030011,-353.0
19171.439822797343,-213.0
19171.43988529458,7.0
19171.43994779182,358.0
19171.440010289058,701.0
19171.440072786292,354.0
19171.44013528353,-77.0
19171.44019778077,205.0
19171.440260278006,-11.0
19171.44032277524,-9.0
19171.44038527248,-272.0
19171.440447769717,-178.0
19171.440510266955,417.0
19171.44057276419,-260.0
19171.440635261428,-310.0
19171.440697758666,22.0
19171.440760255904,-25.0
19171.44082275314,125.0
19171.440885250377,138.0
19171.440947747615,27.0
19171.441010244853,-867.0
19171.441072742087,-975.0
19171.441135239325,-247.0
19171.441197736563,65.0
19171.441260233798,111.0
19171.441322731036,465.0
19171.441385228274,1204.0
19171.441447725512,1150.0
19171.44151022275,721.0
19171.441572719985,130.0
19171.441635217223,-91.0
19171.44169771446,329.0
19171.441760211696,667.0
19171.441822708934,412.0
19171.44188520617,368.0
19171.44194770341,220.0
19171.442010200644,318.0
19171.442072697882,726.0
19171.44213519512,465.0
19171.44219769236,578.0
19171.442260189593,819.0
19171.44232268683,966.0
19171.44238518407,850.0
19171.442447681307,304.0
19171.442510178542,396.0
19171.44257267578,850.0
19171.442635173018,680.0
19171.442697670256,794.0
19171.44276016749,626.0
19171.44282266473,333.0
19171.442885161967,323.0
19171.442947659205,-36.0
19171.44301015644,-4.0
19171.443072653678,327.0
19171.443135150916,944.0
19171.44319764815,905.0
19171.44326014539,228.0
19171.443322642626,-527.0
19171.443385139864,-932.0
19171.443447637103,-991.0
19171.443510134337,-1282.0
19171.443572631575,-1132.0
19171.443635128813,-901.0
19171.443697626048,-790.0
19171.443760123286,-896.0
19171.443822620524,-1108.0
19171.443885117762,-1058.0
19171.443947614996,-779.0
19171.444010112235,-668.0
19171.444072609473,-583.0
19171.44413510671,-608.0
19171.444197603945,-910.0
19171.444260101183,-1426.0
19171.44432259842,-1655.0
19171.44438509566,-1505.0
19171.444447592894,-1706.0
19171.444510090132,-1431.0
19171.44457258737,-1094.0
19171.44463508461,-1259.0
19171.444697581843,-1660.0
19171.44476007908,-1721.0
19171.44482257632,-1653.0
19171.444885073557,-1631.0
19171.44494757079,-1592.0
19171.44501006803,-1451.0
19171.445072565268,-1062.0
19171.445135062502,-1247.0
19171.44519755974,-1346.0
19171.44526005698,-1216.0
19171.445322554217,-963.0
19171.44538505145,-820.0
19171.44544754869,-665.0
19171.445510045927,-229.0
19171.445572543165,-802.0
19171.4456350404,-996.0
19171.445697537638,-551.0
19171.445760034876,-518.0
19171.445822532114,-8.0
19171.44588502935,291.0
19171.445947526587,203.0
19171.446010023825,152.0
19171.446072521063,231.0
19171.446135018297,92.0
19171.446197515535,-610.0
19171.446260012774,-281.0
19171.44632251001,462.0
19171.446385007246,684.0
19171.446447504484,941.0
19171.446510001722,688.0
19171.44657249896,109.0
19171.446634996195,452.0
19171.446697493433,559.0
19171.44675999067,56.0
19171.44682248791,366.0
19171.446884985144,1067.0
19171.44694748238,1050.0
19171.44700997962,528.0
19171.447072476854,486.0
19171.447134974092,807.0
19171.44719747133,704.0
19171.44725996857,564.0
19171.447322465803,651.0
19171.44738496304,715.0
19171.44744746028,554.0
19171.447509957517,731.0
19171.447572454752,466.0
19171.44763495199,227.0
19171.447697449228,773.0
19171.447759946466,1061.0
19171.4478224437,1078.0
19171.44788494094,699.0
19171.447947438177,882.0
19171.448009935415,1503.0
19171.44807243265,1274.0
19171.448134929888,1231.0
19171.448197427126,1435.0
19171.448259924364,1290.0
19171.4483224216,1091.0
19171.448384918836,985.0
19171.448447416074,997.0
19171.44850991331,1360.0
19171.448572410547,1573.0
19171.448634907785,1396.0
19171.448697405023,1442.0
19171.44875990226,1496.0
19171.448822399496,1256.0
19171.448884896734,1150.0
19171.448947393972,1411.0
19171.449009891207,1453.0
19171.449072388445,1039.0
19171.449134885683,1029.0
19171.44919738292,1763.0
19171.449259880155,1732.0
19171.449322377393,1614.0
19171.44938487463,1810.0
19171.44944737187,1573.0
19171.449509869104,1532.0
19171.449572366342,1399.0
19171.44963486358,1273.0
19171.44969736082,1106.0
19171.449759858053,981.0
19171.44982235529,1085.0
19171.44988485253,1066.0
19171.449947349767,495.0
19171.450009847,105.0
19171.45007234424,468.0
19171.450134841478,881.0
19171.450197338716,261.0
19171.45025983595,168.0
19171.45032233319,764.0
19171.450384830427,305.0
19171.45044732766,-430.0
19171.4505098249,-781.0
19171.450572322137,-1066.0
19171.450634819375,-1012.0
19171.45069731661,-792.0
19171.450759813848,-548.0
19171.450822311086,-419.0
19171.450884808324,-680.0
19171.45094730556,-571.0
19171.451009802797,-302.0
19171.451072300035,-179.0
19171.451134797273,-96.0
19171.451197294507,-144.0
19171.451259791746,57.0
19171.451322288984,388.0
19171.45138478622,356.0
19171.451447283456,859.0
19171.451509780694,867.0
19171.451572277932,387.0
19171.45163477517,-26.0
19171.451697272405,-69.0
19171.451759769643,160.0
19171.45182226688,-71.0
19171.45188476412,-49.0
19171.451947261354,70.0
19171.452009758592,4.0
19171.45207225583,-354.0
19171.452134753068,-738.0
19171.452197250303,-1012.0
19171.45225974754,-1055.0
19171.45232224478,-579.0
19171.452384742013,-601.0
19171.45244723925,-1467.0
19171.45250973649,-1860.0
19171.452572233728,-1450.0
19171.452634730962,-731.0
19171.4526972282,-700.0
19171.45275972544,-1091.0
19171.452822222676,-674.0
19171.45288471991,-425.0
19171.45294721715,-736.0
19171.453009714387,-1422.0
19171.453072211625,-1875.0
19171.45313470886,-1382.0
19171.453197206098,-1436.0
19171.453259703336,-1290.0
19171.453322200574,-1088.0
19171.45338469781,-1114.0
19171.453447195046,-680.0
19171.453509692285,-578.0
19171.453572189523,-504.0
19171.453634686757,-1035.0
19171.453697183995,-1093.0
19171.453759681233,-641.0
19171.453822178468,-1093.0
19171.453884675706,-671.0
19171.453947172944,-336.0
19171.454009670182,-892.0
19171.45407216742,-545.0
19171.454134664655,-611.0
19171.454197161893,-1464.0
19171.45425965913,-1560.0
19171.454322156365,-1691.0
19171.454384653603,-1756.0
19171.45444715084,-1237.0
19171.45450964808,-807.0
19171.454572145314,-702.0
19171.454634642552,-818.0
19171.45469713979,-972.0
19171.45475963703,-1306.0
19171.454822134263,-1298.0
19171.4548846315,-886.0
19171.45494712874,-838.0
19171.455009625977,-750.0
19171.45507212321,-770.0
19171.45513462045,-1035.0
19171.455197117688,-833.0
19171.455259614926,-688.0
19171.45532211216,-1037.0
19171.4553846094,-691.0
19171.455447106637,-336.0
19171.455509603875,-522.0
19171.45557210111,-857.0
19171.455634598347,-1291.0
19171.455697095585,-1193.0
19171.45575959282,-414.0
19171.455822090058,280.0
19171.455884587296,-199.0
19171.455947084534,-190.0
19171.45600958177,358.0
19171.456072079007,344.0
19171.456134576245,689.0
19171.456197073483,608.0
19171.456259570718,332.0
19171.456322067956,545.0
19171.456384565194,269.0
19171.456447062432,249.0
19171.456509559666,581.0
19171.456572056904,751.0
19171.456634554143,1278.0
19171.45669705138,1600.0
19171.456759548615,1537.0
19171.456822045853,1137.0
19171.45688454309,806.0
19171.45694704033,368.0
19171.457009537564,4.0
19171.457072034802,-85.0
19171.45713453204,-73.0
19171.457197029278,211.0
19171.457259526513,920.0
19171.45732202375,1593.0
19171.45738452099,1640.0
19171.457447018227,1554.0
19171.45750951546,1510.0
19171.4575720127,780.0
19171.457634509938,-129.0
19171.457697007172,-118.0
19171.45775950441,21.0
19171.45782200165,-205.0
19171.457884498886,-83.0
19171.45794699612,645.0
19171.45800949336,870.0
19171.458071990597,607.0
19171.458134487835,813.0
19171.45819698507,646.0
19171.458259482308,65.0
19171.458321979546,178.0
19171.458384476784,244.0
19171.45844697402,347.0
19171.458509471257,593.0
19171.458571968495,277.0
19171.458634465733,521.0
19171.458696962967,925.0
19171.458759460205,516.0
19171.458821957443,84.0
19171.45888445468,-180.0
19171.458946951916,47.0
19171.459009449154,331.0
19171.459071946392,348.0
19171.459134443627,147.0
19171.459196940865,-242.0
19171.459259438103,-187.0
19171.45932193534,-164.0
19171.45938443258,-690.0
19171.459446929814,-1097.0
19171.45950942705,-954.0
19171.45957192429,-370.0
19171.459634421524,-161.0
19171.459696918762,-501.0
19171.459759416,-810.0
19171.45982191324,-653.0
19171.459884410473,-208.0
19171.45994690771,-175.0
19171.46000940495,-542.0
19171.460071902187,-935.0
19171.46013439942,-877.0
19171.46019689666,-403.0
19171.460259393898,-1181.0
19171.460321891136,-2531.0
19171.46038438837,-2848.0
19171.46044688561,-2892.0
19171.460509382847,-2150.0
19171.460571880085,-1706.0
19171.46063437732,-1799.0
19171.460696874557,-1354.0
19171.460759371796,-1067.0
19171.460821869034,-888.0
19171.460884366268,-1720.0
19171.460946863506,-2539.0
19171.461009360744,-2067.0
19171.46107185798,-1399.0
19171.461134355217,-728.0
19171.461196852455,-649.0
19171.461259349693,-874.0
19171.461321846928,-339.0
19171.461384344166,290.0
19171.461446841404,247.0
19171.461509338642,-33.0
19171.461571835876,-194.0
19171.461634333114,579.0
19171.461696830353,708.0
19171.46175932759,39.0
19171.461821824825,-598.0
19171.461884322063,-1039.0
19171.4619468193,-381.0
19171.46200931654,248.0
19171.462071813774,260.0
19171.462134311012,451.0
19171.46219680825,669.0
19171.46225930549,730.0
19171.462321802723,896.0
19171.46238429996,853.0
19171.4624467972,603.0
19171.462509294437,940.0
19171.46257179167,842.0
19171.46263428891,435.0
19171.462696786148,154.0
19171.462759283386,-122.0
19171.46282178062,241.0
19171.46288427786,854.0
19171.462946775096,792.0
19171.46300927233,505.0
19171.46307176957,466.0
19171.463134266807,601.0
19171.463196764045,782.0
19171.46325926128,939.0
19171.463321758518,1113.0
19171.463384255756,1005.0
19171.463446752994,1096.0
19171.46350925023,1014.0
19171.463571747467,681.0
19171.463634244705,822.0
19171.463696741943,882.0
19171.463759239177,909.0
19171.463821736415,1194.0
19171.463884233654,1615.0
19171.46394673089,1623.0
19171.464009228126,1379.0
19171.464071725364,1703.0
19171.464134222602,1557.0
19171.46419671984,1351.0
19171.464259217075,1138.0
19171.464321714313,726.0
19171.46438421155,1204.0
19171.464446708786,1336.0
19171.464509206024,1126.0
19171.46457170326,897.0
19171.4646342005,558.0
19171.464696697738,297.0
19171.464759194972,-58.0
19171.46482169221,-232.0
19171.46488418945,-438.0
19171.464946686683,-3.0
19171.46500918392,55.0
19171.46507168116,-534.0
19171.465134178397,-671.0
19171.465196675632,-247.0
19171.46525917287,209.0
19171.465321670108,-22.0
19171.465384167346,-495.0
19171.46544666458,-1011.0
19171.46550916182,-819.0
19171.465571659057,-523.0
19171.465634156295,-629.0
19171.46569665353,-173.0
19171.465759150768,89.0
19171.465821648006,-149.0
19171.465884145244,-193.0
19171.46594664248,-390.0
19171.466009139716,-703.0
19171.466071636954,-385.0
19171.466134134193,199.0
19171.466196631427,472.0
19171.466259128665,524.0
19171.466321625903,103.0
19171.466384123138,355.0
19171.466446620376,401.0
19171.466509117614,292.0
19171.466571614852,162.0
19171.46663411209,-86.0
19171.466696609325,656.0
19171.466759106563,794.0
19171.4668216038,571.0
19171.466884101035,437.0
19171.466946598273,338.0
19171.46700909551,657.0
19171.46707159275,539.0
19171.467134089984,-16.0
19171.467196587222,-252.0
19171.46725908446,-117.0
19171.4673215817,57.0
19171.467384078933,-288.0
19171.46744657617,-199.0
19171.46750907341,365.0
19171.467571570647,532.0
19171.46763406788,829.0
19171.46769656512,805.0
19171.467759062358,483.0
19171.467821559596,296.0
19171.46788405683,479.0
19171.46794655407,801.0
19171.468009051307,604.0
19171.468071548545,399.0
19171.46813404578,296.0
19171.468196543017,212.0
19171.468259040255,586.0
19171.46832153749,960.0
19171.468384034728,897.0
19171.468446531966,1175.0
19171.468509029204,1381.0
19171.46857152644,1210.0
19171.468634023677,434.0
19171.468696520915,48.0
19171.468759018153,334.0
19171.468821515387,234.0
19171.468884012625,613.0
19171.468946509864,75.0
19171.4690090071,-152.0
19171.469071504336,720.0
19171.469134001574,493.0
19171.469196498812,207.0
19171.46925899605,-12.0
19171.469321493285,-390.0
19171.469383990523,-439.0
19171.46944648776,-383.0
19171.469508985,-679.0
19171.469571482234,-673.0
19171.469633979472,-338.0
19171.46969647671,-263.0
19171.469758973948,-166.0
19171.469821471183,-366.0
19171.46988396842,-534.0
19171.46994646566,-82.0
19171.470008962897,151.0
19171.47007146013,100.0
19171.47013395737,372.0
19171.470196454608,332.0
19171.470258951842,-110.0
19171.47032144908,-669.0
19171.470383946318,-1131.0
19171.470446443556,-1562.0
19171.47050894079,-2121.0
19171.47057143803,-1993.0
19171.470633935267,-1597.0
19171.470696432505,-1307.0
19171.47075892974,-1089.0
19171.470821426978,-609.0
19171.470883924216,-379.0
19171.470946421454,-349.0
19171.47100891869,-317.0
19171.471071415926,-326.0
19171.471133913165,-171.0
19171.471196410403,-472.0
19171.471258907637,-531.0
19171.471321404875,166.0
19171.471383902113,517.0
19171.47144639935,378.0
19171.471508896586,792.0
19171.471571393824,1336.0
19171.471633891062,1181.0
19171.471696388297,1097.0
19171.471758885535,859.0
19171.471821382773,459.0
19171.47188388001,532.0
19171.47194637725,527.0
19171.472008874483,661.0
19171.47207137172,841.0
19171.47213386896,643.0
19171.472196366194,477.0
19171.472258863432,469.0
19171.47232136067,643.0
19171.47238385791,553.0
19171.472446355143,445.0
19171.47250885238,893.0
19171.47257134962,1346.0
19171.472633846857,1345.0
19171.47269634409,1225.0
19171.47275884133,1077.0
19171.472821338568,1098.0
19171.472883835806,755.0
19171.47294633304,-22.0
19171.47300883028,-168.0
19171.473071327517,-4.0
19171.473133824755,283.0
19171.47319632199,-65.0
19171.473258819227,-326.0
19171.473321316465,-390.0
19171.473383813704,-792.0
19171.473446310938,-296.0
19171.473508808176,-133.0
19171.473571305414,-809.0
19171.47363380265,-1083.0
19171.473696299887,-1087.0
19171.473758797125,-976.0
19171.473821294363,-703.0
19171.473883791597,-824.0
19171.473946288836,-493.0
19171.474008786074,-143.0
19171.47407128331,-683.0
19171.474133780546,-590.0
19171.474196277784,-518.0
19171.474258775022,-190.0
19171.47432127226,590.0
19171.474383769495,818.0
19171.474446266733,708.0
19171.47450876397,162.0
19171.47457126121,-374.0
19171.474633758444,-419.0
19171.474696255682,-31.0
19171.47475875292,-283.0
19171.474821250158,-479.0
19171.474883747393,-81.0
19171.47494624463,-171.0
19171.47500874187,-670.0
19171.475071239107,-932.0
19171.47513373634,-1203.0
19171.47519623358,-1444.0
19171.475258730818,-1347.0
19171.475321228056,-1571.0
19171.47538372529,-1366.0
19171.47544622253,-1166.0
19171.475508719766,-1284.0
19171.475571217,-1041.0
19171.47563371424,-885.0
19171.475696211477,-413.0
19171.475758708715,412.0
19171.47582120595,341.0
19171.475883703188,89.0
19171.475946200426,356.0
19171.476008697664,152.0
19171.4760711949,215.0
19171.476133692137,152.0
19171.476196189375,-92.0
19171.476258686613,677.0
19171.476321183847,695.0
19171.476383681085,559.0
19171.476446178323,611.0
19171.47650867556,588.0
19171.476571172796,798.0
19171.476633670034,620.0
19171.476696167272,480.0
19171.47675866451,325.0
19171.476821161745,-3.0
19171.476883658983,379.0
19171.47694615622,673.0
19171.477008653455,299.0
19171.477071150694,87.0
19171.47713364793,-27.0
19171.47719614517,557.0
19171.477258642408,582.0
19171.477321139642,83.0
19171.47738363688,-77.0
19171.47744613412,-49.0
19171.477508631353,951.0
19171.47757112859,1265.0
19171.47763362583,816.0
19171.477696123067,428.0
19171.4777586203,219.0
19171.47782111754,151.0
19171.477883614778,146.0
19171.477946112016,-358.0
19171.47800860925,-234.0
19171.47807110649,-58.0
19171.478133603727,-355.0
19171.478196100965,-326.0
19171.4782585982,-507.0
19171.478321095437,-338.0
19171.478383592676,-340.0
19171.478446089914,-874.0
19171.478508587148,-564.0
19171.478571084386,-391.0
19171.478633581624,-1040.0
19171.478696078862,-823.0
19171.478758576097,-468.0
19171.478821073335,-538.0
19171.478883570573,-716.0
19171.478946067808,-1109.0
19171.479008565046,-1193.0
19171.479071062284,-962.0
19171.479133559522,-808.0
19171.479196056756,-896.0
19171.479258553994,-1128.0
19171.479321051233,-879.0
19171.47938354847,-785.0
19171.479446045705,-775.0
19171.479508542943,-728.0
19171.47957104018,-1146.0
19171.47963353742,-1493.0
19171.479696034654,-1482.0
19171.479758531892,-1343.0
19171.47982102913,-1442.0
19171.47988352637,-1309.0
19171.479946023603,-738.0
19171.48000852084,-951.0
19171.48007101808,-1520.0
19171.480133515317,-1708.0
19171.48019601255,-1807.0
19171.48025850979,-2130.0
19171.480321007028,-2263.0
19171.480383504266,-2191.0
19171.4804460015,-2320.0
19171.48050849874,-2359.0
19171.480570995976,-2399.0
19171.480633493215,-1933.0
19171.48069599045,-1371.0
19171.480758487687,-1373.0
19171.480820984925,-1056.0
19171.48088348216,-702.0
19171.480945979398,-590.0
19171.481008476636,-699.0
19171.481070973874,-909.0
19171.48113347111,-953.0
19171.481195968347,-439.0
19171.481258465585,157.0
19171.481320962823,264.0
19171.481383460057,-18.0
19171.481445957295,5.0
19171.481508454533,448.0
19171.48157095177,555.0
19171.481633449006,127.0
19171.481695946244,-149.0
19171.481758443482,8.0
19171.48182094072,-425.0
19171.481883437955,-613.0
19171.481945935193,-1044.0
19171.48200843243,-1076.0
19171.48207092967,-42.0
19171.482133426904,618.0
19171.48219592414,465.0
19171.48225842138,-151.0
19171.482320918614,-321.0
19171.482383415852,77.0
19171.48244591309,-98.0
19171.48250841033,-332.0
19171.482570907567,79.0
19171.4826334048,336.0
19171.48269590204,86.0
19171.482758399277,-6.0
19171.482820896512,-35.0
19171.48288339375,128.0
19171.482945890988,548.0
19171.483008388226,296.0
19171.48307088546,323.0
19171.4831333827,584.0
19171.483195879937,262.0
19171.483258377175,248.0
19171.48332087441,674.0
19171.483383371648,627.0
19171.483445868886,486.0
19171.483508366124,309.0
19171.48357086336,-111.0
19171.483633360596,-295.0
19171.483695857834,49.0
19171.483758355072,401.0
19171.483820852307,296.0
19171.483883349545,487.0
19171.483945846783,411.0
19171.48400834402,-26.0
19171.484070841256,-50.0
19171.484133338494,-106.0
19171.484195835732,-451.0
19171.484258332966,-464.0
19171.484320830205,-317.0
19171.484383327443,-137.0
19171.48444582468,-21.0
19171.48450832192,-211.0
19171.484570819153,-374.0
19171.48463331639,-767.0
19171.48469581363,-961.0
19171.484758310864,-921.0
19171.484820808102,-916.0
19171.48488330534,-683.0
19171.48494580258,-544.0
19171.485008299813,-158.0
19171.48507079705,-223.0
19171.48513329429,-551.0
19171.485195791527,-666.0
19171.48525828876,-965.0
19171.485320786,-639.0
19171.485383283238,-553.0
19171.485445780476,-737.0
19171.48550827771,-991.0
19171.48557077495,-687.0
19171.485633272187,286.0
19171.485695769425,871.0
19171.48575826666,910.0
19171.485820763897,745.0
19171.485883261135,1126.0
19171.485945758373,635.0
19171.486008255608,-351.0
19171.486070752846,-460.0
19171.486133250084,-238.0
19171.48619574732,-337.0
19171.486258244557,-453.0
19171.486320741795,-214.0
19171.486383239033,-190.0
19171.486445736267,-473.0
19171.486508233505,-245.0
19171.486570730744,113.0
19171.48663322798,38.0
19171.486695725216,-313.0
19171.486758222454,-260.0
19171.486820719692,-99.0
19171.48688321693,105.0
19171.486945714165,120.0
19171.487008211403,-112.0
19171.48707070864,569.0
19171.48713320588,1028.0
19171.487195703114,1303.0
19171.48725820035,1446.0
19171.48732069759,1004.0
19171.487383194828,1151.0
19171.487445692062,1587.0
19171.4875081893,1612.0
19171.48757068654,993.0
19171.487633183777,708.0
19171.48769568101,1012.0
19171.48775817825,1664.0
19171.487820675487,1724.0
19171.487883172726,811.0
19171.48794566996,1105.0
19171.488008167198,1094.0
19171.488070664436,382.0
19171.48813316167,443.0
19171.48819565891,361.0
19171.488258156147,775.0
19171.488320653385,1090.0
19171.48838315062,1197.0
19171.488445647858,487.0
19171.488508145096,-883.0
19171.488570642334,-1171.0
19171.48863313957,-800.0
19171.488695636806,-984.0
19171.488758134044,-710.0
19171.488820631283,-202.0
19171.488883128517,-75.0
19171.488945625755,486.0
19171.489008122993,538.0
19171.48907062023,143.0
19171.489133117466,111.0
19171.489195614704,340.0
19171.489258111942,672.0
19171.48932060918,292.0
19171.489383106415,-42.0
19171.489445603653,175.0
19171.48950810089,440.0
19171.489570598125,262.0
19171.489633095363,67.0
19171.4896955926,244.0
19171.48975808984,485.0
19171.489820587078,466.0
19171.489883084312,137.0
19171.48994558155,-254.0
19171.49000807879,-268.0
19171.490070576023,-59.0
19171.49013307326,109.0
19171.4901955705,192.0
19171.490258067737,324.0
19171.49032056497,16.0
19171.49038306221,-610.0
19171.490445559448,-909.0
19171.490508056686,-728.0
19171.49057055392,-263.0
19171.49063305116,197.0
19171.490695548397,474.0
19171.490758045635,91.0
19171.49082054287,87.0
19171.490883040107,60.0
19171.490945537345,-209.0
19171.491008034584,-28.0
19171.491070531818,31.0
19171.491133029056,-266.0
19171.491195526294,-466.0
19171.491258023532,-546.0
19171.491320520767,-563.0
19171.491383018005,-642.0
19171.491445515243,-437.0
19171.491508012477,102.0
19171.491570509716,220.0
19171.491633006954,-77.0
19171.49169550419,-310.0
19171.491758001426,-36.0
19171.491820498664,-103.0
19171.491882995902,-507.0
19171.49194549314,-414.0
19171.492007990375,-552.0
19171.492070487613,-654.0
19171.49213298485,-720.0
19171.49219548209,-839.0
19171.492257979324,-645.0
19171.492320476562,-454.0
19171.4923829738,-176.0
19171.492445471038,-165.0
19171.492507968273,-625.0
19171.49257046551,-334.0
19171.49263296275,-300.0
19171.492695459987,-370.0
19171.49275795722,59.0
19171.49282045446,-93.0
19171.492882951698,22.0
19171.492945448936,687.0
19171.49300794617,903.0
19171.49307044341,262.0
19171.493132940646,-104.0
19171.493195437884,90.0
19171.49325793512,-183.0
19171.493320432357,-81.0
19171.493382929595,19.0
19171.49344542683,260.0
19171.493507924068,1125.0
19171.493570421306,1114.0
19171.493632918544,512.0
19171.49369541578,41.0
19171.493757913016,-52.0
19171.493820410255,102.0
19171.493882907493,424.0
19171.493945404727,305.0
19171.494007901965,259.0
19171.494070399203,455.0
19171.49413289644,70.0
19171.494195393676,-203.0
19171.494257890914,184.0
19171.494320388152,1015.0
19171.49438288539,1368.0
19171.494445382625,938.0
19171.494507879863,949.0
19171.4945703771,1297.0
19171.49463287434,557.0
19171.494695371573,372.0
19171.49475786881,654.0
19171.49482036605,309.0
19171.494882863284,518.0
19171.494945360522,393.0
19171.49500785776,-148.0
19171.495070355,478.0
19171.495132852237,1350.0
19171.49519534947,1303.0
19171.49525784671,1366.0
19171.495320343947,811.0
19171.49538284118,479.0
19171.49544533842,1162.0
19171.495507835658,1023.0
19171.495570332896,207.0
19171.49563283013,229.0
19171.49569532737,591.0
19171.495757824607,815.0
19171.495820321845,796.0
19171.49588281908,514.0
19171.495945316317,466.0
19171.496007813555,1111.0
19171.496070310794,1437.0
19171.496132808028,1547.0
19171.496195305266,1308.0
19171.496257802504,1013.0
19171.496320299742,973.0
19171.496382796977,579.0
19171.496445294215,220.0
19171.496507791453,378.0
19171.49657028869,468.0
19171.496632785926,444.0
19171.496695283164,649.0
19171.496757780402,775.0
19171.496820277636,1019.0
19171.496882774874,922.0
19171.496945272112,614.0
19171.49700776935,1030.0
19171.497070266585,1202.0
19171.497132763823,901.0
19171.49719526106,381.0
19171.4972577583,155.0
19171.497320255534,387.0
19171.497382752772,379.0
19171.49744525001,536.0
19171.497507747248,311.0
19171.497570244483,535.0
19171.49763274172,694.0
19171.49769523896,173.0
19171.497757736197,-84.0
19171.49782023343,-313.0
19171.49788273067,-135.0
19171.497945227908,-69.0
19171.498007725146,-237.0
19171.49807022238,-677.0
19171.49813271962,-1132.0
19171.498195216856,-1159.0
19171.498257714095,-903.0
19171.49832021133,-368.0
19171.498382708567,-43.0
19171.498445205805,-275.0
19171.498507703043,-275.0
19171.498570200278,153.0
19171.498632697516,236.0
19171.498695194754,-577.0
19171.49875769199,-1243.0
19171.498820189227,-986.0
19171.498882686465,-529.0
19171.498945183703,-280.0
19171.499007680937,-800.0
19171.499070178175,-1327.0
19171.499132675413,-1364.0
19171.49919517265,-1344.0
19171.499257669886,-1314.0
19171.499320167124,-1584.0
19171.499382664362,-1526.0
19171.4994451616,-1062.0
19171.499507658835,-1011.0
19171.499570156073,-1096.0
19171.49963265331,-1687.0
19171.49969515055,-1806.0
19171.499757647784,-1190.0
19171.49982014502,-1146.0
19171.49988264226,-927.0
19171.499945139498,-991.0
19171.500007636732,-1288.0
19171.50007013397,-1234.0
19171.50013263121,-1350.0
19171.500195128443,-1485.0
19171.50025762568,-1406.0
19171.50032012292,-1101.0
19171.500382620157,-456.0
19171.500445117395,-183.0
19171.50050761463,-190.0
19171.500570111868,-612.0
19171.500632609106,-555.0
19171.50069510634,-328.0
19171.50075760358,-945.0
19171.500820100817,-1407.0
19171.500882598055,-1830.0
19171.50094509529,-1848.0
19171.501007592527,-1242.0
19171.501070089766,-962.0
19171.501132587004,-483.0
19171.501195084238,147.0
19171.501257581476,-3.0
19171.501320078714,-404.0
19171.501382575952,-605.0
19171.501445073187,-904.0
19171.501507570425,-1156.0
19171.501570067663,-653.0
19171.5016325649,-226.0
19171.501695062136,-166.0
19171.501757559374,-47.0
19171.501820056612,3.0
19171.50188255385,203.0
19171.501945051084,386.0
19171.502007548323,216.0
19171.50207004556,224.0
19171.502132542795,487.0
19171.502195040033,935.0
19171.50225753727,829.0
19171.50232003451,398.0
19171.502382531744,630.0
19171.502445028982,939.0
19171.50250752622,655.0
19171.50257002346,146.0
19171.502632520693,102.0
19171.50269501793,678.0
19171.50275751517,904.0
19171.502820012407,414.0
19171.50288250964,490.0
19171.50294500688,1087.0
19171.503007504118,1206.0
19171.503070001356,804.0
19171.50313249859,845.0
19171.50319499583,949.0
19171.503257493066,486.0
19171.503319990305,294.0
19171.50338248754,666.0
19171.503444984777,1195.0
19171.503507482015,1332.0
19171.503569979253,970.0
19171.503632476488,605.0
19171.503694973726,870.0
19171.503757470964,1049.0
19171.503819968202,662.0
19171.503882465437,691.0
19171.503944962675,829.0
19171.504007459913,1215.0
19171.504069957147,1313.0
19171.504132454385,294.0
19171.504194951624,192.0
19171.50425744886,300.0
19171.504319946096,202.0
19171.504382443334,356.0
19171.504444940572,151.0
19171.50450743781,273.0
19171.504569935045,571.0
19171.504632432283,343.0
19171.50469492952,220.0
19171.50475742676,-203.0
19171.504819923994,-634.0
19171.50488242123,-412.0
19171.50494491847,-256.0
19171.505007415708,-562.0
19171.505069912942,-1038.0
19171.50513241018,-770.0
19171.50519490742,-631.0
19171.505257404657,-857.0
19171.50531990189,-1037.0
19171.50538239913,-1068.0
19171.505444896367,-863.0
19171.505507393602,-847.0
19171.50556989084,-1065.0
19171.505632388078,-1096.0
19171.505694885316,-1072.0
19171.505757382554,-1118.0
19171.50581987979,-1053.0
19171.505882377027,-1504.0
19171.505944874265,-1494.0
19171.5060073715,-915.0
19171.506069868738,-877.0
19171.506132365976,-1285.0
19171.506194863214,-1281.0
19171.50625736045,-1249.0
19171.506319857686,-1620.0
19171.506382354924,-1569.0
19171.506444852163,-1821.0
19171.506507349397,-1990.0
19171.506569846635,-1479.0
19171.506632343873,-1374.0
19171.50669484111,-1418.0
19171.506757338346,-1505.0
19171.506819835584,-1405.0
19171.506882332822,-1070.0
19171.50694483006,-1038.0
19171.507007327295,-925.0
19171.507069824533,-574.0
19171.50713232177,-618.0
19171.50719481901,-797.0
19171.507257316243,-733.0
19171.50731981348,-554.0
19171.50738231072,-685.0
19171.507444807954,-815.0
19171.507507305192,-626.0
19171.50756980243,-607.0
19171.50763229967,-645.0
19171.507694796906,-366.0
19171.50775729414,-148.0
19171.50781979138,97.0
19171.507882288617,318.0
19171.50794478585,241.0
19171.50800728309,0.0
19171.508069780328,9.0
19171.508132277566,100.0
19171.5081947748,-50.0
19171.50825727204,-124.0
19171.508319769277,-147.0
19171.508382266515,286.0
19171.50844476375,829.0
19171.508507260987,758.0
19171.508569758225,540.0
19171.508632255463,984.0
19171.508694752698,1652.0
19171.508757249936,1399.0
19171.508819747174,649.0
19171.508882244412,955.0
19171.508944741647,1445.0
19171.509007238885,1301.0
19171.509069736123,936.0
19171.50913223336,742.0
19171.509194730595,1187.0
19171.509257227834,1630.0
19171.50931972507,1552.0
19171.509382222306,1019.0
19171.509444719544,850.0
19171.509507216782,1123.0
19171.50956971402,1254.0
19171.509632211255,958.0
19171.509694708493,670.0
19171.50975720573,740.0
19171.50981970297,677.0
19171.509882200204,741.0
19171.509944697442,605.0
19171.51000719468,585.0
19171.510069691918,517.0
19171.510132189153,435.0
19171.51019468639,557.0
19171.51025718363,580.0
19171.510319680867,281.0
19171.5103821781,252.0
19171.51044467534,978.0
19171.510507172577,1053.0
19171.510569669816,920.0
19171.51063216705,948.0
19171.510694664288,729.0
19171.510757161526,1071.0
19171.510819658764,1287.0
19171.510882156,991.0
19171.510944653237,365.0
19171.511007150475,353.0
19171.511069647713,1302.0
19171.511132144948,1247.0
19171.511194642186,343.0
19171.511257139424,-318.0
19171.51131963666,-37.0
19171.511382133896,297.0
19171.511444631135,-284.0
19171.511507128373,-497.0
19171.511569625607,-104.0
19171.511632122845,139.0
19171.511694620083,413.0
19171.51175711732,192.0
19171.511819614556,-229.0
19171.511882111794,-587.0
19171.511944609032,-873.0
19171.51200710627,-704.0
19171.512069603505,-985.0
19171.512132100743,-806.0
19171.51219459798,-75.0
19171.51225709522,392.0
19171.512319592453,-41.0
19171.51238208969,-1287.0
19171.51244458693,-1146.0
19171.512507084168,-1135.0
19171.512569581402,-1310.0
19171.51263207864,-686.0
19171.51269457588,-549.0
19171.512757073113,-405.0
19171.51281957035,-290.0
19171.51288206759,-172.0
19171.512944564827,-26.0
19171.513007062065,-38.0
19171.5130695593,-396.0
19171.513132056538,-533.0
19171.513194553776,-612.0
19171.51325705101,-554.0
19171.51331954825,-418.0
19171.513382045487,-633.0
19171.513444542725,-203.0
19171.51350703996,143.0
19171.513569537197,32.0
19171.513632034435,-413.0
19171.513694531674,-855.0
19171.513757028908,-441.0
19171.513819526146,-110.0
19171.513882023384,94.0
19171.513944520622,218.0
19171.514007017857,468.0
19171.514069515095,547.0
19171.514132012333,624.0
19171.51419450957,525.0
19171.514257006806,67.0
19171.514319504044,238.0
19171.51438200128,661.0
19171.51444449852,1004.0
19171.514506995754,663.0
19171.514569492992,-286.0
19171.51463199023,-494.0
19171.514694487465,-448.0
19171.514756984703,-397.0
19171.51481948194,430.0
19171.51488197918,538.0
19171.514944476414,-11.0
19171.515006973652,-43.0
19171.51506947089,-249.0
19171.515131968128,-351.0
19171.515194465363,-402.0
19171.5152569626,-401.0
19171.51531945984,-14.0
19171.515381957077,-277.0
19171.51544445431,-321.0
19171.51550695155,-357.0
19171.515569448788,-1000.0
19171.515631946026,-818.0
19171.51569444326,-375.0
19171.5157569405,-443.0
19171.515819437736,-492.0
19171.515881934974,-652.0
19171.51594443221,-682.0
19171.516006929447,-381.0
19171.516069426685,-396.0
19171.516131923923,-793.0
19171.516194421158,-865.0
19171.516256918396,-547.0
19171.516319415634,-459.0
19171.516381912872,-164.0
19171.516444410106,-238.0
19171.516506907345,-561.0
19171.516569404583,-33.0
19171.516631901817,611.0
19171.516694399055,76.0
19171.516756896293,-497.0
19171.51681939353,-104.0
19171.516881890766,109.0
19171.516944388004,152.0
19171.517006885242,341.0
19171.51706938248,180.0
19171.517131879715,175.0
19171.517194376953,491.0
19171.51725687419,216.0
19171.51731937143,-22.0
19171.517381868664,43.0
19171.5174443659,153.0
19171.51750686314,524.0
19171.517569360378,645.0
19171.517631857612,-11.0
19171.51769435485,-271.0
19171.51775685209,-258.0
19171.517819349327,-613.0
19171.51788184656,-249.0
19171.5179443438,371.0
19171.518006841037,281.0
19171.51806933827,-58.0
19171.51813183551,-576.0
19171.518194332748,-634.0
19171.518256829986,-412.0
19171.518319327224,-493.0
19171.51838182446,-650.0
19171.518444321697,-786.0
19171.518506818935,-625.0
19171.51856931617,-336.0
19171.518631813407,-383.0
19171.518694310646,-612.0
19171.518756807884,-809.0
19171.518819305118,-781.0
19171.518881802356,-926.0
19171.518944299594,-1261.0
19171.519006796832,-1485.0
19171.519069294067,-1409.0
19171.519131791305,-1016.0
19171.519194288543,-1099.0
19171.51925678578,-1017.0
19171.519319283016,-1122.0
19171.519381780254,-1292.0
19171.519444277492,-1189.0
19171.51950677473,-1192.0
19171.519569271964,-1185.0
19171.519631769203,-1183.0
19171.51969426644,-1060.0
19171.51975676368,-631.0
19171.519819260913,-85.0
19171.51988175815,-90.0
19171.51994425539,-438.0
19171.520006752624,-655.0
19171.520069249862,-824.0
19171.5201317471,-1061.0
19171.52019424434,-1026.0
19171.520256741573,-751.0
19171.52031923881,-664.0
19171.52038173605,-410.0
19171.520444233287,-229.0
19171.52050673052,-575.0
19171.52056922776,-759.0
19171.520631724998,-427.0
19171.520694222236,-242.0
19171.52075671947,-264.0
19171.52081921671,-903.0
19171.520881713946,-899.0
19171.520944211185,58.0
19171.52100670842,483.0
19171.521069205657,406.0
19171.521131702895,563.0
19171.521194200133,493.0
19171.521256697368,-43.0
19171.521319194606,-358.0
19171.521381691844,-462.0
19171.521444189082,-420.0
19171.521506686317,-549.0
19171.521569183555,-540.0
19171.521631680793,-367.0
19171.52169417803,-417.0
19171.521756675265,-656.0
19171.521819172503,-735.0
19171.52188166974,-518.0
19171.521944166976,-388.0
19171.522006664214,-21.0
19171.522069161452,4.0
19171.52213165869,-276.0
19171.522194155925,-202.0
19171.522256653163,87.0
19171.5223191504,567.0
19171.52238164764,971.0
19171.522444144874,643.0
19171.52250664211,927.0
19171.52256913935,1323.0
19171.522631636588,969.0
19171.522694133822,976.0
19171.52275663106,806.0
19171.5228191283,1622.0
19171.522881625537,2702.0
19171.52294412277,2522.0
19171.52300662001,1726.0
19171.523069117247,1485.0
19171.523131614485,1939.0
19171.52319411172,1830.0
19171.523256608958,1543.0
19171.523319106196,1424.0
19171.52338160343,1336.0
19171.52344410067,1621.0
19171.523506597907,2120.0
19171.523569095145,2111.0
19171.523631592383,1711.0
19171.523694089617,1884.0
19171.523756586856,2120.0
19171.523819084094,1794.0
19171.523881581328,796.0
19171.523944078566,252.0
19171.524006575804,423.0
19171.524069073042,697.0
19171.524131570277,759.0
19171.524194067515,624.0
19171.524256564753,1056.0
19171.52431906199,1212.0
19171.524381559226,1118.0
19171.524444056464,772.0
19171.524506553702,844.0
19171.52456905094,1028.0
19171.524631548175,823.0
19171.524694045413,1254.0
19171.52475654265,737.0
19171.52481903989,-233.0
19171.524881537123,17.0
19171.52494403436,604.0
19171.5250065316,824.0
19171.525069028838,393.0
19171.525131526072,-4.0
19171.52519402331,98.0
19171.52525652055,331.0
19171.525319017783,-108.0
19171.52538151502,-713.0
19171.52544401226,155.0
19171.525506509497,404.0
19171.52556900673,-24.0
19171.52563150397,96.0
19171.525694001208,-94.0
19171.525756498446,-39.0
19171.52581899568,195.0
19171.52588149292,572.0
19171.525943990157,1172.0
19171.526006487395,999.0
19171.52606898463,747.0
19171.526131481867,632.0
19171.526193979105,544.0
19171.526256476343,434.0
19171.526318973578,919.0
19171.526381470816,1033.0
19171.526443968054,313.0
19171.526506465292,266.0
19171.526568962527,837.0
19171.526631459765,915.0
19171.526693957003,491.0
19171.52675645424,279.0
19171.526818951475,578.0
19171.526881448714,933.0
19171.52694394595,575.0
19171.52700644319,-344.0
19171.527068940424,-210.0
19171.527131437662,162.0
19171.5271939349,218.0
19171.527256432135,547.0
19171.527318929373,284.0
19171.52738142661,-418.0
19171.52744392385,-26.0
19171.527506421084,402.0
19171.52756891832,-278.0
19171.52763141556,-786.0
19171.527693912798,-887.0
19171.527756410032,-679.0
19171.52781890727,31.0
19171.52788140451,-198.0
19171.527943901747,-1045.0
19171.52800639898,-719.0
19171.52806889622,69.0
19171.528131393457,-77.0
19171.528193890696,-520.0
19171.52825638793,-556.0
19171.528318885168,-928.0
19171.528381382406,-986.0
19171.528443879644,-672.0
19171.52850637688,-1174.0
19171.528568874117,-1791.0
19171.528631371355,-1661.0
19171.52869386859,-750.0
19171.528756365828,-692.0
19171.528818863066,-1216.0
19171.528881360304,-942.0
19171.528943857542,-562.0
19171.529006354776,-346.0
19171.529068852014,-1134.0
19171.529131349253,-1848.0
19171.529193846487,-1880.0
19171.529256343725,-2138.0
19171.529318840963,-1730.0
19171.5293813382,-1150.0
19171.529443835436,-1197.0
19171.529506332674,-1366.0
19171.529568829912,-1078.0
19171.52963132715,-665.0
19171.529693824385,-1068.0
19171.529756321623,-1259.0
19171.52981881886,-960.0
19171.5298813161,-616.0
19171.529943813333,-816.0
19171.53000631057,-1455.0
19171.53006880781,-1916.0
19171.530131305048,-1946.0
19171.530193802282,-1152.0
19171.53025629952,-568.0
19171.53031879676,-411.0
19171.530381293996,-443.0
19171.53044379123,-327.0
19171.53050628847,-28.0
19171.530568785707,-65.0
19171.53063128294,17.0
19171.53069378018,-98.0
19171.530756277418,390.0
19171.530818774656,413.0
19171.530881271894,57.0
19171.53094376913,-346.0
19171.531006266367,-819.0
19171.531068763605,-426.0
19171.53113126084,300.0
19171.531193758077,533.0
19171.531256255315,137.0
19171.531318752553,33.0
19171.531381249788,561.0
19171.531443747026,609.0
19171.531506244264,85.0
19171.531568741502,-337.0
19171.531631238737,-391.0
19171.531693735975,-101.0
19171.531756233213,-64.0
19171.53181873045,-268.0
19171.531881227686,-400.0
19171.531943724924,-159.0
19171.53200622216,571.0
19171.5320687194,984.0
19171.532131216634,907.0
19171.532193713872,666.0
19171.53225621111,388.0
19171.53231870835,537.0
19171.532381205583,136.0
19171.53244370282,-618.0
19171.53250620006,-92.0
19171.532568697294,375.0
19171.532631194532,280.0
19171.53269369177,260.0
19171.532756189008,20.0
19171.532818686243,-426.0
19171.53288118348,-360.0
19171.53294368072,39.0
19171.533006177957,-212.0
19171.53306867519,-834.0
19171.53313117243,-632.0
19171.533193669668,-69.0
19171.533256166906,69.0
19171.53331866414,50.0
19171.53338116138,-81.0
19171.533443658616,-158.0
19171.533506155854,-221.0
19171.53356865309,-688.0
19171.533631150327,-1293.0
19171.533693647565,-1346.0
19171.533756144803,-975.0
19171.533818642038,-732.0
19171.533881139276,-675.0
19171.533943636514,-948.0
19171.534006133752,-563.0
19171.534068630986,10.0
19171.534131128225,-81.0
19171.534193625463,-625.0
19171.5342561227,-1066.0
19171.534318619935,-1042.0
19171.534381117173,-1189.0
19171.53444361441,-1251.0
19171.534506111646,-1193.0
19171.534568608884,-1285.0
19171.534631106122,-1194.0
19171.53469360336,-1192.0
19171.534756100595,-757.0
19171.534818597833,-533.0
19171.53488109507,-974.0
19171.53494359231,-1006.0
19171.535006089543,-560.0
19171.53506858678,-370.0
19171.53513108402,-576.0
19171.535193581258,-547.0
19171.535256078492,-707.0
19171.53531857573,-592.0
19171.53538107297,-339.0
19171.535443570207,-229.0
19171.53550606744,-472.0
19171.53556856468,-707.0
19171.535631061917,-97.0
19171.535693559155,513.0
19171.53575605639,315.0
19171.535818553628,193.0
19171.535881050866,630.0
19171.5359435481,633.0
19171.53600604534,350.0
19171.536068542577,31.0
19171.536131039815,-575.0
19171.536193537053,-686.0
19171.536256034287,-74.0
19171.536318531525,360.0
19171.536381028764,14.0
19171.536443525998,433.0
19171.536506023236,1431.0
19171.536568520474,1427.0
19171.536631017712,1240.0
19171.536693514947,431.0
19171.536756012185,303.0
19171.536818509423,955.0
19171.53688100666,865.0
19171.536943503896,583.0
19171.537006001134,593.0
19171.53706849837,888.0
19171.53713099561,1448.0
19171.537193492844,1443.0
19171.537255990082,440.0
19171.53731848732,-175.0
19171.53738098456,-49.0
19171.537443481793,-330.0
19171.53750597903,42.0
19171.53756847627,139.0
19171.537630973507,253.0
19171.537693470742,816.0
19171.53775596798,449.0
19171.537818465218,248.0
19171.537880962453,214.0
19171.53794345969,-46.0
19171.53800595693,42.0
19171.538068454167,456.0
19171.5381309514,724.0
19171.53819344864,437.0
19171.538255945878,241.0
19171.538318443116,267.0
19171.53838094035,671.0
19171.53844343759,298.0
19171.538505934826,-12.0
19171.538568432064,79.0
19171.5386309293,147.0
19171.538693426537,274.0
19171.538755923775,154.0
19171.538818421013,-37.0
19171.538880918248,-377.0
19171.538943415486,198.0
19171.539005912724,199.0
19171.539068409962,0.0
19171.539130907197,-53.0
19171.539193404435,-588.0
19171.539255901673,-141.0
19171.53931839891,474.0
19171.539380896145,373.0
19171.539443393383,-155.0
19171.53950589062,-339.0
19171.53956838786,188.0
19171.539630885094,-359.0
19171.539693382332,-1406.0
19171.53975587957,-1092.0
19171.539818376805,-917.0
19171.539880874043,-872.0
19171.53994337128,-1032.0
19171.54000586852,-1291.0
19171.540068365754,-710.0
19171.54013086299,-51.0
19171.54019336023,-217.0
19171.540255857468,-641.0
19171.540318354702,-1101.0
19171.54038085194,-698.0
19171.54044334918,-81.0
19171.540505846417,-262.0
19171.54056834365,-617.0
19171.54063084089,-488.0
19171.540693338127,246.0
19171.540755835365,379.0
19171.5408183326,62.0
19171.540880829838,-459.0
19171.540943327076,-721.0
19171.541005824314,-685.0
19171.54106832155,-1254.0
19171.541130818787,-1627.0
19171.541193316025,-1390.0
19171.54125581326,-1091.0
19171.541318310497,-926.0
19171.541380807736,-635.0
19171.541443304974,-321.0
19171.54150580221,-354.0
19171.541568299446,-654.0
19171.541630796684,-999.0
19171.541693293922,-478.0
19171.541755791157,268.0
19171.541818288395,-44.0
19171.541880785633,-676.0
19171.54194328287,-426.0
19171.542005780106,-33.0
19171.542068277344,-192.0
19171.542130774582,-642.0
19171.54219327182,-439.0
19171.542255769054,39.0
19171.542318266293,-4.0
19171.54238076353,-189.0
19171.54244326077,-158.0
19171.542505758003,138.0
19171.54256825524,-14.0
19171.54263075248,59.0
19171.542693249718,808.0
19171.542755746952,376.0
19171.54281824419,-326.0
19171.54288074143,383.0
19171.542943238666,674.0
19171.5430057359,917.0
19171.54306823314,1300.0
19171.543130730377,721.0
19171.54319322761,510.0
19171.54325572485,625.0
19171.543318222088,644.0
19171.543380719326,532.0
19171.54344321656,737.0
19171.5435057138,1222.0
19171.543568211036,1348.0
19171.543630708275,1253.0
19171.54369320551,1068.0
19171.543755702747,1008.0
19171.543818199985,874.0
19171.543880697223,1270.0
19171.543943194458,1519.0
19171.544005691696,1053.0
19171.544068188934,1239.0
19171.544130686172,1452.0
19171.544193183407,1203.0
19171.544255680645,1346.0
19171.544318177883,1186.0
19171.54438067512,1235.0
19171.544443172355,1664.0
19171.544505669593,1556.0
19171.54456816683,1139.0
19171.54463066407,790.0
19171.544693161304,556.0
19171.544755658542,335.0
19171.54481815578,334.0
19171.54488065302,522.0
19171.544943150253,392.0
19171.54500564749,433.0
19171.54506814473,693.0
19171.545130641964,428.0
19171.5451931392,127.0
19171.54525563644,164.0
19171.545318133678,143.0
19171.545380630912,264.0
19171.54544312815,-108.0
19171.54550562539,-62.0
19171.545568122627,250.0
19171.54563061986,-87.0
19171.5456931171,-352.0
19171.545755614337,-254.0
19171.545818111575,-45.0
19171.54588060881,-433.0
19171.545943106048,-578.0
19171.546005603286,-464.0
19171.546068100524,-217.0
19171.54613059776,-132.0
19171.546193094997,-383.0
19171.546255592235,-403.0
19171.546318089473,-270.0
19171.546380586708,-448.0
19171.546443083946,-603.0
19171.546505581184,-277.0
19171.54656807842,-108.0
19171.546630575656,380.0
19171.546693072894,177.0
19171.546755570133,83.0
19171.54681806737,238.0
19171.546880564605,-199.0
19171.546943061843,105.0
19171.54700555908,-123.0
19171.547068056316,-79.0
19171.547130553554,318.0
19171.547193050792,-95.0
19171.54725554803,-41.0
19171.547318045265,323.0
19171.547380542503,283.0
19171.54744303974,-98.0
19171.54750553698,-683.0
19171.547568034213,-829.0
19171.54763053145,-424.0
19171.54769302869,165.0
19171.547755525928,589.0
19171.547818023162,229.0
19171.5478805204,174.0
19171.54794301764,358.0
19171.548005514876,328.0
19171.54806801211,330.0
19171.54813050935,-72.0
19171.548193006587,40.0
19171.548255503825,300.0
19171.54831800106,-207.0
19171.548380498298,-666.0
19171.548442995536,-1139.0
19171.54850549277,-824.0
19171.54856799001,-154.0
19171.548630487247,-472.0
19171.548692984485,-773.0
19171.54875548172,-876.0
19171.548817978957,-980.0
19171.548880476195,-1230.0
19171.548942973433,-1333.0
19171.549005470668,-1382.0
19171.549067967906,-1511.0
19171.549130465144,-1082.0
19171.549192962382,-1228.0
19171.549255459617,-1597.0
19171.549317956855,-1651.0
19171.549380454093,-1397.0
19171.54944295133,-909.0
19171.549505448565,-1013.0
19171.549567945804,-855.0
19171.54963044304,-454.0
19171.54969294028,-874.0
19171.549755437514,-950.0
19171.549817934752,-955.0
19171.54988043199,-1035.0
19171.54994292923,-392.0
19171.550005426463,-291.0
19171.5500679237,-167.0
19171.55013042094,595.0
19171.550192918177,891.0
19171.55025541541,598.0
19171.55031791265,500.0
19171.550380409888,455.0
19171.550442907122,98.0
19171.55050540436,489.0
19171.5505679016,694.0
19171.550630398837,384.0
19171.55069289607,672.0
19171.55075539331,578.0
19171.550817890547,212.0
19171.550880387786,174.0
19171.55094288502,78.0
19171.551005382258,43.0
19171.551067879496,31.0
19171.551130376734,-92.0
19171.55119287397,162.0
19171.551255371207,406.0
19171.551317868445,191.0
19171.551380365683,73.0
19171.551442862918,38.0
19171.551505360156,-394.0
19171.551567857394,-126.0
19171.551630354632,683.0
19171.551692851866,393.0
19171.551755349104,448.0
19171.551817846343,1036.0
19171.551880343577,564.0
19171.551942840815,481.0
19171.552005338053,944.0
19171.55206783529,1062.0
19171.55213033253,1174.0
19171.552192829764,866.0
19171.552255327002,383.0
19171.55231782424,253.0
19171.552380321475,408.0
19171.552442818713,262.0
19171.55250531595,367.0
19171.55256781319,492.0
19171.552630310423,308.0
19171.55269280766,572.0
19171.5527553049,450.0
19171.552817802138,92.0
19171.552880299372,-67.0
19171.55294279661,-191.0
19171.55300529385,86.0
19171.553067791087,-73.0
19171.55313028832,-601.0
19171.55319278556,21.0
19171.553255282797,634.0
19171.553317780035,355.0
19171.55338027727,272.0
19171.553442774508,-225.0
19171.553505271746,-397.0
19171.553567768984,93.0
19171.55363026622,-453.0
19171.553692763457,-1313.0
19171.553755260695,-1327.0
19171.55381775793,-1137.0
19171.553880255167,-571.0
19171.553942752405,-271.0
19171.554005249644,-894.0
19171.55406774688,-1461.0
19171.554130244116,-1072.0
19171.554192741354,-996.0
19171.554255238592,-1084.0
19171.554317735827,-835.0
19171.554380233065,-876.0
19171.554442730303,-353.0
19171.55450522754,-176.0
19171.554567724776,-28.0
19171.554630222014,178.0
19171.55469271925,83.0
19171.55475521649,628.0
19171.554817713724,344.0
19171.554880210962,-471.0
19171.5549427082,-462.0
19171.55500520544,-361.0
19171.555067702673,-63.0
19171.55513019991,285.0
19171.55519269715,278.0
19171.555255194387,158.0
19171.555317691622,-235.0
19171.55538018886,-457.0
19171.555442686098,-77.0
19171.555505183336,175.0
19171.55556768057,141.0
19171.55563017781,319.0
19171.555692675047,115.0
19171.55575517228,65.0
19171.55581766952,150.0
19171.555880166758,-151.0
19171.555942663996,-122.0
19171.55600516123,-65.0
19171.55606765847,-298.0
19171.556130155706,-519.0
19171.556192652944,-1090.0
19171.55625515018,-1209.0
19171.556317647417,-881.0
19171.556380144655,-887.0
19171.556442641893,-562.0
19171.556505139128,-647.0
19171.556567636366,-794.0
19171.556630133604,-852.0
19171.556692630842,-1484.0
19171.556755128076,-1617.0
19171.556817625315,-1715.0
19171.556880122553,-1595.0
19171.55694261979,-1100.0
19171.557005117025,-1373.0
19171.557067614263,-1069.0
19171.5571301115,-511.0
19171.55719260874,-571.0
19171.557255105974,-58.0
19171.557317603212,102.0
19171.55738010045,-458.0
19171.55744259769,-840.0
19171.557505094923,-1035.0
19171.55756759216,-1168.0
19171.5576300894,-876.0
19171.557692586633,-303.0
19171.55775508387,263.0
19171.55781758111,449.0
19171.557880078348,329.0
19171.557942575582,-315.0
19171.55800507282,-853.0
19171.55806757006,-1035.0
19171.558130067297,-737.0
19171.55819256453,-359.0
19171.55825506177,-963.0
19171.558317559007,-1049.0
19171.558380056245,-589.0
19171.55844255348,-439.0
19171.558505050718,-336.0
19171.558567547956,17.0
19171.558630045194,351.0
19171.55869254243,383.0
19171.558755039667,558.0
19171.558817536905,678.0
19171.558880034143,837.0
19171.558942531377,1452.0
19171.559005028616,1901.0
19171.559067525854,2030.0
19171.559130023088,1544.0
19171.559192520326,1276.0
19171.559255017564,1568.0
19171.559317514802,1127.0
19171.55938001204,940.0
19171.559442509275,1245.0
19171.559505006513,2023.0
19171.55956750375,2453.0
19171.559630000986,1657.0
19171.559692498224,785.0
19171.559754995462,1240.0
19171.5598174927,1398.0
19171.559879989934,1049.0
19171.559942487173,557.0
19171.56000498441,390.0
19171.56006748165,1213.0
19171.560129978883,1486.0
19171.56019247612,410.0
19171.56025497336,-12.0
19171.560317470598,42.0
19171.560379967832,412.0
19171.56044246507,726.0
19171.56050496231,359.0
19171.560567459546,584.0
19171.56062995678,1165.0
19171.56069245402,1940.0
19171.560754951257,1910.0
19171.560817448495,1162.0
19171.56087994573,637.0
19171.560942442968,105.0
19171.561004940206,310.0
19171.56106743744,738.0
19171.56112993468,264.0
19171.561192431916,238.0
19171.561254929155,863.0
19171.56131742639,895.0
19171.561379923627,1061.0
19171.561442420865,916.0
19171.561504918103,804.0
19171.561567415338,287.0
19171.561629912576,-301.0
19171.561692409814,-268.0
19171.561754907052,-418.0
19171.561817404287,-569.0
19171.561879901525,5.0
19171.561942398763,175.0
19171.562004896,-58.0
19171.562067393235,-184.0
19171.562129890473,-834.0
19171.56219238771,-587.0
19171.56225488495,-214.0
19171.562317382184,65.0
19171.562379879422,118.0
19171.56244237666,-529.0
19171.5625048739,-625.0
19171.562567371133,-439.0
19171.56262986837,-700.0
19171.56269236561,-798.0
19171.562754862847,-426.0
19171.56281736008,-543.0
19171.56287985732,-364.0
