time,X_NOSE,Y_NOSE,Z_NOSE,visibility_NOSE,X_LEFT_EYE_INNER,Y_LEFT_EYE_INNER,Z_LEFT_EYE_INNER,visibility_LEFT_EYE_INNER,X_LEFT_EYE,Y_LEFT_EYE,Z_LEFT_EYE,visibility_LEFT_EYE,X_LEFT_EYE_OUTER,Y_LEFT_EYE_OUTER,Z_LEFT_EYE_OUTER,visibility_LEFT_EYE_OUTER,X_RIGHT_EYE_OUTER,Y_RIGHT_EYE_OUTER,Z_RIGHT_EYE_OUTER,visibility_RIGHT_EYE_OUTER,X_RIGHT_EYE,Y_RIGHT_EYE,Z_RIGHT_EYE,visibility_RIGHT_EYE,X_RIGHT_EYE_OUTER,Y_RIGHT_EYE_OUTER,Z_RIGHT_EYE_OUTER,visibility_RIGHT_EYE_OUTER,X_LEFT_EAR,Y_LEFT_EAR,Z_LEFT_EAR,visibility_LEFT_EAR,X_RIGHT_EAR,Y_RIGHT_EAR,Z_RIGHT_EAR,visibility_RIGHT_EAR,X_MOUTH_LEFT,Y_MOUTH_LEFT,Z_MOUTH_LEFT,visibility_MOUTH_LEFT,X_MOUTH_RIGHT,Y_MOUTH_RIGHT,Z_MOUTH_RIGHT,visibility_MOUTH_RIGHT,X_LEFT_SHOULDER,Y_LEFT_SHOULDER,Z_LEFT_SHOULDER,visibility_LEFT_SHOULDER,X_RIGHT_SHOULDER,Y_RIGHT_SHOULDER,Z_RIGHT_SHOULDER,visibility_RIGHT_SHOULDER,X_LEFT_ELBOW,Y_LEFT_ELBOW,Z_LEFT_ELBOW,visibility_LEFT_ELBOW,X_RIGHT_ELBOW,Y_RIGHT_ELBOW,Z_RIGHT_ELBOW,visibility_RIGHT_ELBOW,X_LEFT_WRIST,Y_LEFT_WRIST,Z_LEFT_WRIST,visibility_LEFT_WRIST,X_RIGHT_WRIST,Y_RIGHT_WRIST,Z_RIGHT_WRIST,visibility_RIGHT_WRIST,X_LEFT_PINKY,Y_LEFT_PINKY,Z_LEFT_PINKY,visibility_LEFT_PINKY,X_RIGHT_PINKY,Y_RIGHT_PINKY,Z_RIGHT_PINKY,visibility_RIGHT_PINKY,X_LEFT_INDEX,Y_LEFT_INDEX,Z_LEFT_INDEX,visibility_LEFT_INDEX,X_RIGHT_INDEX,Y_RIGHT_INDEX,Z_RIGHT_INDEX,visibility_RIGHT_INDEX,X_LEFT_THUMB,Y_LEFT_THUMB,Z_LEFT_THUMB,visibility_LEFT_THUMB,X_RIGHT_THUMB,Y_RIGHT_THUMB,Z_RIGHT_THUMB,visibility_RIGHT_THUMB,X_LEFT_HIP,Y_LEFT_HIP,Z_LEFT_HIP,visibility_LEFT_HIP,X_RIGHT_HIP,Y_RIGHT_HIP,Z_RIGHT_HIP,visibility_RIGHT_HIP,X_LEFT_KNEE,Y_LEFT_KNEE,Z_LEFT_KNEE,visibility_LEFT_KNEE,X_RIGHT_KNEE,Y_RIGHT_KNEE,Z_RIGHT_KNEE,visibility_RIGHT_KNEE,X_LEFT_ANKLE,Y_LEFT_ANKLE,Z_LEFT_ANKLE,visibility_LEFT_ANKLE,X_RIGHT_ANKLE,Y_RIGHT_ANKLE,Z_RIGHT_ANKLE,visibility_RIGHT_ANKLE,X_LEFT_HEEL,Y_LEFT_HEEL,Z_LEFT_HEEL,visibility_LEFT_HEEL,X_RIGHT_HEEL,Y_RIGHT_HEEL,Z_RIGHT_HEEL,visibility_RIGHT_HEEL,X_LEFT_FOOT_INDEX,Y_LEFT_FOOT_INDEX,Z_LEFT_FOOT_INDEX,visibility_LEFT_FOOT_INDEX,X_RIGHT_FOOT_INDEX,Y_RIGHT_FOOT_INDEX,Z_RIGHT_FOOT_INDEX,visibility_RIGHT_FOOT_INDEX
18587.760875691423,0.39871516823768616,0.23748211562633514,-0.9469335675239563,0.9999867677688599,0.4081459641456604,0.21236926317214966,-0.8824940919876099,0.9999715089797974,0.41745561361312866,0.21149367094039917,-0.8826248049736023,0.999968409538269,0.4258716404438019,0.21094411611557007,-0.8826541900634766,0.9999631643295288,0.3768517076969147,0.21345990896224976,-0.9170291423797607,0.9999722242355347,0.35907047986984253,0.21350768208503723,-0.9170767068862915,0.9999688863754272,0.3411886990070343,0.2140500247478485,-0.9171637296676636,0.9999622106552124,0.4191405177116394,0.21733203530311584,-0.49495235085487366,0.999962568283081,0.29074713587760925,0.22306862473487854,-0.6649659276008606,0.9999699592590332,0.405340313911438,0.2599676549434662,-0.8007582426071167,0.999990701675415,0.37279126048088074,0.26093462109565735,-0.8489788174629211,0.9999924898147583,0.49754929542541504,0.3489055931568146,-0.24869811534881592,0.9999533891677856,0.13695260882377625,0.3655650019645691,-0.49489718675613403,0.9998077750205994,0.5532062649726868,0.5045457482337952,-0.014189335517585278,0.9853460788726807,0.1180223673582077,0.5118787884712219,-0.6423496603965759,0.96311354637146,0.6276278495788574,0.630263090133667,-0.3025940954685211,0.9864451289176941,0.1979072540998459,0.5766498446464539,-1.1254265308380127,0.9190508127212524,0.6494762897491455,0.6734653115272522,-0.3970753848552704,0.974219560623169,0.2355424165725708,0.5931311249732971,-1.2477494478225708,0.8985790014266968,0.6338410377502441,0.673307478427887,-0.49705415964126587,0.9768149256706238,0.25125852227211,0.5695716142654419,-1.325156331062317,0.9038705229759216,0.6218824982643127,0.6639832258224487,-0.34754499793052673,0.9760956764221191,0.242200568318367,0.56001877784729,-1.164347529411316,0.8914346694946289,0.4588185250759125,0.6322773098945618,0.07814729958772659,0.9986248016357422,0.27777689695358276,0.6537150740623474,-0.07765988260507584,0.9987209439277649,0.46623554825782776,0.829042911529541,0.21957111358642578,0.971832811832428,0.31756776571273804,0.8670335412025452,0.06634819507598877,0.9749070405960083,0.48287177085876465,0.9610006809234619,0.9781863689422607,0.928885817527771,0.3458586633205414,0.990155816078186,0.7323674559593201,0.9297418594360352,0.4635607600212097,0.9744985103607178,1.0320266485214233,0.8739312887191772,0.351630300283432,0.991767168045044,0.780932605266571,0.714148223400116,0.5448194146156311,1.026585578918457,0.7150737643241882,0.8884457349777222,0.3623214066028595,1.0844311714172363,0.3747807741165161,0.8447587490081787
18604.42754235809,0.40123283863067627,0.23408827185630798,-0.9441745281219482,0.9999910593032837,0.40966206789016724,0.20977795124053955,-0.8777028918266296,0.9999821186065674,0.41889411211013794,0.20923423767089844,-0.8778164386749268,0.9999796152114868,0.42704737186431885,0.20896261930465698,-0.8778175711631775,0.999976396560669,0.3779143691062927,0.21010088920593262,-0.9121588468551636,0.999982476234436,0.3600728511810303,0.20995134115219116,-0.9122025370597839,0.9999803304672241,0.34129923582077026,0.2102501094341278,-0.912270188331604,0.9999765157699585,0.42092233896255493,0.2157355546951294,-0.4932587146759033,0.9999768733978271,0.29087379574775696,0.21967735886573792,-0.6635178923606873,0.9999814033508301,0.4074408710002899,0.25755879282951355,-0.8008779287338257,0.9999943971633911,0.375088095664978,0.25805211067199707,-0.8490670919418335,0.9999955892562866,0.49855512380599976,0.35010868310928345,-0.26543301343917847,0.9999600648880005,0.1326673924922943,0.3699912130832672,-0.4926646947860718,0.9998186230659485,0.5534150004386902,0.5066533088684082,-0.03839799389243126,0.9871582388877869,0.11132466048002243,0.513775646686554,-0.655262291431427,0.9664656519889832,0.6293889284133911,0.6319485306739807,-0.3360871970653534,0.9886132478713989,0.1941174566745758,0.5742154121398926,-1.1611143350601196,0.9247434735298157,0.650774359703064,0.6750767230987549,-0.43470221757888794,0.9779836535453796,0.2316974401473999,0.5913395881652832,-1.2862833738327026,0.9049348831176758,0.6334439516067505,0.6745645403862,-0.5324277281761169,0.9801896214485168,0.24658632278442383,0.5681472420692444,-1.3607361316680908,0.9102606177330017,0.6217585802078247,0.6652879118919373,-0.38033533096313477,0.9795692563056946,0.23581595718860626,0.5577033162117004,-1.1996272802352905,0.8997265696525574,0.4614408016204834,0.6333489418029785,0.06969576328992844,0.9988860487937927,0.2770034372806549,0.6544341444969177,-0.06921327114105225,0.9989476799964905,0.467439740896225,0.8288265466690063,0.22197313606739044,0.9775975346565247,0.3177972733974457,0.8662207126617432,0.09196021407842636,0.9775811433792114,0.4824911057949066,0.9601755738258362,1.037152886390686,0.9384461641311646,0.34511131048202515,0.9891812801361084,0.7860780358314514,0.935783326625824,0.4634826183319092,0.9724341630935669,1.0972003936767578,0.8813546299934387,0.3521604537963867,0.9917299747467041,0.8383587598800659,0.7336711287498474,0.5464533567428589,1.0350456237792969,0.7846367359161377,0.8987770676612854,0.3625692129135132,1.0835245847702026,0.43789538741111755,0.8528662919998169
18621.09420902476,0.40040960907936096,0.23204949498176575,-0.9450189471244812,0.9999889135360718,0.40789419412612915,0.2082585096359253,-0.8783243298530579,0.9999781847000122,0.41700780391693115,0.2073536217212677,-0.8784862160682678,0.9999756813049316,0.42545628547668457,0.20661628246307373,-0.8785331845283508,0.9999721050262451,0.3751806914806366,0.2094050645828247,-0.9102886319160461,0.9999779462814331,0.357100248336792,0.2096179723739624,-0.9103246927261353,0.9999744892120361,0.33898428082466125,0.20990952849388123,-0.9103983044624329,0.9999693632125854,0.41981303691864014,0.21369454264640808,-0.4984544515609741,0.9999721050262451,0.2904338240623474,0.21969765424728394,-0.6565865874290466,0.9999755620956421,0.4086607098579407,0.25533542037010193,-0.8042364120483398,0.9999926090240479,0.37577885389328003,0.2564164698123932,-0.8489492535591125,0.9999939203262329,0.49997544288635254,0.3488966226577759,-0.2776498794555664,0.999944806098938,0.1332629919052124,0.3696519136428833,-0.48299211263656616,0.9997555613517761,0.5496886372566223,0.5050779581069946,-0.07476559281349182,0.9850385785102844,0.11359579861164093,0.51548171043396,-0.6226552724838257,0.9536862373352051,0.6251845955848694,0.6306270360946655,-0.386302649974823,0.9840747117996216,0.1958634853363037,0.5742326974868774,-1.108477234840393,0.8964908123016357,0.6493300199508667,0.674547553062439,-0.48850515484809875,0.9697948098182678,0.23190978169441223,0.5917739272117615,-1.2306582927703857,0.8727306127548218,0.6329437494277954,0.6746992468833923,-0.5863300561904907,0.9728968739509583,0.24767053127288818,0.5690891742706299,-1.3060402870178223,0.8801596760749817,0.6202259659767151,0.6654967665672302,-0.43155786395072937,0.9727352261543274,0.23750492930412292,0.5586246252059937,-1.1473966836929321,0.8696884512901306,0.4581398665904999,0.6298763155937195,0.06592673808336258,0.9983633160591125,0.27676916122436523,0.6517357230186462,-0.06539376825094223,0.9985301494598389,0.4667836129665375,0.831474781036377,0.21155449748039246,0.9731961488723755,0.31783241033554077,0.8631559610366821,0.0668303370475769,0.9757316708564758,0.48378878831863403,0.9613956212997437,0.9953765869140625,0.9251380562782288,0.3447040915489197,0.9873948693275452,0.724953293800354,0.9277814030647278,0.46357691287994385,0.9719630479812622,1.0508739948272705,0.8609984517097473,0.3496793508529663,0.9877440333366394,0.7724032402038574,0.7072222232818604,0.5550829768180847,1.0291894674301147,0.734308660030365,0.8717175126075745,0.3510788381099701,1.0797500610351562,0.3671203851699829,0.8322805166244507
18637.760875691427,0.40350785851478577,0.233445942401886,-0.9112765789031982,0.9999852180480957,0.41106829047203064,0.20977044105529785,-0.8448779582977295,0.9999715089797974,0.4201670289039612,0.2092033326625824,-0.8450629711151123,0.9999685287475586,0.42805489897727966,0.208830326795578,-0.8451558947563171,0.9999645948410034,0.37956008315086365,0.20992082357406616,-0.8794388175010681,0.9999704360961914,0.3615957200527191,0.20972007513046265,-0.8794455528259277,0.9999659061431885,0.3425370752811432,0.20993930101394653,-0.8795205950737,0.9999592304229736,0.4191666543483734,0.2153247892856598,-0.46449345350265503,0.9999678134918213,0.2923864424228668,0.21946054697036743,-0.6340000629425049,0.9999676942825317,0.40901386737823486,0.2567689120769501,-0.7690070271492004,0.9999911785125732,0.37691861391067505,0.2572783827781677,-0.8170711398124695,0.9999922513961792,0.5000276565551758,0.35010215640068054,-0.24908806383609772,0.9999536275863647,0.13362973928451538,0.36994045972824097,-0.4537335932254791,0.9997113347053528,0.5519306659698486,0.5062552690505981,-0.018270263448357582,0.985811710357666,0.11176147311925888,0.5143890380859375,-0.5982207655906677,0.9518827795982361,0.6280560493469238,0.6338143348693848,-0.3094955086708069,0.985643744468689,0.20289772748947144,0.5787461996078491,-1.0930988788604736,0.8994317054748535,0.6510741114616394,0.6763362884521484,-0.4096333980560303,0.97312331199646,0.2394132912158966,0.5944743752479553,-1.2157175540924072,0.8774487972259521,0.6347801089286804,0.6759403944015503,-0.5074484348297119,0.9758970141410828,0.25533661246299744,0.570438027381897,-1.2889246940612793,0.8840451240539551,0.6223229169845581,0.667004406452179,-0.3537290096282959,0.9756380319595337,0.24601256847381592,0.5612410306930542,-1.130832552909851,0.8713033199310303,0.45915040373802185,0.6380150318145752,0.0537421777844429,0.9987356066703796,0.2757771611213684,0.6588840484619141,-0.053174469619989395,0.998664140701294,0.4692556858062744,0.8392646312713623,0.18123885989189148,0.9721707701683044,0.3167946934700012,0.8724807500839233,0.09682649374008179,0.966273844242096,0.4840599000453949,0.9654439091682434,1.0442007780075073,0.9095362424850464,0.35090774297714233,0.9916979670524597,0.8166425824165344,0.904266893863678,0.4683084487915039,0.9740737080574036,1.1092411279678345,0.8403691053390503,0.3595970571041107,0.9906499981880188,0.8725411295890808,0.6790086030960083,0.5415424108505249,1.0378828048706055,0.8001824617385864,0.8493918180465698,0.3578360378742218,1.0835332870483398,0.47881069779396057,0.799965500831604
18654.427542358095,0.40285724401474,0.23498541116714478,-0.925275981426239,0.999987006187439,0.41115134954452515,0.2108561396598816,-0.8622862100601196,0.9999735355377197,0.41993725299835205,0.21021020412445068,-0.8624303936958313,0.9999704360961914,0.42753976583480835,0.2098907232284546,-0.8624894022941589,0.999966025352478,0.38041743636131287,0.2110406458377838,-0.8975485563278198,0.9999737739562988,0.36301732063293457,0.21067523956298828,-0.8975618481636047,0.9999698400497437,0.3440784513950348,0.21088746190071106,-0.8976069092750549,0.9999637603759766,0.41851377487182617,0.21605756878852844,-0.4935235381126404,0.9999663829803467,0.2923215627670288,0.2200019359588623,-0.668417751789093,0.9999711513519287,0.4076344668865204,0.25801602005958557,-0.7865577340126038,0.999990701675415,0.3769376873970032,0.25869253277778625,-0.8361148238182068,0.9999922513961792,0.49885010719299316,0.3484955430030823,-0.28424832224845886,0.9999486207962036,0.13262401521205902,0.37059712409973145,-0.48444944620132446,0.9997618794441223,0.5510638952255249,0.5069204568862915,-0.054814863950014114,0.9857006072998047,0.11467653512954712,0.5155863165855408,-0.6132742762565613,0.9584269523620605,0.6268099546432495,0.6333248615264893,-0.33285385370254517,0.9862095713615417,0.19972629845142365,0.5769163370132446,-1.0657973289489746,0.9113864898681641,0.6486489772796631,0.6759552955627441,-0.42849379777908325,0.9736549258232117,0.2391522377729416,0.5923340320587158,-1.182474970817566,0.8891693949699402,0.6333787441253662,0.6755946278572083,-0.5272818803787231,0.9763304591178894,0.2529343366622925,0.5693058371543884,-1.2524917125701904,0.8949697613716125,0.6212910413742065,0.6665189266204834,-0.3771451711654663,0.9762752652168274,0.24330969154834747,0.5604159832000732,-1.1014586687088013,0.8825464844703674,0.4629786014556885,0.6328729391098022,0.0503835566341877,0.9988746047019958,0.2779417932033539,0.6549775004386902,-0.04988262057304382,0.9989836812019348,0.467463880777359,0.8358685970306396,0.24179458618164062,0.9789931774139404,0.3138599693775177,0.8645232319831848,0.11395346373319626,0.9794312119483948,0.48570385575294495,0.9663295149803162,1.0602259635925293,0.9401727914810181,0.34549665451049805,0.9918973445892334,0.7780611515045166,0.9438048005104065,0.46782106161117554,0.9761514067649841,1.1212328672409058,0.8906205296516418,0.34836113452911377,0.9941084384918213,0.8283404111862183,0.7626829147338867,0.5440723896026611,1.0306183099746704,0.8265433311462402,0.896857738494873,0.34231069684028625,1.0779781341552734,0.44690874218940735,0.8667707443237305
18671.094209024763,0.40013056993484497,0.23538896441459656,-0.934323787689209,0.9999879598617554,0.4075901210308075,0.2110665738582611,-0.8686388731002808,0.9999761581420898,0.4168519675731659,0.21034839749336243,-0.8687968254089355,0.9999728202819824,0.42555370926856995,0.20995160937309265,-0.8688560128211975,0.9999691247940063,0.37695392966270447,0.21169307827949524,-0.9036588072776794,0.9999771118164062,0.35894355177879333,0.2116328775882721,-0.903732180595398,0.9999741315841675,0.3406980335712433,0.21220123767852783,-0.9038464426994324,0.9999701976776123,0.41951534152030945,0.21609091758728027,-0.480337530374527,0.9999700784683228,0.28999656438827515,0.22205549478530884,-0.6522837281227112,0.9999765157699585,0.4063113033771515,0.25816279649734497,-0.7880140542984009,0.9999923706054688,0.3738425076007843,0.25917762517929077,-0.8369265198707581,0.999994158744812,0.4988025724887848,0.3484160304069519,-0.2380388230085373,0.9999507665634155,0.13635745644569397,0.3674388527870178,-0.47019290924072266,0.9997938275337219,0.5524181723594666,0.5052127838134766,0.002950210589915514,0.9860076308250427,0.10936298966407776,0.512992799282074,-0.6230993866920471,0.9666740298271179,0.6246270537376404,0.6300691366195679,-0.28678932785987854,0.9858274459838867,0.1955557018518448,0.5773870348930359,-1.1345198154449463,0.9242048263549805,0.6476714611053467,0.6731799840927124,-0.3828456997871399,0.9729989171028137,0.24050702154636383,0.5927982330322266,-1.2563209533691406,0.9026241302490234,0.6305094957351685,0.6727995276451111,-0.4794250428676605,0.9755896925926208,0.25273263454437256,0.5706088542938232,-1.3290363550186157,0.9075250625610352,0.6179834604263306,0.6632448434829712,-0.32991713285446167,0.9747897982597351,0.240338996052742,0.5614264011383057,-1.1710025072097778,0.8942311406135559,0.4622693359851837,0.6340819001197815,0.06632211804389954,0.9983437061309814,0.2774813175201416,0.6556299328804016,-0.06579700112342834,0.9984833598136902,0.469748854637146,0.8392060995101929,0.14518344402313232,0.9700931310653687,0.3186105787754059,0.8733000755310059,0.027164628729224205,0.9643233418464661,0.4845210015773773,0.964209794998169,0.9463286399841309,0.9095239639282227,0.3491053283214569,0.9943905472755432,0.6953375935554504,0.904825747013092,0.46584364771842957,0.9737929701805115,1.0046191215515137,0.8438030481338501,0.3528117835521698,0.9964033365249634,0.7440297603607178,0.6565192341804504,0.5414284467697144,1.0280805826187134,0.6875502467155457,0.8570874333381653,0.3649469316005707,1.0901782512664795,0.32878607511520386,0.7985876202583313
18687.76087569143,0.4006446897983551,0.23713290691375732,-0.9496994018554688,0.9999805688858032,0.40840229392051697,0.21209827065467834,-0.8870872855186462,0.9999607801437378,0.4174236059188843,0.21118703484535217,-0.8872647285461426,0.9999556541442871,0.42610108852386475,0.21054071187973022,-0.887363612651825,0.9999493360519409,0.3771165609359741,0.21296116709709167,-0.9215419292449951,0.9999626874923706,0.3582741618156433,0.21298938989639282,-0.9216278195381165,0.9999576807022095,0.3392011523246765,0.21365413069725037,-0.9217605590820312,0.9999517202377319,0.4194945991039276,0.21600869297981262,-0.5019127726554871,0.9999504089355469,0.2874438166618347,0.2231186032295227,-0.6701909303665161,0.999964714050293,0.4067551791667938,0.25920572876930237,-0.8027887940406799,0.999987006187439,0.3725520968437195,0.26087090373039246,-0.8506733775138855,0.9999902248382568,0.49637433886528015,0.3469674587249756,-0.24142500758171082,0.9999328851699829,0.13931336998939514,0.36428266763687134,-0.4924607574939728,0.999764621257782,0.5490886569023132,0.5044275522232056,0.005600536707788706,0.9806489944458008,0.11727124452590942,0.513146698474884,-0.6170302033424377,0.9597294926643372,0.6261709928512573,0.6328275799751282,-0.27564167976379395,0.9785584211349487,0.2049480378627777,0.57867830991745,-1.0703699588775635,0.8985652327537537,0.6488250494003296,0.6770997643470764,-0.36618471145629883,0.9612922072410583,0.24693845212459564,0.6023139357566833,-1.1861979961395264,0.8707386255264282,0.6316472291946411,0.6766345500946045,-0.46667876839637756,0.9650676250457764,0.26288989186286926,0.5793734788894653,-1.2587053775787354,0.8769519329071045,0.6190794706344604,0.6649210453033447,-0.3206469714641571,0.9649338722229004,0.25356224179267883,0.5697081089019775,-1.1054996252059937,0.8615859150886536,0.45727187395095825,0.6336015462875366,0.07514592260122299,0.9978874325752258,0.27729618549346924,0.6518818736076355,-0.07466530054807663,0.9981215596199036,0.46665453910827637,0.8399027585983276,0.17718671262264252,0.9586419463157654,0.3169209957122803,0.8696260452270508,0.016243552789092064,0.9622699022293091,0.4822024405002594,0.9616116285324097,0.9483166933059692,0.8890933394432068,0.34678900241851807,0.99171382188797,0.6466273665428162,0.901160717010498,0.46332022547721863,0.9721508026123047,1.0033297538757324,0.8277538418769836,0.3482153117656708,0.9926003813743591,0.691917359828949,0.6559666395187378,0.5438055396080017,1.0224167108535767,0.6903340220451355,0.8318625092506409,0.36394333839416504,1.0895130634307861,0.28039711713790894,0.7951526641845703
18704.4275423581,0.4012848138809204,0.23256990313529968,-0.8899731636047363,0.9999781847000122,0.4077267646789551,0.20904135704040527,-0.8264564871788025,0.9999561309814453,0.41702455282211304,0.20845282077789307,-0.8266286253929138,0.9999507665634155,0.42562368512153625,0.20811042189598083,-0.8266888856887817,0.9999449253082275,0.3774709105491638,0.209519624710083,-0.8619125485420227,0.999958872795105,0.36017102003097534,0.20956295728683472,-0.8619478940963745,0.9999531507492065,0.3424307703971863,0.21010878682136536,-0.8620753884315491,0.9999463558197021,0.4191341996192932,0.21469372510910034,-0.45545461773872375,0.9999450445175171,0.2940637469291687,0.2199905514717102,-0.6276944279670715,0.999958872795105,0.40785151720046997,0.2556345760822296,-0.7506243586540222,0.9999860525131226,0.3766030967235565,0.2563813626766205,-0.7994952201843262,0.9999895095825195,0.4989304840564728,0.34829792380332947,-0.2235742062330246,0.9999290704727173,0.1394387185573578,0.36512890458106995,-0.4713113307952881,0.9997685551643372,0.5537912845611572,0.5029460191726685,0.004888251889497042,0.9809826016426086,0.11464355885982513,0.5117921829223633,-0.6073806881904602,0.9612308740615845,0.6239572763442993,0.6291189789772034,-0.2838387191295624,0.9805769324302673,0.1956392377614975,0.5760608315467834,-1.0645296573638916,0.9121190905570984,0.6469082832336426,0.6727145910263062,-0.3803395926952362,0.9652584791183472,0.23460257053375244,0.5952727794647217,-1.1833171844482422,0.8905576467514038,0.6313103437423706,0.6732154488563538,-0.4785042703151703,0.968675971031189,0.25304076075553894,0.5729060769081116,-1.2592291831970215,0.8963472247123718,0.6184841990470886,0.6636500954627991,-0.3286667764186859,0.9685907363891602,0.24309444427490234,0.5627890825271606,-1.102128505706787,0.8836759924888611,0.45969560742378235,0.6315397024154663,0.07873276621103287,0.9982815980911255,0.2776491940021515,0.6525039076805115,-0.07820605486631393,0.9985631108283997,0.4677603244781494,0.8392318487167358,0.2310459017753601,0.9711514115333557,0.31827834248542786,0.8664894104003906,0.05564606189727783,0.9741876125335693,0.480364590883255,0.9640710949897766,1.0200719833374023,0.9158039093017578,0.3458012044429779,0.9913179874420166,0.7013010382652283,0.9199915528297424,0.46203798055648804,0.9740930795669556,1.0775078535079956,0.8512194156646729,0.3488121032714844,0.9930238127708435,0.7491049766540527,0.6942076683044434,0.5467805862426758,1.0331462621688843,0.7726708054542542,0.8604499101638794,0.35970816016197205,1.0848631858825684,0.3521757423877716,0.8199516534805298
18721.094209024766,0.40631332993507385,0.23235854506492615,-0.9634833931922913,0.9999911785125732,0.41220688819885254,0.20900505781173706,-0.8986486196517944,0.9999819993972778,0.42047667503356934,0.20788270235061646,-0.8987929821014404,0.9999798536300659,0.4282575845718384,0.20674645900726318,-0.8988556265830994,0.999976634979248,0.38042619824409485,0.210534006357193,-0.9331284761428833,0.9999827146530151,0.3625199496746063,0.2106565535068512,-0.9332156181335449,0.9999804496765137,0.34379270672798157,0.2109358310699463,-0.9333154559135437,0.9999768733978271,0.42013996839523315,0.21361207962036133,-0.5152446031570435,0.9999768733978271,0.2927646338939667,0.2210598886013031,-0.6842795014381409,0.9999818801879883,0.4137519896030426,0.255470871925354,-0.8192785978317261,0.9999939203262329,0.3817988932132721,0.2577270269393921,-0.8672252297401428,0.999995231628418,0.5026425123214722,0.35050350427627563,-0.2748901844024658,0.9999521970748901,0.13480402529239655,0.3710803985595703,-0.5102912187576294,0.9998190999031067,0.550708532333374,0.5061323642730713,-0.05935840308666229,0.985420286655426,0.11401787400245667,0.5168313384056091,-0.6477879881858826,0.9691482186317444,0.6244233846664429,0.629867672920227,-0.36569175124168396,0.9864176511764526,0.19788695871829987,0.5792676210403442,-1.1228241920471191,0.9250220656394958,0.6477243900299072,0.6730102300643921,-0.46457260847091675,0.974052369594574,0.23515364527702332,0.5949805974960327,-1.2420083284378052,0.9024549722671509,0.632237434387207,0.673187792301178,-0.5619061589241028,0.9766227006912231,0.24937307834625244,0.5714075565338135,-1.3192020654678345,0.907681405544281,0.6200528144836426,0.6637449264526367,-0.41029655933380127,0.9757113456726074,0.2393656224012375,0.5626046061515808,-1.1610743999481201,0.8970927000045776,0.46003732085227966,0.6291906237602234,0.06902405619621277,0.997885525226593,0.2761608958244324,0.6494826078414917,-0.06853307783603668,0.998221218585968,0.4665217101573944,0.8281182050704956,0.19653844833374023,0.9653514623641968,0.32037055492401123,0.8659614324569702,0.04275951534509659,0.9664081335067749,0.4836289882659912,0.9621401429176331,0.9326003193855286,0.906997561454773,0.348418265581131,0.9934914112091064,0.6678561568260193,0.904985785484314,0.46294763684272766,0.9736248850822449,0.9838846325874329,0.8426092863082886,0.351520299911499,0.9965769648551941,0.7114096879959106,0.66453617811203,0.5460519790649414,1.0213494300842285,0.6680541038513184,0.858241081237793,0.3659515976905823,1.0894702672958374,0.2955304980278015,0.7977159023284912
18737.760875691434,0.4025675654411316,0.23216894268989563,-0.9371761679649353,0.999985933303833,0.4100150465965271,0.2089405059814453,-0.8719140887260437,0.9999727010726929,0.41886135935783386,0.20840176939964294,-0.8720819354057312,0.9999692440032959,0.42656412720680237,0.2078913152217865,-0.872183620929718,0.9999656677246094,0.37747922539711,0.20925119519233704,-0.9067341685295105,0.9999730587005615,0.3593451678752899,0.2091081440448761,-0.9067758321762085,0.9999685287475586,0.3402390480041504,0.20920270681381226,-0.9068659543991089,0.9999630451202393,0.41950225830078125,0.2143104374408722,-0.49104684591293335,0.9999672174453735,0.2912532091140747,0.21857306361198425,-0.6618720293045044,0.9999704360961914,0.4096308648586273,0.2549881041049957,-0.7944648861885071,0.9999910593032837,0.3766646385192871,0.25611016154289246,-0.8429222106933594,0.9999926090240479,0.49981388449668884,0.3477730453014374,-0.25944140553474426,0.9999397993087769,0.13507318496704102,0.36895397305488586,-0.4910706877708435,0.9997369647026062,0.5526490211486816,0.5045903921127319,-0.03743559122085571,0.9835433959960938,0.1149730533361435,0.5127365589141846,-0.6297399401664734,0.9516522288322449,0.6237412691116333,0.6299437284469604,-0.3304439187049866,0.9820079207420349,0.20298469066619873,0.5753909945487976,-1.0998141765594482,0.8862535357475281,0.6471673846244812,0.6726723909378052,-0.4285886585712433,0.9664034247398376,0.2388337105512619,0.5933162569999695,-1.2204779386520386,0.8617650270462036,0.6314427852630615,0.6732500195503235,-0.5272550582885742,0.9697844386100769,0.2565828561782837,0.5718381404876709,-1.2939257621765137,0.8686452507972717,0.6187189817428589,0.6639478802680969,-0.37519922852516174,0.9694189429283142,0.2486121505498886,0.5623138546943665,-1.137037754058838,0.8539223074913025,0.4587875306606293,0.631314218044281,0.07336803525686264,0.9982430934906006,0.2779785394668579,0.6527045965194702,-0.07286360114812851,0.9984740614891052,0.46753400564193726,0.8367865085601807,0.20500241219997406,0.9659819006919861,0.3170086145401001,0.868702232837677,0.03850042447447777,0.969968318939209,0.4826808273792267,0.961011528968811,1.0162279605865479,0.9022266268730164,0.3456187844276428,0.9956053495407104,0.6974331140518188,0.9146982431411743,0.46124228835105896,0.9719330072402954,1.0756452083587646,0.8434596657752991,0.34955504536628723,0.9970880746841431,0.7453694939613342,0.6757115721702576,0.5544042587280273,1.0304826498031616,0.7666046023368835,0.8478626608848572,0.3575681447982788,1.085953950881958,0.33656829595565796,0.8118829727172852
18754.427542358102,0.4022499620914459,0.23285162448883057,-0.9830505847930908,0.9999892711639404,0.4093116521835327,0.20931074023246765,-0.9177514910697937,0.9999775886535645,0.41841089725494385,0.20840734243392944,-0.9178694486618042,0.9999748468399048,0.4264848232269287,0.20753413438796997,-0.9178897738456726,0.9999704360961914,0.3763852119445801,0.21043068170547485,-0.9496617317199707,0.9999780654907227,0.3580600619316101,0.21063745021820068,-0.9497033953666687,0.9999750852584839,0.3392258286476135,0.2109191119670868,-0.9497652649879456,0.9999699592590332,0.42013442516326904,0.21398940682411194,-0.5378616452217102,0.9999696016311646,0.29054147005081177,0.22038763761520386,-0.6964360475540161,0.999976634979248,0.4106699824333191,0.25580957531929016,-0.8417068123817444,0.9999922513961792,0.377907395362854,0.2572922706604004,-0.8864840269088745,0.9999939203262329,0.5007790327072144,0.349711149930954,-0.30278122425079346,0.9999444484710693,0.13492844998836517,0.37059110403060913,-0.5257024168968201,0.999796450138092,0.5522708892822266,0.5056133270263672,-0.07554604858160019,0.9844687581062317,0.11691176146268845,0.5151024460792542,-0.6601736545562744,0.966001570224762,0.6240584850311279,0.6304490566253662,-0.36346444487571716,0.9853255152702332,0.20050668716430664,0.5761911869049072,-1.1254355907440186,0.9216868281364441,0.647036612033844,0.673558235168457,-0.45919856429100037,0.9722569584846497,0.23678196966648102,0.592178225517273,-1.246773362159729,0.8990141153335571,0.6312292814254761,0.6737590432167053,-0.5597086548805237,0.9750208854675293,0.25177404284477234,0.5680533647537231,-1.3197883367538452,0.904388427734375,0.6190787553787231,0.664859414100647,-0.40898603200912476,0.9749068021774292,0.24283985793590546,0.5589696168899536,-1.1627771854400635,0.8937933444976807,0.4592392146587372,0.6305078864097595,0.07201631367206573,0.9987277388572693,0.27690786123275757,0.6516100764274597,-0.07153299450874329,0.9988658428192139,0.4669480621814728,0.8279644846916199,0.23779307305812836,0.9744604825973511,0.3167332410812378,0.8601388931274414,0.08261597156524658,0.9805151224136353,0.4817802906036377,0.9605523943901062,1.0258753299713135,0.9348834156990051,0.3439776301383972,0.9889866709709167,0.7567271590232849,0.9423967599868774,0.4600176513195038,0.9727899432182312,1.082149624824524,0.8840965032577515,0.34983521699905396,0.992871105670929,0.806341290473938,0.7499840259552002,0.5552992224693298,1.0289665460586548,0.7705177664756775,0.8922176361083984,0.35169339179992676,1.0776951313018799,0.4065234363079071,0.8632197380065918
18771.09420902477,0.40569883584976196,0.23186317086219788,-0.9034692049026489,0.9999871253967285,0.41053926944732666,0.20826733112335205,-0.8382394909858704,0.9999755620956421,0.4186052680015564,0.20712849497795105,-0.8383955359458923,0.9999721050262451,0.42610418796539307,0.20599955320358276,-0.8384297490119934,0.9999680519104004,0.37885379791259766,0.20976686477661133,-0.8716594576835632,0.9999765157699585,0.36156854033470154,0.20972368121147156,-0.8716859221458435,0.9999728202819824,0.342788964509964,0.20979762077331543,-0.871768057346344,0.9999681711196899,0.41623738408088684,0.2130712866783142,-0.4684639573097229,0.9999681711196899,0.2920026183128357,0.2195345163345337,-0.6326533555984497,0.9999765157699585,0.41301900148391724,0.2547455132007599,-0.7665096521377563,0.9999916553497314,0.38117873668670654,0.25673654675483704,-0.8128277063369751,0.9999935626983643,0.5014244318008423,0.3494623899459839,-0.24815690517425537,0.9999349117279053,0.1341904103755951,0.37148118019104004,-0.479667067527771,0.9997937083244324,0.5502017140388489,0.5053564310073853,-0.040098629891872406,0.9805927276611328,0.11533743143081665,0.5154591798782349,-0.6201431751251221,0.9614270925521851,0.6243178844451904,0.6290080547332764,-0.34269681572914124,0.9817703366279602,0.196707621216774,0.5753050446510315,-1.0799437761306763,0.9102364182472229,0.6491057276725769,0.6732494235038757,-0.44035887718200684,0.9674011468887329,0.23204560577869415,0.5927959084510803,-1.1995426416397095,0.8880081176757812,0.6350305080413818,0.6733031868934631,-0.5388731360435486,0.9707962870597839,0.2475522756576538,0.5689345002174377,-1.273270845413208,0.8946189880371094,0.6230531334877014,0.6643064022064209,-0.3884579837322235,0.9709250330924988,0.23780503869056702,0.5584937930107117,-1.1178514957427979,0.8846727609634399,0.4572456181049347,0.6317731738090515,0.07970907539129257,0.9984371066093445,0.2801242172718048,0.6532157063484192,-0.07918290048837662,0.9987137317657471,0.4651302397251129,0.8337200880050659,0.2578679919242859,0.9724991917610168,0.3181607127189636,0.8638306260108948,0.07394260913133621,0.9808297157287598,0.48123982548713684,0.96291583776474,1.0259747505187988,0.9281572103500366,0.34325188398361206,0.992304265499115,0.709718644618988,0.9385101199150085,0.46012648940086365,0.9728181958198547,1.0808024406433105,0.8755708336830139,0.3447297215461731,0.993270218372345,0.7563037276268005,0.7424075603485107,0.5553813576698303,1.0303412675857544,0.7808753848075867,0.8783845901489258,0.35089656710624695,1.0805370807647705,0.36655065417289734,0.8486906886100769
18787.760875691438,0.403379887342453,0.23474028706550598,-0.9866223335266113,0.9999921321868896,0.4114522337913513,0.21015027165412903,-0.9260913729667664,0.9999834299087524,0.420245885848999,0.20930904150009155,-0.9262025952339172,0.9999818801879883,0.4277442693710327,0.2087889313697815,-0.9262435436248779,0.9999786615371704,0.37988847494125366,0.21110016107559204,-0.9587766528129578,0.9999837875366211,0.3618435263633728,0.21110567450523376,-0.9588029980659485,0.9999821186065674,0.3423171639442444,0.21176159381866455,-0.9588426351547241,0.9999784231185913,0.41971200704574585,0.21485635638237,-0.5566878318786621,0.9999792575836182,0.2892700433731079,0.22114109992980957,-0.717239260673523,0.9999831914901733,0.4095980226993561,0.25745657086372375,-0.8467481732368469,0.9999940395355225,0.3766050934791565,0.259278804063797,-0.8922286629676819,0.999995231628418,0.5001541376113892,0.3465658128261566,-0.3264234662055969,0.9999576807022095,0.13391399383544922,0.368702232837677,-0.5347481966018677,0.9998154044151306,0.5534992218017578,0.5027758479118347,-0.10053475201129913,0.9857133626937866,0.11960913985967636,0.5122441649436951,-0.6583468914031982,0.9659209251403809,0.6238628029823303,0.6298693418502808,-0.3748507499694824,0.9834389090538025,0.20166346430778503,0.5774785876274109,-1.10593581199646,0.920934796333313,0.6494627594947815,0.6742838621139526,-0.46720629930496216,0.9686065316200256,0.23881354928016663,0.5952485799789429,-1.222716212272644,0.8972892165184021,0.6346457004547119,0.6738144159317017,-0.5643813014030457,0.9718132019042969,0.25363826751708984,0.5717002749443054,-1.2968769073486328,0.9033607840538025,0.622328519821167,0.664297342300415,-0.4190548062324524,0.9719822406768799,0.24482333660125732,0.561609148979187,-1.1435236930847168,0.8933553695678711,0.4550580382347107,0.6234469413757324,0.05180676653981209,0.9985190033912659,0.27254047989845276,0.6453197002410889,-0.05127055570483208,0.9985906481742859,0.4669848382472992,0.8263491988182068,0.2187667191028595,0.9765645265579224,0.3173527121543884,0.8536450266838074,0.10271820425987244,0.9760971069335938,0.481600821018219,0.9598186612129211,0.9395037293434143,0.9363126754760742,0.3452177345752716,0.9873489737510681,0.7270103096961975,0.9307042956352234,0.4652135372161865,0.9680565595626831,0.9889103770256042,0.8652388453483582,0.3453254997730255,0.9894749522209167,0.7722606062889099,0.7273727655410767,0.5421872138977051,1.0278106927871704,0.6727272868156433,0.8853062391281128,0.34848320484161377,1.0723934173583984,0.38251423835754395,0.8418228626251221
18804.427542358106,0.4035613238811493,0.23155760765075684,-0.9231772422790527,0.9999901056289673,0.41080495715141296,0.20775285363197327,-0.8613998889923096,0.999980092048645,0.41966167092323303,0.2068067491054535,-0.8615487813949585,0.9999783039093018,0.42775988578796387,0.20599612593650818,-0.8616315722465515,0.9999746084213257,0.37910112738609314,0.20900148153305054,-0.8921768069267273,0.9999805688858032,0.3610304296016693,0.20910191535949707,-0.8921924233436584,0.9999781847000122,0.34222134947776794,0.20926928520202637,-0.8922436237335205,0.9999740123748779,0.4222983419895172,0.21309754252433777,-0.4978742003440857,0.999976634979248,0.29366230964660645,0.21876123547554016,-0.6482162475585938,0.9999809265136719,0.4115232825279236,0.2546735405921936,-0.7866483926773071,0.9999934434890747,0.3781183362007141,0.25632718205451965,-0.8291326761245728,0.9999948740005493,0.5019646286964417,0.34899798035621643,-0.27484047412872314,0.9999512434005737,0.1378861963748932,0.368290513753891,-0.4804835021495819,0.9997979998588562,0.5533187389373779,0.5034453868865967,-0.05838592350482941,0.9862276911735535,0.11899722367525101,0.5128560662269592,-0.6123753786087036,0.9669983386993408,0.6258745789527893,0.6327767968177795,-0.33737853169441223,0.9828624129295349,0.20216479897499084,0.5766253471374512,-1.0701497793197632,0.921132504940033,0.6507701873779297,0.6747466325759888,-0.43191617727279663,0.9678497314453125,0.23748265206813812,0.5957858562469482,-1.185817003250122,0.8972347378730774,0.6372702121734619,0.674396276473999,-0.5262220501899719,0.9711971879005432,0.2556789219379425,0.5741706490516663,-1.2577145099639893,0.9032299518585205,0.6267067193984985,0.6652384996414185,-0.38071581721305847,0.9716057777404785,0.24710038304328918,0.5636687278747559,-1.1065820455551147,0.8933781385421753,0.45315903425216675,0.6268975138664246,0.05675467848777771,0.9983397722244263,0.2745322585105896,0.6481841802597046,-0.05613790825009346,0.9984075427055359,0.46647387742996216,0.8282426595687866,0.16009105741977692,0.9709860682487488,0.3173825144767761,0.8607348203659058,0.06722003221511841,0.969163715839386,0.4816422760486603,0.9644801616668701,0.8886664509773254,0.9089637398719788,0.34488871693611145,0.9855061769485474,0.7017002701759338,0.8995444178581238,0.46685972809791565,0.9720533490180969,0.9389122128486633,0.825702428817749,0.3471158742904663,0.9861109852790833,0.7480881810188293,0.6604282855987549,0.5489777326583862,1.0333174467086792,0.622130811214447,0.8337702751159668,0.349662184715271,1.074892520904541,0.35550767183303833,0.7760242819786072
18821.094209024774,0.4061112105846405,0.2318509817123413,-0.9072921872138977,0.9999855756759644,0.41107064485549927,0.20876553654670715,-0.842954158782959,0.9999719858169556,0.4191388189792633,0.20771518349647522,-0.8430928587913513,0.9999676942825317,0.4268176853656769,0.20665988326072693,-0.8431105613708496,0.9999629259109497,0.3794806897640228,0.20994675159454346,-0.8776533007621765,0.9999741315841675,0.3621680736541748,0.20974984765052795,-0.8776844143867493,0.9999706745147705,0.3435211181640625,0.20970922708511353,-0.8777759671211243,0.9999655485153198,0.4175875782966614,0.21364381909370422,-0.4739955961704254,0.9999638795852661,0.2921777367591858,0.2196660041809082,-0.6438192129135132,0.9999749660491943,0.4133150577545166,0.2549811899662018,-0.7702097296714783,0.999990701675415,0.3814067840576172,0.25677597522735596,-0.8181469440460205,0.999993085861206,0.499508261680603,0.3488483726978302,-0.24378804862499237,0.9999281167984009,0.13442303240299225,0.3718494176864624,-0.5014036893844604,0.9997925162315369,0.550337553024292,0.5043615698814392,-0.01205697562545538,0.9799314141273499,0.11692629009485245,0.5152198076248169,-0.658420979976654,0.9634456038475037,0.6268351078033447,0.6308881044387817,-0.28486141562461853,0.9819412231445312,0.19697628915309906,0.5754442811012268,-1.1239564418792725,0.9159749746322632,0.651574969291687,0.6742430329322815,-0.3754892349243164,0.9679126739501953,0.23347462713718414,0.591954231262207,-1.2448818683624268,0.8961567878723145,0.6375317573547363,0.6740769743919373,-0.4738349914550781,0.9712854623794556,0.24829216301441193,0.567689836025238,-1.3183649778366089,0.9025092720985413,0.626110315322876,0.6649932265281677,-0.3296748399734497,0.9716725945472717,0.2384544461965561,0.5579305291175842,-1.1619243621826172,0.8921786546707153,0.46084022521972656,0.632147490978241,0.08940917998552322,0.9985398054122925,0.28233107924461365,0.6542062759399414,-0.08889466524124146,0.9988058805465698,0.4668762683868408,0.8311036825180054,0.2877989411354065,0.9721781015396118,0.3189573287963867,0.864107608795166,0.08448424935340881,0.9810638427734375,0.4799090027809143,0.9606820344924927,1.0831286907196045,0.9253560304641724,0.34308671951293945,0.9907249212265015,0.7392898201942444,0.9373148679733276,0.4588737487792969,0.9709621667861938,1.1418042182922363,0.8796743750572205,0.3441186547279358,0.9927336573600769,0.7889419794082642,0.7486380934715271,0.5540257096290588,1.02772855758667,0.8503184914588928,0.8761154413223267,0.35817816853523254,1.0795270204544067,0.40223732590675354,0.8426569104194641
18837.76087569144,0.4037632346153259,0.23304712772369385,-0.8969922065734863,0.9999858140945435,0.4112659990787506,0.2095029354095459,-0.830619752407074,0.9999724626541138,0.4201546013355255,0.20881110429763794,-0.8308050632476807,0.9999685287475586,0.4279342591762543,0.20821040868759155,-0.8308700323104858,0.9999637603759766,0.3796982169151306,0.2101641297340393,-0.8651416897773743,0.9999744892120361,0.36210888624191284,0.21020755171775818,-0.8651686310768127,0.9999710321426392,0.3438428044319153,0.21047177910804749,-0.8652876019477844,0.999967098236084,0.4207729697227478,0.21462741494178772,-0.4503448009490967,0.9999662637710571,0.29522934556007385,0.21949931979179382,-0.6171696782112122,0.999976396560669,0.4107237756252289,0.25594091415405273,-0.754780113697052,0.9999912977218628,0.3790895938873291,0.257097065448761,-0.802071750164032,0.9999934434890747,0.5013983845710754,0.3481990694999695,-0.2154507339000702,0.9999374151229858,0.13781194388866425,0.3691967725753784,-0.4527321457862854,0.9998003840446472,0.5535873770713806,0.5035560131072998,0.009358694776892662,0.9812503457069397,0.11538958549499512,0.5143402814865112,-0.6000875234603882,0.9633351564407349,0.6237090826034546,0.6303404569625854,-0.30084553360939026,0.9791213870048523,0.19366216659545898,0.5780764222145081,-1.0988956689834595,0.9251152276992798,0.649990439414978,0.67405104637146,-0.3995180130004883,0.9632688760757446,0.2320556938648224,0.5964746475219727,-1.2214792966842651,0.9053360223770142,0.6350651383399963,0.6735374331474304,-0.4970244765281677,0.9670549631118774,0.24828501045703888,0.571153461933136,-1.2982032299041748,0.9111496806144714,0.6225497722625732,0.6639123558998108,-0.34605756402015686,0.9671303033828735,0.23800629377365112,0.5611592531204224,-1.1374536752700806,0.8990436792373657,0.45883074402809143,0.633081316947937,0.06909503042697906,0.9984475374221802,0.27601051330566406,0.6539723873138428,-0.06853869557380676,0.9986518025398254,0.4670124053955078,0.8365427851676941,0.19085507094860077,0.9729170799255371,0.3174106776714325,0.864952802658081,0.05357062816619873,0.970764696598053,0.47932279109954834,0.9662928581237793,0.9911816120147705,0.9179216623306274,0.34790992736816406,0.9916013479232788,0.715156614780426,0.9134749174118042,0.46182531118392944,0.975438117980957,1.0486040115356445,0.8520298004150391,0.35062286257743835,0.9948122501373291,0.7642166018486023,0.6902326941490173,0.532325804233551,1.0266326665878296,0.7331506013870239,0.8583707809448242,0.35296952724456787,1.0835022926330566,0.362990140914917,0.8115599751472473
18854.42754235811,0.4023042917251587,0.23301911354064941,-0.9418612122535706,0.9999845027923584,0.41021400690078735,0.20901301503181458,-0.8774219155311584,0.9999680519104004,0.4196881055831909,0.2084164023399353,-0.8775821328163147,0.9999639987945557,0.4280741810798645,0.20807233452796936,-0.8776143789291382,0.9999595880508423,0.3785742521286011,0.20949780941009521,-0.9117243885993958,0.9999693632125854,0.3606111407279968,0.20955029129981995,-0.9117411375045776,0.9999643564224243,0.3421434462070465,0.2100268006324768,-0.9118392467498779,0.9999576807022095,0.4219653606414795,0.21488645672798157,-0.4965747594833374,0.999958872795105,0.29332393407821655,0.22011947631835938,-0.6640381813049316,0.999966025352478,0.40868663787841797,0.25616833567619324,-0.7990940809249878,0.99998939037323,0.3764108419418335,0.25685301423072815,-0.8465196490287781,0.9999916553497314,0.500477135181427,0.3486866056919098,-0.25704219937324524,0.9999415874481201,0.13943977653980255,0.36702752113342285,-0.500552237033844,0.9997789263725281,0.5533444285392761,0.5051926970481873,-0.0313597172498703,0.982749342918396,0.12020272761583328,0.511211097240448,-0.6372329592704773,0.9562132358551025,0.6252608895301819,0.6309481263160706,-0.3282368779182434,0.983384370803833,0.19831673800945282,0.5769855976104736,-1.1054341793060303,0.9020417928695679,0.6479406356811523,0.6736313700675964,-0.42753228545188904,0.9693088531494141,0.23466598987579346,0.5975016355514526,-1.2288464307785034,0.8802997469902039,0.6310974359512329,0.6740332245826721,-0.5284085273742676,0.9723954796791077,0.2515130043029785,0.5746446251869202,-1.3069491386413574,0.8867324590682983,0.6186164617538452,0.6645254492759705,-0.37421509623527527,0.9720714092254639,0.24306246638298035,0.5643807649612427,-1.1449145078659058,0.8740530610084534,0.4580053985118866,0.6317762732505798,0.08402414619922638,0.9984807372093201,0.27742937207221985,0.6519768834114075,-0.08349502086639404,0.9987654685974121,0.4682603180408478,0.8296462297439575,0.2915098965167999,0.9739540815353394,0.31907105445861816,0.8645339608192444,0.0899960845708847,0.9809848070144653,0.48010480403900146,0.9594137668609619,1.0931262969970703,0.9319359660148621,0.34674447774887085,0.9931091070175171,0.7545493245124817,0.9417362809181213,0.4607904255390167,0.9711997509002686,1.1518923044204712,0.883453369140625,0.350382000207901,0.9947953820228577,0.8039860129356384,0.7512269616127014,0.5517192482948303,1.024503231048584,0.8474820852279663,0.8911231160163879,0.3672884404659271,1.0805296897888184,0.40546363592147827,0.8611389994621277
18871.094209024777,0.40402185916900635,0.23550134897232056,-0.8552966117858887,0.9999769926071167,0.4119775593280792,0.21066099405288696,-0.791496992111206,0.9999542236328125,0.4205731749534607,0.209779292345047,-0.7917014360427856,0.9999476671218872,0.42810651659965515,0.20926499366760254,-0.7917836904525757,0.9999411106109619,0.3807402551174164,0.2116750180721283,-0.8316751718521118,0.9999582767486572,0.36277687549591064,0.21171629428863525,-0.8317191004753113,0.9999529123306274,0.34344661235809326,0.21240440011024475,-0.8318458199501038,0.999946117401123,0.41960984468460083,0.2152876853942871,-0.4176577031612396,0.9999446868896484,0.2910313606262207,0.2217780351638794,-0.6103371381759644,0.9999622106552124,0.41045165061950684,0.25785356760025024,-0.7138538360595703,0.999985933303833,0.3780169188976288,0.25969019532203674,-0.768530547618866,0.9999896287918091,0.4986094534397125,0.34825292229652405,-0.17672975361347198,0.9999227523803711,0.13592657446861267,0.36869218945503235,-0.4722827672958374,0.9997866749763489,0.5529012084007263,0.506171464920044,0.061867307871580124,0.9758154153823853,0.11958589404821396,0.517383337020874,-0.6180572509765625,0.9634342789649963,0.6228509545326233,0.6301189661026001,-0.22375643253326416,0.9771971106529236,0.20047786831855774,0.5798045992851257,-1.0787746906280518,0.9233232736587524,0.6467291116714478,0.6732956171035767,-0.3173868954181671,0.9615781903266907,0.23483455181121826,0.5980919003486633,-1.2007266283035278,0.9069347977638245,0.6311134696006775,0.6733475923538208,-0.4150073826313019,0.9654428958892822,0.24918299913406372,0.5726372003555298,-1.277320384979248,0.9124648571014404,0.6181055307388306,0.6639955043792725,-0.2685500681400299,0.9655890464782715,0.2405288815498352,0.5629422664642334,-1.116791844367981,0.8992829918861389,0.4593672454357147,0.6352561712265015,0.09498144686222076,0.9981264472007751,0.2762952148914337,0.6551951169967651,-0.09447335451841354,0.9984126091003418,0.4678770899772644,0.8403472304344177,0.2658282220363617,0.962440013885498,0.31865832209587097,0.8697134256362915,0.06008898466825485,0.9695069789886475,0.4794794023036957,0.9631033539772034,1.0668128728866577,0.8951641321182251,0.3454234004020691,0.9959558844566345,0.7126530408859253,0.9080004096031189,0.45804670453071594,0.973353385925293,1.1270687580108643,0.8514076471328735,0.3470940589904785,0.9972944259643555,0.762175977230072,0.6975896954536438,0.5500507354736328,1.0357749462127686,0.8398513197898865,0.8412501215934753,0.3688802719116211,1.0923488140106201,0.3708247244358063,0.7954980134963989
18887.760875691445,0.40828147530555725,0.23210957646369934,-0.8964940905570984,0.9999866485595703,0.4120076894760132,0.20916682481765747,-0.8303011059761047,0.9999755620956421,0.41985830664634705,0.2081252932548523,-0.8304815888404846,0.999971866607666,0.427462637424469,0.20715898275375366,-0.8305524587631226,0.9999682903289795,0.3802487850189209,0.21020391583442688,-0.8673326373100281,0.9999759197235107,0.36275139451026917,0.20991823077201843,-0.8673832416534424,0.9999723434448242,0.3447830379009247,0.21006542444229126,-0.867499828338623,0.9999682903289795,0.4179139733314514,0.2144901156425476,-0.4514130651950836,0.9999697208404541,0.29381027817726135,0.22039836645126343,-0.6314104199409485,0.999976634979248,0.4156930148601532,0.2547602951526642,-0.754753828048706,0.9999924898147583,0.38484472036361694,0.2567968964576721,-0.8057684302330017,0.9999942779541016,0.49895307421684265,0.3507075905799866,-0.21966105699539185,0.9999470710754395,0.1345115602016449,0.3687121570110321,-0.4735336899757385,0.9997870326042175,0.5505492687225342,0.5076014399528503,-0.0005852012545801699,0.9831425547599792,0.11330153048038483,0.514143168926239,-0.6232890486717224,0.9638897180557251,0.623993992805481,0.6332482695579529,-0.31425046920776367,0.9843730926513672,0.20168687403202057,0.5802727341651917,-1.1074916124343872,0.918980062007904,0.6487048268318176,0.6755031943321228,-0.4163307845592499,0.9715443253517151,0.2424347996711731,0.5959188342094421,-1.2298659086227417,0.8991833329200745,0.6323351860046387,0.6751484274864197,-0.5128304362297058,0.9744985103607178,0.2575393319129944,0.5718602538108826,-1.3044705390930176,0.905013382434845,0.6190989017486572,0.6662113666534424,-0.3590244650840759,0.9741204380989075,0.2477489709854126,0.5631149411201477,-1.1447464227676392,0.8929283022880554,0.4583198130130768,0.6332902908325195,0.07937158644199371,0.9984263181686401,0.2784165143966675,0.6538942456245422,-0.07885833829641342,0.9985456466674805,0.4676485061645508,0.8377470970153809,0.2010662853717804,0.9637852907180786,0.31936174631118774,0.8680907487869263,0.04621226713061333,0.9645662307739258,0.4829237163066864,0.9646727442741394,1.0197397470474243,0.894673764705658,0.3479625880718231,0.9943867921829224,0.7143462896347046,0.897768497467041,0.4634956121444702,0.973734974861145,1.0808371305465698,0.83967125415802,0.34942933917045593,0.9945728182792664,0.7648982405662537,0.6652498841285706,0.5486506223678589,1.0352580547332764,0.7792383432388306,0.8364689350128174,0.3670106828212738,1.0878642797470093,0.36368152499198914,0.7796970009803772
18904.427542358113,0.407423734664917,0.232217937707901,-0.9063016772270203,0.999984860420227,0.4122466444969177,0.20864421129226685,-0.8403549194335938,0.9999722242355347,0.4204983711242676,0.20737183094024658,-0.8405582308769226,0.9999685287475586,0.4282695949077606,0.2061687409877777,-0.8406541347503662,0.9999653100967407,0.3802657425403595,0.21050694584846497,-0.874591052532196,0.999971866607666,0.3622370958328247,0.2106054127216339,-0.8746327757835388,0.9999666213989258,0.3437838852405548,0.21101918816566467,-0.8747398853302002,0.999961256980896,0.4211271107196808,0.21376878023147583,-0.459085077047348,0.9999673366546631,0.2933105230331421,0.22193363308906555,-0.6261316537857056,0.9999706745147705,0.4160085916519165,0.25514185428619385,-0.7636094093322754,0.9999911785125732,0.3837810754776001,0.25771278142929077,-0.8109749555587769,0.999992847442627,0.5011926293373108,0.35066497325897217,-0.2275107055902481,0.9999438524246216,0.13967715203762054,0.3703174293041229,-0.46135661005973816,0.9997422099113464,0.5492463707923889,0.5062556862831116,-0.0184185728430748,0.981365442276001,0.11417346447706223,0.5148947238922119,-0.6102845072746277,0.9496420621871948,0.6245138645172119,0.6311148405075073,-0.332394003868103,0.981474757194519,0.1984894871711731,0.5783699154853821,-1.1011937856674194,0.8783413767814636,0.6485303640365601,0.6731489896774292,-0.4338794946670532,0.9671292304992676,0.24117402732372284,0.5936647653579712,-1.223620057106018,0.854848325252533,0.6335734128952026,0.6728057265281677,-0.5318486094474792,0.9705091118812561,0.254628449678421,0.571537971496582,-1.296619176864624,0.8620954155921936,0.6213187575340271,0.6634126901626587,-0.3773219883441925,0.9697166085243225,0.24432742595672607,0.5623607039451599,-1.1385308504104614,0.8460906147956848,0.4581129550933838,0.6346240043640137,0.08091915398836136,0.9982876181602478,0.27787256240844727,0.6541008949279785,-0.08041766285896301,0.9984307885169983,0.46832364797592163,0.8371973037719727,0.2119022160768509,0.9649282097816467,0.31889480352401733,0.8690744638442993,0.038213808089494705,0.970949113368988,0.4802011251449585,0.9644351601600647,0.9937317371368408,0.9113274812698364,0.3455454409122467,0.9923738837242126,0.680063009262085,0.918612539768219,0.46067509055137634,0.9745538830757141,1.0501469373703003,0.8564937114715576,0.3476051390171051,0.9930258393287659,0.7263369560241699,0.6922650933265686,0.5422654151916504,1.024394154548645,0.7400621771812439,0.8631880283355713,0.3622334599494934,1.087563395500183,0.32003578543663025,0.8194870352745056
18921.09420902478,0.40781480073928833,0.23106476664543152,-0.9332216382026672,0.9999905824661255,0.4122534394264221,0.20814499258995056,-0.8693811297416687,0.9999808073043823,0.4201335310935974,0.20713898539543152,-0.8694924712181091,0.9999779462814331,0.4276791214942932,0.2061537206172943,-0.8694888949394226,0.9999741315841675,0.3807954788208008,0.20940211415290833,-0.9017197489738464,0.9999819993972778,0.36373192071914673,0.20938152074813843,-0.9017449617385864,0.9999793767929077,0.3451545238494873,0.20962131023406982,-0.9018368721008301,0.9999759197235107,0.4185887277126312,0.21317529678344727,-0.49613600969314575,0.9999740123748779,0.29441025853157043,0.22016295790672302,-0.6566917300224304,0.9999810457229614,0.41483575105667114,0.2543739676475525,-0.794201672077179,0.9999934434890747,0.3835299611091614,0.2563493549823761,-0.8395132422447205,0.999995231628418,0.5014509558677673,0.3500711917877197,-0.2668858468532562,0.9999474287033081,0.1350334882736206,0.36951011419296265,-0.4947008192539215,0.9998420476913452,0.5503221750259399,0.5081339478492737,-0.04051322117447853,0.9830514192581177,0.1103968620300293,0.5138683319091797,-0.6527128219604492,0.9677432179450989,0.6234599351882935,0.632790207862854,-0.325257271528244,0.9854745864868164,0.1993163824081421,0.5770524144172668,-1.1356719732284546,0.9264704585075378,0.6490353345870972,0.6753736734390259,-0.4203578531742096,0.9732827544212341,0.2347692996263504,0.5951932668685913,-1.2568776607513428,0.9060359597206116,0.631109356880188,0.6752354502677917,-0.5191222429275513,0.9758473038673401,0.2530994415283203,0.5718985795974731,-1.3298962116241455,0.9106028079986572,0.6173693537712097,0.6660796999931335,-0.3698836863040924,0.9755571484565735,0.24404466152191162,0.5621678233146667,-1.1728249788284302,0.9008376002311707,0.4614114761352539,0.6319957971572876,0.07423189282417297,0.9986191987991333,0.2797805070877075,0.654333770275116,-0.07370340824127197,0.9989086389541626,0.4696884751319885,0.8291456699371338,0.240174800157547,0.9744173288345337,0.319040983915329,0.8617817163467407,0.07398691773414612,0.9801518321037292,0.4839836061000824,0.960276186466217,1.0163524150848389,0.9320237636566162,0.3475099802017212,0.992128849029541,0.7248882055282593,0.9385668039321899,0.4645462930202484,0.9725893139839172,1.072165846824646,0.8808645606040955,0.35280898213386536,0.9933087229728699,0.772760808467865,0.7431583404541016,0.5492204427719116,1.0238564014434814,0.7678607702255249,0.8891335725784302,0.3578154444694519,1.084112286567688,0.3746507465839386,0.8517364859580994
18937.76087569145,0.40486064553260803,0.23226016759872437,-0.920336902141571,0.9999847412109375,0.4115874171257019,0.20826873183250427,-0.8534331917762756,0.9999699592590332,0.42059701681137085,0.20761126279830933,-0.853596031665802,0.9999672174453735,0.4285045564174652,0.20709455013275146,-0.8536618947982788,0.9999628067016602,0.3797873854637146,0.20890465378761292,-0.8900001645088196,0.9999691247940063,0.3617715537548065,0.20897391438484192,-0.890025794506073,0.9999645948410034,0.34278807044029236,0.20933660864830017,-0.8901082277297974,0.9999561309814453,0.42084604501724243,0.21419164538383484,-0.47106707096099854,0.9999641180038452,0.2931358814239502,0.21930426359176636,-0.6493715047836304,0.9999655485153198,0.41163957118988037,0.2554381191730499,-0.7777716517448425,0.9999903440475464,0.3790085017681122,0.25654980540275574,-0.8283321857452393,0.9999914169311523,0.5013728141784668,0.3489031195640564,-0.24193412065505981,0.9999483823776245,0.13570073246955872,0.3706509470939636,-0.49201223254203796,0.9997149109840393,0.5513948202133179,0.5047343373298645,-0.02383551374077797,0.9841575026512146,0.11691713333129883,0.5136516094207764,-0.6498833894729614,0.9502739310264587,0.6259530782699585,0.6330007314682007,-0.32018187642097473,0.9847769737243652,0.19669663906097412,0.5773503184318542,-1.1375073194503784,0.8917601108551025,0.647970974445343,0.6758695840835571,-0.41834986209869385,0.971469521522522,0.2316790372133255,0.59419184923172,-1.2619496583938599,0.8707800507545471,0.6313158273696899,0.6757439970970154,-0.5164316296577454,0.9744781255722046,0.2462192326784134,0.5709712505340576,-1.3373184204101562,0.8777681589126587,0.61910080909729,0.6663194298744202,-0.3650861382484436,0.9740197658538818,0.23695479333400726,0.5611419677734375,-1.1765717267990112,0.8650100827217102,0.45968517661094666,0.6323745846748352,0.08241651207208633,0.9985886216163635,0.27918240427970886,0.6542425155639648,-0.08189447224140167,0.9986351132392883,0.4704624116420746,0.8334975838661194,0.22744326293468475,0.9710004925727844,0.32136109471321106,0.8687255382537842,0.05861644446849823,0.9735075235366821,0.4866189956665039,0.9637441039085388,1.0323216915130615,0.9192878007888794,0.3460592031478882,0.9904842972755432,0.7446176409721375,0.9226687550544739,0.4675349295139313,0.9743180871009827,1.0904922485351562,0.8573214411735535,0.35147348046302795,0.9907616376876831,0.7951329350471497,0.6943546533584595,0.5522505044937134,1.0241351127624512,0.775473415851593,0.8674697875976562,0.3585067093372345,1.0816326141357422,0.3887060880661011,0.826295793056488
18954.427542358117,0.4053354859352112,0.23122411966323853,-0.9331300854682922,0.9999903440475464,0.4123278856277466,0.20811402797698975,-0.866733729839325,0.9999810457229614,0.42082709074020386,0.20736506581306458,-0.866868793964386,0.9999788999557495,0.42869067192077637,0.2066582441329956,-0.8669254183769226,0.9999755620956421,0.37984710931777954,0.20898357033729553,-0.9005313515663147,0.9999808073043823,0.3618149757385254,0.20902296900749207,-0.9005891680717468,0.9999780654907227,0.3429257273674011,0.2091926634311676,-0.9006695747375488,0.9999731779098511,0.4211769998073578,0.21361908316612244,-0.48437926173210144,0.999976634979248,0.2933192849159241,0.21910148859024048,-0.6517738103866577,0.9999786615371704,0.41274818778038025,0.2544892728328705,-0.7906820178031921,0.9999936819076538,0.3801999092102051,0.255626916885376,-0.8380411267280579,0.9999946355819702,0.5011882781982422,0.349874347448349,-0.25754401087760925,0.9999535083770752,0.13585849106311798,0.36984169483184814,-0.48724740743637085,0.9997736811637878,0.553966760635376,0.5057954788208008,-0.043491631746292114,0.9859604835510254,0.12021516263484955,0.5113623142242432,-0.6528436541557312,0.9582539796829224,0.6290004253387451,0.6346229314804077,-0.3333551585674286,0.9870015382766724,0.19471849501132965,0.5776225328445435,-1.148947834968567,0.9015834927558899,0.6501610279083252,0.6768894195556641,-0.42913761734962463,0.9751536250114441,0.23097313940525055,0.5944291949272156,-1.270616888999939,0.8794959783554077,0.6345654726028442,0.6762786507606506,-0.5263839364051819,0.9776036739349365,0.24669888615608215,0.570005476474762,-1.3458046913146973,0.8856151700019836,0.6226668357849121,0.6670295596122742,-0.37721848487854004,0.9769511818885803,0.23687736690044403,0.5604865550994873,-1.187745213508606,0.8747420310974121,0.4624594748020172,0.6306521892547607,0.07223892956972122,0.998563826084137,0.2787240147590637,0.6527348756790161,-0.07173480093479156,0.9986591339111328,0.4659770727157593,0.8299896121025085,0.18553292751312256,0.9707876443862915,0.31913289427757263,0.868922233581543,0.05399095267057419,0.9704449772834778,0.4813118875026703,0.9629077911376953,0.9515365958213806,0.9195528626441956,0.3474200665950775,0.99372798204422,0.7189369201660156,0.9184995889663696,0.4606093764305115,0.9756864309310913,1.0058830976486206,0.8594521284103394,0.3525019586086273,0.9968289136886597,0.7666383981704712,0.6807471513748169,0.5541736483573914,1.0352212190628052,0.689776599407196,0.8718141317367554,0.3597762882709503,1.0887584686279297,0.3555350601673126,0.8188977837562561
18971.094209024785,0.4047834277153015,0.23316848278045654,-0.9173054099082947,0.999987006187439,0.4114716947078705,0.20999422669410706,-0.8522208333015442,0.9999746084213257,0.42028161883354187,0.20914772152900696,-0.8523734211921692,0.9999716281890869,0.42809411883354187,0.2082684338092804,-0.8524373769760132,0.9999679327011108,0.37843185663223267,0.21086207032203674,-0.8856846690177917,0.999974250793457,0.3602246940135956,0.21081215143203735,-0.8857006430625916,0.9999699592590332,0.3411179482936859,0.21086126565933228,-0.8857731223106384,0.9999644756317139,0.42067664861679077,0.214796781539917,-0.4792201519012451,0.9999675750732422,0.291550874710083,0.22047460079193115,-0.6449888944625854,0.9999713897705078,0.41231298446655273,0.2562938630580902,-0.778312623500824,0.9999916553497314,0.3801174759864807,0.2577199935913086,-0.8251842260360718,0.9999932050704956,0.4981382191181183,0.35027846693992615,-0.26306086778640747,0.9999464750289917,0.13562767207622528,0.37018558382987976,-0.47684916853904724,0.9997510313987732,0.5504399538040161,0.5069354176521301,-0.04446103423833847,0.983677864074707,0.11206120252609253,0.5155743360519409,-0.6072517037391663,0.955287754535675,0.6277422904968262,0.6342370510101318,-0.33422234654426575,0.98475581407547,0.2026880532503128,0.5777238011360168,-1.0569312572479248,0.8957229256629944,0.6499079465866089,0.6766415238380432,-0.43217790126800537,0.9719095826148987,0.24013817310333252,0.5933794975280762,-1.1740694046020508,0.8717212080955505,0.6338459253311157,0.6763966679573059,-0.5302402377128601,0.9747533202171326,0.2563176155090332,0.5700991749763489,-1.2454793453216553,0.8781558871269226,0.621685266494751,0.6671584844589233,-0.37875598669052124,0.9745853543281555,0.24779650568962097,0.5615252256393433,-1.093003273010254,0.8663448691368103,0.46189939975738525,0.6352156400680542,0.0698196068406105,0.9985349178314209,0.28071826696395874,0.6571179032325745,-0.06933872401714325,0.9986011385917664,0.4676552414894104,0.8357588052749634,0.22007733583450317,0.9699447751045227,0.3187996447086334,0.8694323301315308,0.07163254171609879,0.974770724773407,0.4819415807723999,0.9634661674499512,1.0265626907348633,0.9190241694450378,0.34566864371299744,0.9951316714286804,0.7397356033325195,0.9259149432182312,0.4636477530002594,0.9752333164215088,1.0857577323913574,0.8582741022109985,0.3487189710140228,0.9956234693527222,0.7898027896881104,0.7074903845787048,0.5514320731163025,1.0353469848632812,0.7838770151138306,0.8686074614524841,0.35972467064857483,1.0869249105453491,0.39625704288482666,0.83244389295578
18987.760875691452,0.4031625986099243,0.23179557919502258,-0.939771831035614,0.9999891519546509,0.41041499376296997,0.20828017592430115,-0.8750059008598328,0.9999780654907227,0.4193280041217804,0.20746442675590515,-0.875145435333252,0.9999749660491943,0.4277489185333252,0.20686876773834229,-0.8751634359359741,0.9999710321426392,0.37755176424980164,0.20916694402694702,-0.9064000844955444,0.9999781847000122,0.3588882386684418,0.20929983258247375,-0.9064041972160339,0.9999748468399048,0.3403697907924652,0.20960918068885803,-0.9064618349075317,0.9999697208404541,0.4223983585834503,0.2141229212284088,-0.500005304813385,0.9999699592590332,0.2923828959465027,0.2197113037109375,-0.6561647057533264,0.9999765157699585,0.41130170226097107,0.25513753294944763,-0.8003692626953125,0.9999924898147583,0.37752678990364075,0.25623849034309387,-0.8444125652313232,0.999994158744812,0.5001040101051331,0.34940069913864136,-0.2764252722263336,0.9999520778656006,0.1373029351234436,0.3684157431125641,-0.48792514204978943,0.9998185038566589,0.5504406690597534,0.5056396722793579,-0.06721601635217667,0.9840403199195862,0.11511039733886719,0.5112107396125793,-0.62650066614151,0.9604400396347046,0.6222457885742188,0.6313391327857971,-0.37422192096710205,0.9851572513580322,0.19614531099796295,0.5757122039794922,-1.1012167930603027,0.9161785840988159,0.6460890769958496,0.6745486855506897,-0.4753822088241577,0.9723891615867615,0.232045978307724,0.5929126739501953,-1.224481463432312,0.8952665328979492,0.6306816339492798,0.6745517253875732,-0.5749326944351196,0.9751267433166504,0.2486739158630371,0.5704932808876038,-1.298264503479004,0.90116947889328,0.6183971762657166,0.6652671098709106,-0.41999831795692444,0.9749420285224915,0.23947036266326904,0.5604748725891113,-1.1394343376159668,0.8914675712585449,0.45969104766845703,0.629643976688385,0.07128698378801346,0.9988477230072021,0.2784077823162079,0.6510671377182007,-0.0707802027463913,0.9990311861038208,0.46998000144958496,0.8292466998100281,0.26820558309555054,0.9760165214538574,0.31850045919418335,0.8596768975257874,0.09260556846857071,0.9822537302970886,0.48307403922080994,0.9599078297615051,1.0584086179733276,0.9365651607513428,0.34247907996177673,0.9868079423904419,0.7518144249916077,0.9452279806137085,0.46348944306373596,0.9705998301506042,1.1152641773223877,0.8824774026870728,0.34604060649871826,0.9883948564529419,0.8007333874702454,0.7594467401504517,0.5592248439788818,1.0256280899047852,0.810874342918396,0.8904596567153931,0.3458630442619324,1.0723611116409302,0.4121072292327881,0.8671423196792603
19004.42754235812,0.40377098321914673,0.23154526948928833,-0.9388260841369629,0.9999878406524658,0.41028618812561035,0.20823338627815247,-0.8738033175468445,0.9999756813049316,0.4189087748527527,0.2073703408241272,-0.8739489316940308,0.9999728202819824,0.42719629406929016,0.20668300986289978,-0.873977780342102,0.9999685287475586,0.3778664767742157,0.2091662585735321,-0.9058553576469421,0.9999756813049316,0.3595609664916992,0.2092995047569275,-0.9058703184127808,0.9999719858169556,0.34126678109169006,0.20959272980690002,-0.9059351086616516,0.9999662637710571,0.42107847332954407,0.21371790766716003,-0.4985077977180481,0.9999678134918213,0.2932150959968567,0.21965858340263367,-0.6572654843330383,0.9999738931655884,0.41209158301353455,0.25475460290908813,-0.7993775606155396,0.999991774559021,0.3790121376514435,0.25600311160087585,-0.8442005515098572,0.9999933242797852,0.4998384714126587,0.34925177693367004,-0.27405592799186707,0.999948263168335,0.13755574822425842,0.36841729283332825,-0.49288755655288696,0.9997977614402771,0.5503172874450684,0.505651593208313,-0.0638723224401474,0.9833580851554871,0.11593073606491089,0.5110560059547424,-0.6328347325325012,0.9592111110687256,0.6217179298400879,0.6310734748840332,-0.36556103825569153,0.9841607213020325,0.19647808372974396,0.5755490660667419,-1.1028385162353516,0.9092175960540771,0.6455361843109131,0.6742656230926514,-0.46539583802223206,0.9706520438194275,0.232756569981575,0.5928004384040833,-1.2253358364105225,0.8871822357177734,0.6300104856491089,0.6744105219841003,-0.564237117767334,0.9735627174377441,0.24937431514263153,0.5701913833618164,-1.2991681098937988,0.8933510184288025,0.6177552938461304,0.6651516556739807,-0.4109329879283905,0.9733304977416992,0.2401777058839798,0.560279130935669,-1.1409844160079956,0.8829306960105896,0.458640992641449,0.6292861104011536,0.07431148737668991,0.9987731575965881,0.27732253074645996,0.6504644751548767,-0.07381482422351837,0.9989481568336487,0.4691671133041382,0.8290494084358215,0.2681140899658203,0.973992645740509,0.31814736127853394,0.8589208126068115,0.08480465412139893,0.9807568788528442,0.48358702659606934,0.9601092338562012,1.049172282218933,0.9330532550811768,0.3430256247520447,0.9862654805183411,0.7382873892784119,0.9405952095985413,0.46433359384536743,0.9710113406181335,1.1051156520843506,0.8776129484176636,0.34684014320373535,0.9877846240997314,0.7864784598350525,0.7441055178642273,0.5604565143585205,1.025430679321289,0.7985581755638123,0.8864461183547974,0.35003527998924255,1.073142409324646,0.39429253339767456,0.858528733253479
19021.094209024788,0.40410882234573364,0.23582997918128967,-0.9472624063491821,0.9999836683273315,0.4124971628189087,0.21065452694892883,-0.8832595348358154,0.9999679327011108,0.4217590093612671,0.20986193418502808,-0.883403480052948,0.999963641166687,0.4297104775905609,0.20943006873130798,-0.883467435836792,0.9999587535858154,0.3803117573261261,0.21136093139648438,-0.920196533203125,0.9999690055847168,0.36215537786483765,0.2111964225769043,-0.9202288389205933,0.9999648332595825,0.34324005246162415,0.21167275309562683,-0.9202821850776672,0.999957799911499,0.42198511958122253,0.21567195653915405,-0.5075663924217224,0.9999603033065796,0.2910897135734558,0.2210800051689148,-0.6881915330886841,0.9999682903289795,0.41052085161209106,0.258305162191391,-0.8061755299568176,0.9999892711639404,0.3778306841850281,0.25945284962654114,-0.8573113679885864,0.9999909400939941,0.4990708827972412,0.34770795702934265,-0.27967825531959534,0.9999362230300903,0.1336601823568344,0.37176552414894104,-0.5252304673194885,0.9997318387031555,0.5495320558547974,0.5048238635063171,-0.04198995232582092,0.980521559715271,0.12002883106470108,0.5180683135986328,-0.662572979927063,0.9533462524414062,0.6288710832595825,0.6347493529319763,-0.3117122948169708,0.9797220826148987,0.19611838459968567,0.576953649520874,-1.111463189125061,0.8960962891578674,0.6492429971694946,0.6781182289123535,-0.40309467911720276,0.9633402824401855,0.2314077466726303,0.5924894213676453,-1.2318273782730103,0.8751160502433777,0.6344536542892456,0.6778296828269958,-0.5017131567001343,0.9671404957771301,0.2442871630191803,0.5679008960723877,-1.3042744398117065,0.8826410174369812,0.6228415966033936,0.6686407923698425,-0.356365442276001,0.9678307175636292,0.23450730741024017,0.5581954717636108,-1.1490575075149536,0.8706645965576172,0.463910311460495,0.6327328681945801,0.07699098438024521,0.9986603260040283,0.2827584445476532,0.6558454036712646,-0.07649536430835724,0.9987508058547974,0.4704134464263916,0.8354987502098083,0.2747602164745331,0.9713990688323975,0.32169559597969055,0.8698405027389526,0.10376106947660446,0.9780736565589905,0.4837747812271118,0.9643574953079224,1.1077940464019775,0.9206377267837524,0.34924548864364624,0.9893622398376465,0.7970337867736816,0.9343119859695435,0.4650806188583374,0.9750447869300842,1.1702719926834106,0.8704363107681274,0.35671931505203247,0.9917864799499512,0.8507065773010254,0.7399329543113708,0.5566703081130981,1.031035304069519,0.876629650592804,0.870464026927948,0.3543195128440857,1.0794775485992432,0.4669063091278076,0.8451825976371765
19037.760875691456,0.40323391556739807,0.23377618193626404,-0.9632804989814758,0.9999872446060181,0.41062653064727783,0.21009594202041626,-0.8969054222106934,0.9999744892120361,0.41976192593574524,0.20925909280776978,-0.8970512747764587,0.9999710321426392,0.4280499815940857,0.20856130123138428,-0.8970697522163391,0.9999665021896362,0.3778984546661377,0.21105241775512695,-0.929776132106781,0.9999750852584839,0.35945361852645874,0.2111828327178955,-0.9298059344291687,0.9999711513519287,0.34064212441444397,0.21148806810379028,-0.9298794269561768,0.9999654293060303,0.42232298851013184,0.21553927659988403,-0.5135126709938049,0.9999655485153198,0.29167139530181885,0.22113999724388123,-0.675786018371582,0.9999737739562988,0.4112965762615204,0.25686514377593994,-0.8209182620048523,0.9999911785125732,0.3787420988082886,0.2581602931022644,-0.8667970895767212,0.999993085861206,0.49976611137390137,0.3492482602596283,-0.2769342362880707,0.9999384880065918,0.13712765276432037,0.36957892775535583,-0.5118198394775391,0.9997938275337219,0.54853755235672,0.5058498978614807,-0.061523888260126114,0.981044352054596,0.11683160066604614,0.5118873119354248,-0.6555131077766418,0.9597316980361938,0.6212037801742554,0.6318779587745667,-0.364517480134964,0.9818429350852966,0.19572237133979797,0.5745823383331299,-1.1312819719314575,0.9088135361671448,0.6446061730384827,0.6752600073814392,-0.4636947810649872,0.9668739438056946,0.23376153409481049,0.591557502746582,-1.2562388181686401,0.886578381061554,0.6289914846420288,0.6754222512245178,-0.5648826956748962,0.9701685309410095,0.24890919029712677,0.5678514838218689,-1.3307530879974365,0.892888605594635,0.6168968081474304,0.6663053631782532,-0.4111262559890747,0.9700520038604736,0.2381536364555359,0.5578612089157104,-1.1701390743255615,0.8820487260818481,0.4593513011932373,0.6292352080345154,0.0831487774848938,0.9986568689346313,0.27937042713165283,0.6509220004081726,-0.08264368027448654,0.9989163875579834,0.4697116017341614,0.8282201290130615,0.29496362805366516,0.9753613471984863,0.31918343901634216,0.8587148785591125,0.08848018199205399,0.9839906692504883,0.48289355635643005,0.9585712552070618,1.085973858833313,0.9386013746261597,0.3446838855743408,0.9874796271324158,0.7524430155754089,0.9498599171638489,0.4630374312400818,0.9710070490837097,1.142675757408142,0.890102207660675,0.3492383360862732,0.9887962937355042,0.801350474357605,0.7685604095458984,0.548822820186615,1.018557071685791,0.8337940573692322,0.8973961472511292,0.35348382592201233,1.0744670629501343,0.4014068841934204,0.874822735786438
19054.427542358124,0.4066597819328308,0.23120471835136414,-0.9206427335739136,0.9999876022338867,0.41211819648742676,0.2080056369304657,-0.8535342812538147,0.9999760389328003,0.42050737142562866,0.2070876657962799,-0.853680431842804,0.9999732971191406,0.4284454584121704,0.20622670650482178,-0.8537004590034485,0.9999696016311646,0.3797682821750641,0.2091273069381714,-0.8903616666793823,0.9999761581420898,0.3617527186870575,0.2092093825340271,-0.890386700630188,0.9999723434448242,0.34305405616760254,0.20944219827651978,-0.8904615640640259,0.999966025352478,0.42065322399139404,0.21365892887115479,-0.47515401244163513,0.9999701976776123,0.293687641620636,0.21983209252357483,-0.6551033854484558,0.9999732971191406,0.4141710698604584,0.25456926226615906,-0.7804791331291199,0.9999918937683105,0.38233885169029236,0.2564481794834137,-0.8314063549041748,0.9999932050704956,0.5012516975402832,0.3503097593784332,-0.2532324194908142,0.9999476671218872,0.134773850440979,0.3721271753311157,-0.5072004795074463,0.9997697472572327,0.5497281551361084,0.5064586400985718,-0.0397605337202549,0.9832854866981506,0.11966247111558914,0.5141501426696777,-0.6650797128677368,0.9567612409591675,0.6235478520393372,0.6337485313415527,-0.34199780225753784,0.9860806465148926,0.20374974608421326,0.5760114789009094,-1.1411328315734863,0.9071744084358215,0.6466341018676758,0.6762961149215698,-0.441887766122818,0.97434401512146,0.23982404172420502,0.5919231176376343,-1.2667527198791504,0.887954831123352,0.630684494972229,0.6761184930801392,-0.5419983267784119,0.977084755897522,0.25325900316238403,0.5671680569648743,-1.3405449390411377,0.8940544724464417,0.6179385781288147,0.6672109961509705,-0.3881295323371887,0.9767202734947205,0.24399694800376892,0.558122456073761,-1.179673671722412,0.8819235563278198,0.4608202874660492,0.6315289735794067,0.08646891266107559,0.9986199140548706,0.2792931795120239,0.6544008851051331,-0.08594894409179688,0.998820960521698,0.4715314209461212,0.8285057544708252,0.2947085201740265,0.9709402322769165,0.321332186460495,0.8604689836502075,0.09298253059387207,0.9798049330711365,0.4843098521232605,0.9586570262908936,1.1086926460266113,0.9246695637702942,0.34775641560554504,0.9890245199203491,0.7708445191383362,0.9385817050933838,0.46472132205963135,0.9704157114028931,1.1688264608383179,0.8797293305397034,0.3659839630126953,1.0079278945922852,0.8219215273857117,0.7509835362434387,0.5510499477386475,1.018357753753662,0.8711506724357605,0.8824052214622498,0.360571026802063,1.0768604278564453,0.42925015091896057,0.8537411689758301
19071.09420902479,0.4075671434402466,0.2324875295162201,-0.9411336183547974,0.9999885559082031,0.4140506684780121,0.2091335654258728,-0.8738437294960022,0.9999768733978271,0.4224547743797302,0.20829081535339355,-0.8739714622497559,0.9999737739562988,0.43032097816467285,0.20748531818389893,-0.8739647269248962,0.9999697208404541,0.3818143904209137,0.21008026599884033,-0.9107171297073364,0.9999775886535645,0.3637697398662567,0.2099812626838684,-0.9107435345649719,0.999974250793457,0.3451058268547058,0.21005555987358093,-0.9108255505561829,0.9999685287475586,0.422567218542099,0.21472996473312378,-0.4893231689929962,0.9999697208404541,0.29493266344070435,0.2202790081501007,-0.6701402068138123,0.9999750852584839,0.41439855098724365,0.25598302483558655,-0.7984318137168884,0.9999920129776001,0.38330596685409546,0.2576048672199249,-0.8497014045715332,0.9999936819076538,0.5008041858673096,0.3500673174858093,-0.2567681074142456,0.9999485015869141,0.13659510016441345,0.37120166420936584,-0.5135291814804077,0.9997974038124084,0.5503109097480774,0.5061288475990295,-0.03279644995927811,0.9835792183876038,0.12131195515394211,0.5138670802116394,-0.6837265491485596,0.9582293629646301,0.6227747201919556,0.6339557766914368,-0.3314782381057739,0.9861912727355957,0.1974850296974182,0.5755254626274109,-1.1844305992126465,0.915481448173523,0.6461777687072754,0.6758660674095154,-0.4285951852798462,0.9742229580879211,0.23250848054885864,0.591742753982544,-1.312640905380249,0.8970662355422974,0.6299968361854553,0.6760240793228149,-0.5308274030685425,0.976900577545166,0.2470967322587967,0.566931962966919,-1.3872004747390747,0.9028588533401489,0.6168546676635742,0.6670710444450378,-0.378091961145401,0.9765245914459229,0.237674742937088,0.557460606098175,-1.2236452102661133,0.8905293941497803,0.46183836460113525,0.6302504539489746,0.08615874499082565,0.9988069534301758,0.2804906964302063,0.6535532474517822,-0.08566207438707352,0.999037504196167,0.4701804518699646,0.8266783952713013,0.3023416996002197,0.9791777729988098,0.3208661377429962,0.8590208888053894,0.08915315568447113,0.9845446348190308,0.4816896617412567,0.9572201371192932,1.1214519739151,0.9459615349769592,0.34702247381210327,0.9888342022895813,0.7687022089958191,0.954288899898529,0.4623052179813385,0.9698713421821594,1.1812487840652466,0.8996144533157349,0.3531365692615509,0.9894644021987915,0.8191469311714172,0.7790607810020447,0.5454262495040894,1.0192458629608154,0.8734580874443054,0.9108363389968872,0.35503730177879333,1.0769942998886108,0.4181859791278839,0.8870291709899902
19087.76087569146,0.4063941240310669,0.233273446559906,-0.9911563396453857,0.9999889135360718,0.41331422328948975,0.20962661504745483,-0.9263383746147156,0.9999769926071167,0.42184969782829285,0.20868021249771118,-0.9264398813247681,0.9999738931655884,0.4297880232334137,0.20784738659858704,-0.9264302253723145,0.9999692440032959,0.38174062967300415,0.21074503660202026,-0.9603161811828613,0.9999784231185913,0.3638150990009308,0.21071648597717285,-0.9603652954101562,0.9999759197235107,0.34531670808792114,0.21083277463912964,-0.9604411125183105,0.9999712705612183,0.4224342107772827,0.21485286951065063,-0.5465821623802185,0.9999679327011108,0.29553109407424927,0.2204071283340454,-0.7143778800964355,0.9999779462814331,0.4134156107902527,0.2565394937992096,-0.8497154712677002,0.9999921321868896,0.38156360387802124,0.2580743432044983,-0.8971961140632629,0.999994158744812,0.5013795495033264,0.34986037015914917,-0.3061490058898926,0.9999396800994873,0.13853289186954498,0.3686870336532593,-0.5495148301124573,0.9998244643211365,0.5497159361839294,0.5062417984008789,-0.07352714240550995,0.9818861484527588,0.1164904236793518,0.512094259262085,-0.6838481426239014,0.968589723110199,0.6191792488098145,0.6314598321914673,-0.35255593061447144,0.9825639128684998,0.19913993775844574,0.5778485536575317,-1.1347154378890991,0.9229536056518555,0.6431122422218323,0.674380362033844,-0.44581910967826843,0.9674977660179138,0.2361561357975006,0.5948063731193542,-1.255394458770752,0.900333046913147,0.6277139186859131,0.6746938228607178,-0.5456935167312622,0.9706675410270691,0.25096309185028076,0.5708320140838623,-1.3302973508834839,0.9057741165161133,0.6149773597717285,0.6656537055969238,-0.3978896141052246,0.9707051515579224,0.24168598651885986,0.5613746047019958,-1.172635555267334,0.8956236243247986,0.45913881063461304,0.6269379258155823,0.081293486058712,0.9986024498939514,0.27946311235427856,0.6482105255126953,-0.08082972466945648,0.9988898634910583,0.46627646684646606,0.8245024681091309,0.28917932510375977,0.974521279335022,0.3185799717903137,0.854943037033081,0.0816875621676445,0.9827432632446289,0.48121950030326843,0.957639217376709,1.063132643699646,0.9386575818061829,0.34325700998306274,0.9852918982505798,0.7293598651885986,0.9468944668769836,0.46184101700782776,0.9697296023368835,1.1183059215545654,0.8879989385604858,0.34707000851631165,0.9871252179145813,0.776589572429657,0.7599654197692871,0.5433154106140137,1.0203288793563843,0.8098324537277222,0.899163007736206,0.35767433047294617,1.075225830078125,0.37589359283447266,0.8704326152801514
19104.427542358128,0.40780210494995117,0.23134970664978027,-0.9255772829055786,0.9999849796295166,0.4124310314655304,0.20835623145103455,-0.8603113293647766,0.9999701976776123,0.42032259702682495,0.2072708010673523,-0.8604454398155212,0.9999663829803467,0.42803603410720825,0.20622214674949646,-0.8604836463928223,0.9999613761901855,0.38076186180114746,0.2095765471458435,-0.8946810364723206,0.9999710321426392,0.36332985758781433,0.20941489934921265,-0.8947234153747559,0.9999667406082153,0.34474462270736694,0.20952188968658447,-0.8948063850402832,0.9999604225158691,0.4183746874332428,0.21349674463272095,-0.4882219731807709,0.9999610185623169,0.2936827540397644,0.22022664546966553,-0.6575444340705872,0.9999686479568481,0.41470688581466675,0.2546911835670471,-0.787545382976532,0.9999899864196777,0.38344740867614746,0.25626903772354126,-0.8354588747024536,0.9999921321868896,0.5010061264038086,0.35197141766548157,-0.26554715633392334,0.9999326467514038,0.13777555525302887,0.37105652689933777,-0.5064628720283508,0.9997811913490295,0.5511116981506348,0.5092930793762207,-0.05231238156557083,0.9808210134506226,0.1153833270072937,0.5138192176818848,-0.6495743989944458,0.9596428871154785,0.6237330436706543,0.6344064474105835,-0.34194809198379517,0.9824334383010864,0.2027428150177002,0.5778823494911194,-1.1029714345932007,0.9100085496902466,0.646242618560791,0.6765211820602417,-0.437417596578598,0.9682601690292358,0.23934444785118103,0.5945316553115845,-1.2241129875183105,0.8885970115661621,0.6301618218421936,0.6763783097267151,-0.5364111661911011,0.9714252948760986,0.2561486065387726,0.5700174570083618,-1.2941844463348389,0.8941825032234192,0.6174516677856445,0.6674124598503113,-0.38717004656791687,0.9712303876876831,0.24762989580631256,0.5609986186027527,-1.1393309831619263,0.8822594881057739,0.4606681168079376,0.6319511532783508,0.0842893123626709,0.9983838796615601,0.28052783012390137,0.6539239287376404,-0.08383706957101822,0.9986597299575806,0.4719998836517334,0.8290330171585083,0.27455562353134155,0.9682974815368652,0.3207327425479889,0.8640226125717163,0.07422198355197906,0.9788444638252258,0.4845084249973297,0.9589167833328247,1.0652883052825928,0.9169332385063171,0.3448082506656647,0.9892204999923706,0.7371624708175659,0.9345507621765137,0.46444079279899597,0.9708071947097778,1.1231101751327515,0.8614954948425293,0.3644113540649414,1.0099867582321167,0.7865586876869202,0.7280904054641724,0.549943208694458,1.0198323726654053,0.8263056874275208,0.8726422786712646,0.35899817943573,1.0788077116012573,0.3946908712387085,0.8480646014213562
19121.094209024795,0.40555503964424133,0.23147788643836975,-0.9700408577919006,0.9999829530715942,0.4125043451786041,0.20784983038902283,-0.9051879048347473,0.9999641180038452,0.4219260513782501,0.2070569396018982,-0.9053359627723694,0.9999589920043945,0.43035688996315,0.20642173290252686,-0.9053518176078796,0.9999536275863647,0.3805679678916931,0.20851057767868042,-0.9378415942192078,0.9999665021896362,0.3629069924354553,0.20853546261787415,-0.9378809928894043,0.9999614953994751,0.34500351548194885,0.20873528718948364,-0.9379897117614746,0.9999555349349976,0.42491698265075684,0.21339046955108643,-0.5248276591300964,0.9999492168426514,0.2978127896785736,0.2183559536933899,-0.6850733757019043,0.9999638795852661,0.41267135739326477,0.25475144386291504,-0.828041136264801,0.9999881982803345,0.38089194893836975,0.2554897665977478,-0.8733989596366882,0.9999912977218628,0.5011402368545532,0.3490331768989563,-0.2829592823982239,0.9999264478683472,0.14192241430282593,0.3659210205078125,-0.5156071186065674,0.999772846698761,0.5516617298126221,0.5047672986984253,-0.05639039725065231,0.9820835590362549,0.11645428836345673,0.5120861530303955,-0.6246236562728882,0.9618628621101379,0.6219100952148438,0.6298083066940308,-0.35301685333251953,0.9823668003082275,0.19725969433784485,0.5769564509391785,-1.0611566305160522,0.912309467792511,0.6444542407989502,0.6731690764427185,-0.45210978388786316,0.9672804474830627,0.23628365993499756,0.5980120301246643,-1.1812893152236938,0.8877235054969788,0.6280336380004883,0.6736093163490295,-0.5536803603172302,0.9703962802886963,0.2541738748550415,0.5751228332519531,-1.2581908702850342,0.8937689661979675,0.6153277158737183,0.6640576720237732,-0.3992406129837036,0.9702115058898926,0.24511969089508057,0.5650491714477539,-1.099120855331421,0.8822538256645203,0.4606826603412628,0.6304216384887695,0.0821559801697731,0.9982835054397583,0.2794795036315918,0.6513458490371704,-0.08167269825935364,0.9986097812652588,0.4672826826572418,0.8297837972640991,0.2833823561668396,0.976861298084259,0.317747563123703,0.864511251449585,0.08674466609954834,0.9836481809616089,0.4793964624404907,0.9578862190246582,1.0889827013015747,0.9387152194976807,0.34412798285484314,0.991078794002533,0.756641685962677,0.9488427639007568,0.45951566100120544,0.9694492816925049,1.1474723815917969,0.8850144743919373,0.3484828472137451,0.9928929209709167,0.8064181208610535,0.7602514028549194,0.548994779586792,1.0258255004882812,0.8389021158218384,0.8984241485595703,0.3616950511932373,1.0809310674667358,0.40383991599082947,0.8746564388275146
19137.760875691463,0.40474024415016174,0.23234844207763672,-0.9961597919464111,0.999993085861206,0.4107719361782074,0.20892328023910522,-0.9270079731941223,0.9999861717224121,0.4192204475402832,0.20799899101257324,-0.9271180033683777,0.9999841451644897,0.42717427015304565,0.20712336897850037,-0.9270966053009033,0.9999816417694092,0.3779258131980896,0.20957282185554504,-0.9618903994560242,0.9999865293502808,0.35966309905052185,0.20925888419151306,-0.9619104266166687,0.999984622001648,0.3412175178527832,0.20905205607414246,-0.9619583487510681,0.9999814033508301,0.41914379596710205,0.21383658051490784,-0.5344135165214539,0.999981164932251,0.292833536863327,0.2186414897441864,-0.7062479853630066,0.9999847412109375,0.41214486956596375,0.25550010800361633,-0.8511160612106323,0.999995231628418,0.3802812695503235,0.25660935044288635,-0.8997688293457031,0.9999963045120239,0.5014486908912659,0.3510487377643585,-0.2965722978115082,0.9999557733535767,0.13174208998680115,0.3720513880252838,-0.5375073552131653,0.9998201727867126,0.5485548377037048,0.5078116655349731,-0.06894221156835556,0.9856687784194946,0.11513588577508926,0.5156543254852295,-0.6948210597038269,0.9628316164016724,0.6246548891067505,0.6343695521354675,-0.37979090213775635,0.9878678321838379,0.199839249253273,0.5771719217300415,-1.1979007720947266,0.9215558767318726,0.6476534008979797,0.6766999959945679,-0.4811956584453583,0.9766884446144104,0.23593689501285553,0.5933645963668823,-1.3288078308105469,0.9018067121505737,0.6298858523368835,0.6764145493507385,-0.5837255716323853,0.9791020750999451,0.251129686832428,0.5697459578514099,-1.4022328853607178,0.9075309634208679,0.6164782047271729,0.66707843542099,-0.42674675583839417,0.9785205125808716,0.2411639541387558,0.5599730610847473,-1.2366458177566528,0.8959646821022034,0.45780307054519653,0.6311962008476257,0.08149760961532593,0.9989345669746399,0.2740838825702667,0.6536158919334412,-0.08103703707456589,0.9991241097450256,0.4703603684902191,0.8268400430679321,0.32116514444351196,0.9805876016616821,0.3159935772418976,0.8581880927085876,0.11621616780757904,0.9861933588981628,0.48215746879577637,0.9579734802246094,1.171860694885254,0.9500455856323242,0.34747055172920227,0.9870579242706299,0.8142065405845642,0.9575424194335938,0.4642592966556549,0.969917893409729,1.2352631092071533,0.9049633145332336,0.3552214205265045,0.9886667728424072,0.8671260476112366,0.7989975810050964,0.5534217357635498,1.023836374282837,0.925497829914093,0.9184796810150146,0.3692018687725067,1.076606273651123,0.4656619429588318,0.8942809104919434
19154.42754235813,0.40721023082733154,0.23282700777053833,-0.9315533638000488,0.9999891519546509,0.41211286187171936,0.20968681573867798,-0.8666755557060242,0.99997878074646,0.4201153516769409,0.20864734053611755,-0.8668031096458435,0.9999759197235107,0.4278479218482971,0.20757856965065002,-0.8668396472930908,0.9999723434448242,0.38050684332847595,0.2107188105583191,-0.9027190208435059,0.9999790191650391,0.36330053210258484,0.21036800742149353,-0.9027023315429688,0.9999761581420898,0.3446355164051056,0.21020829677581787,-0.9027648568153381,0.999971866607666,0.41735726594924927,0.21457535028457642,-0.4912046492099762,0.9999748468399048,0.2941255569458008,0.22005638480186462,-0.6653951406478882,0.9999790191650391,0.41415444016456604,0.25610533356666565,-0.7908299565315247,0.9999936819076538,0.3827623426914215,0.2576918303966522,-0.8402155637741089,0.9999949932098389,0.5013836622238159,0.3515806794166565,-0.2637719511985779,0.9999592304229736,0.1323157548904419,0.372338205575943,-0.4976690113544464,0.9997863173484802,0.5509805679321289,0.5060786604881287,-0.024081334471702576,0.9857622385025024,0.11417126655578613,0.5146646499633789,-0.6552485227584839,0.9675846695899963,0.6236346364021301,0.6325519680976868,-0.3134543001651764,0.986745297908783,0.19983164966106415,0.5749427676200867,-1.151831030845642,0.9341216683387756,0.648597240447998,0.6752540469169617,-0.4123193621635437,0.9750919938087463,0.2364007979631424,0.5916411280632019,-1.277375340461731,0.915303647518158,0.6322792768478394,0.6748746633529663,-0.5084419846534729,0.9777765274047852,0.2522915303707123,0.5700644850730896,-1.3501056432724,0.9205912351608276,0.6193602085113525,0.6655982136726379,-0.3577394485473633,0.9775305390357971,0.24272024631500244,0.5605980157852173,-1.189518928527832,0.9101585149765015,0.4576702117919922,0.6322753429412842,0.06062641367316246,0.9990609288215637,0.27567750215530396,0.6551056504249573,-0.06006725877523422,0.9990156888961792,0.4699679911136627,0.8335957527160645,0.20306329429149628,0.9814134836196899,0.3193603754043579,0.8614733815193176,0.12473350018262863,0.9750077724456787,0.4828632175922394,0.9648581147193909,1.0640270709991455,0.9365867972373962,0.34667372703552246,0.9874693751335144,0.8637170195579529,0.92257159948349,0.4696500301361084,0.9726366996765137,1.1287386417388916,0.8646156191825867,0.34903669357299805,0.9875857830047607,0.9224327206611633,0.7181485891342163,0.5445414185523987,1.0342307090759277,0.8108710646629333,0.8820480108261108,0.35921263694763184,1.0732518434524536,0.5327861905097961,0.8270382285118103
19171.0942090248,0.4026179313659668,0.23329314589500427,-0.9419004321098328,0.9999885559082031,0.4091013967990875,0.21028655767440796,-0.8801668882369995,0.999977707862854,0.4181970953941345,0.20937660336494446,-0.8803139925003052,0.999975323677063,0.42645835876464844,0.20850494503974915,-0.8803932070732117,0.9999709129333496,0.37581300735473633,0.21122175455093384,-0.911350429058075,0.99997878074646,0.3568524122238159,0.21129316091537476,-0.9114149212837219,0.9999771118164062,0.33786243200302124,0.21157604455947876,-0.9115343689918518,0.9999738931655884,0.42128491401672363,0.2152237594127655,-0.5122138261795044,0.9999743700027466,0.28965258598327637,0.22168609499931335,-0.6631656289100647,0.9999814033508301,0.4115350544452667,0.25612589716911316,-0.8030664920806885,0.999993085861206,0.37731432914733887,0.2583872377872467,-0.8457642793655396,0.9999947547912598,0.5023453831672668,0.34916815161705017,-0.2714296579360962,0.999941349029541,0.13848938047885895,0.36999377608299255,-0.49612125754356384,0.9997938275337219,0.5496143102645874,0.504849910736084,-0.04048870503902435,0.9828730225563049,0.11986765265464783,0.5146322250366211,-0.6430975198745728,0.9683926105499268,0.6198058128356934,0.6305438280105591,-0.3172716200351715,0.9796863198280334,0.20410127937793732,0.5780000686645508,-1.128645420074463,0.9322119355201721,0.6468542218208313,0.6732308268547058,-0.4092603027820587,0.9638603925704956,0.2379869967699051,0.5951067209243774,-1.2471657991409302,0.9126105904579163,0.6319249272346497,0.6728044748306274,-0.5034568309783936,0.9675149321556091,0.2502288520336151,0.5693413019180298,-1.322731614112854,0.9184043407440186,0.6190410852432251,0.6637084484100342,-0.36035341024398804,0.968045175075531,0.24146872758865356,0.5594378709793091,-1.1666176319122314,0.9091833233833313,0.4582598805427551,0.6246387958526611,0.05840705707669258,0.9982022047042847,0.2771974802017212,0.6471738815307617,-0.05782245472073555,0.998310923576355,0.46772947907447815,0.8327236771583557,0.14023716747760773,0.972732424736023,0.31744664907455444,0.8614698648452759,0.048673365265131,0.9636231064796448,0.4811086058616638,0.9644195437431335,0.895796537399292,0.9095045924186707,0.34749922156333923,0.9865261316299438,0.6870043277740479,0.8864363431930542,0.4678005278110504,0.9717601537704468,0.9486246705055237,0.8151889443397522,0.34954312443733215,0.9872366189956665,0.7340890169143677,0.6286613345146179,0.5289008617401123,1.0247852802276611,0.6245579719543457,0.8312275409698486,0.3604776859283447,1.0824867486953735,0.3306407034397125,0.7546777129173279
19187.760875691467,0.40236055850982666,0.23391538858413696,-0.9644331932067871,0.9999898672103882,0.4099092483520508,0.21087193489074707,-0.8979342579841614,0.9999798536300659,0.4195045232772827,0.21014052629470825,-0.8980579376220703,0.9999768733978271,0.4278215169906616,0.20944437384605408,-0.8980809450149536,0.9999727010726929,0.3764617145061493,0.2114849090576172,-0.9322546124458313,0.999980092048645,0.3577612638473511,0.21145597100257874,-0.9322987794876099,0.9999774694442749,0.33877602219581604,0.21158969402313232,-0.9323740601539612,0.999972939491272,0.42305871844291687,0.2156362235546112,-0.5099287629127502,0.9999738931655884,0.29056406021118164,0.22074899077415466,-0.6794134974479675,0.9999793767929077,0.4116368591785431,0.2571060061454773,-0.8195894956588745,0.9999933242797852,0.377712607383728,0.25826603174209595,-0.8675415515899658,0.9999946355819702,0.5003147125244141,0.3498312830924988,-0.2670850157737732,0.9999507665634155,0.1334526240825653,0.37206414341926575,-0.5113645792007446,0.9998036026954651,0.5488369464874268,0.5052202939987183,-0.025860073044896126,0.9826032519340515,0.12135292589664459,0.517414927482605,-0.6787512302398682,0.961670994758606,0.6243348717689514,0.6336565613746643,-0.30938273668289185,0.9846386313438416,0.19886897504329681,0.574860155582428,-1.1934990882873535,0.9236854910850525,0.6470468044281006,0.6759446263313293,-0.4013633728027344,0.9720693826675415,0.2303563356399536,0.591326892375946,-1.3204189538955688,0.9067232012748718,0.6321423053741455,0.675904393196106,-0.5015715956687927,0.9748631715774536,0.24325253069400787,0.5664714574813843,-1.3954145908355713,0.9123457074165344,0.620093584060669,0.666999876499176,-0.3543912470340729,0.9747560024261475,0.23469096422195435,0.5565842986106873,-1.232720136642456,0.9014303684234619,0.4611333906650543,0.6318441033363342,0.07719840109348297,0.9989315867424011,0.27711671590805054,0.654732346534729,-0.07672325521707535,0.9989662170410156,0.468691885471344,0.8276210427284241,0.21516136825084686,0.9747833013534546,0.31882432103157043,0.8685331344604492,0.07711947709321976,0.9769744277000427,0.48221537470817566,0.9628503918647766,1.0374289751052856,0.9318896532058716,0.3476107716560364,0.9894951581954956,0.7846755981445312,0.9351511597633362,0.4610108435153961,0.9759200215339661,1.097490668296814,0.8782129883766174,0.35316869616508484,0.9933302998542786,0.8380399942398071,0.7307736873626709,0.5427771210670471,1.0264726877212524,0.7840551137924194,0.8884639143943787,0.3555179536342621,1.0838106870651245,0.4353902339935303,0.851212203502655
19204.427542358135,0.406148761510849,0.23268002271652222,-0.9150227904319763,0.999984622001648,0.41150152683258057,0.21016404032707214,-0.8484460711479187,0.9999706745147705,0.41976043581962585,0.20918557047843933,-0.8486199378967285,0.9999669790267944,0.42774441838264465,0.20816358923912048,-0.848704993724823,0.9999629259109497,0.3790348768234253,0.2110997438430786,-0.885800302028656,0.9999711513519287,0.3613660931587219,0.2109537124633789,-0.8858785033226013,0.9999669790267944,0.34300053119659424,0.21101969480514526,-0.8860031962394714,0.999961256980896,0.4194096326828003,0.21510985493659973,-0.463910847902298,0.9999642372131348,0.2926099896430969,0.22143858671188354,-0.6458231210708618,0.9999701976776123,0.41402915120124817,0.25584426522254944,-0.7711433172225952,0.9999908208847046,0.3818854093551636,0.2573145627975464,-0.8227949738502502,0.9999927282333374,0.49871790409088135,0.3520916998386383,-0.21698683500289917,0.9999395608901978,0.1367885321378708,0.37184327840805054,-0.4962356388568878,0.999769389629364,0.5493425130844116,0.5064846873283386,0.006777539849281311,0.9815191030502319,0.11464116722345352,0.5162460207939148,-0.653275191783905,0.9637447595596313,0.6188467144966125,0.6297096014022827,-0.28766804933547974,0.9830491542816162,0.1999044567346573,0.579657793045044,-1.1397100687026978,0.9102258682250977,0.642366886138916,0.6732072830200195,-0.383004367351532,0.9690235257148743,0.23825770616531372,0.5959718823432922,-1.263262391090393,0.8885498642921448,0.626818835735321,0.6736289858818054,-0.4802370071411133,0.9720342755317688,0.252494215965271,0.5723667740821838,-1.3355443477630615,0.8939651846885681,0.6144441366195679,0.6643626689910889,-0.3317262530326843,0.9711451530456543,0.24270027875900269,0.5630636811256409,-1.1762964725494385,0.8798633217811584,0.4568813145160675,0.6354806423187256,0.09404385834932327,0.9980927109718323,0.27647966146469116,0.6557173728942871,-0.09353092312812805,0.9982763528823853,0.4674251973628998,0.8352669477462769,0.19616781175136566,0.9559835195541382,0.31895849108695984,0.8730737566947937,0.010375527665019035,0.9629508852958679,0.48327726125717163,0.9643417000770569,0.9746370911598206,0.8811447620391846,0.345883309841156,0.9948030710220337,0.6667349338531494,0.8916628360748291,0.46228256821632385,0.9756530523300171,1.0311365127563477,0.8288874626159668,0.3474169373512268,0.9962984323501587,0.7140868902206421,0.6336807608604431,0.54623943567276,1.023831844329834,0.7222757339477539,0.8302717804908752,0.37404942512512207,1.0944476127624512,0.2975049912929535,0.772905170917511
19221.094209024803,0.4071810245513916,0.23229432106018066,-0.8958179950714111,0.999974250793457,0.4126858711242676,0.20956751704216003,-0.8309080004692078,0.9999518394470215,0.42098093032836914,0.20858296751976013,-0.8311032652854919,0.9999455213546753,0.4288690984249115,0.20757287740707397,-0.8312072157859802,0.9999415874481201,0.3809075355529785,0.21071627736091614,-0.8665194511413574,0.9999517202377319,0.3633597791194916,0.21071141958236694,-0.8665467500686646,0.9999426603317261,0.34494146704673767,0.21083703637123108,-0.8666618466377258,0.9999339580535889,0.42045319080352783,0.2149304747581482,-0.4578206539154053,0.9999406337738037,0.2940555810928345,0.22124525904655457,-0.6311111450195312,0.9999477863311768,0.4146043062210083,0.2557171881198883,-0.7561489343643188,0.999984860420227,0.38253721594810486,0.25726649165153503,-0.8053444027900696,0.9999877214431763,0.4992530643939972,0.351107120513916,-0.2343006134033203,0.9999247789382935,0.13987956941127777,0.369637131690979,-0.468895822763443,0.9996500015258789,0.5490280389785767,0.5062447786331177,-0.017667656764388084,0.9798488020896912,0.11199381202459335,0.5149142742156982,-0.5972393155097961,0.9455060362815857,0.6209313869476318,0.6316843032836914,-0.31202271580696106,0.9795823097229004,0.20162832736968994,0.5764656066894531,-1.045396327972412,0.870812177658081,0.6448713541030884,0.6740846037864685,-0.4120379686355591,0.9637399315834045,0.24526232481002808,0.5932096242904663,-1.163177490234375,0.8453593254089355,0.6286221146583557,0.6744330525398254,-0.5095552802085876,0.9673753380775452,0.2599868178367615,0.5722750425338745,-1.2365401983261108,0.8527250289916992,0.6153581142425537,0.6647226810455322,-0.3567292392253876,0.9669398069381714,0.24940229952335358,0.5627975463867188,-1.0820461511611938,0.8364818692207336,0.45656535029411316,0.6354376077651978,0.07819681614637375,0.998365581035614,0.27654993534088135,0.6545239686965942,-0.07771725952625275,0.9983933568000793,0.46731603145599365,0.8402354717254639,0.21027374267578125,0.9674733281135559,0.3172993063926697,0.8681797385215759,0.05626896023750305,0.9710144996643066,0.4794863760471344,0.9674997925758362,1.0076472759246826,0.911899209022522,0.3416024446487427,0.9910764098167419,0.7192809581756592,0.9180569052696228,0.4597327709197998,0.9767024517059326,1.0655285120010376,0.8495903015136719,0.3424777388572693,0.9931355714797974,0.7682800889015198,0.6922299265861511,0.5447506904602051,1.0346050262451172,0.7558258771896362,0.8584895730018616,0.3539467453956604,1.081158995628357,0.37027621269226074,0.8225430250167847
19237.76087569147,0.40823790431022644,0.2330496907234192,-0.8920300006866455,0.9999874830245972,0.4126737713813782,0.2102465033531189,-0.8284563422203064,0.9999758005142212,0.42058414220809937,0.20917749404907227,-0.828598141670227,0.9999721050262451,0.42806515097618103,0.20810559391975403,-0.8286658525466919,0.9999680519104004,0.3811562657356262,0.21145877242088318,-0.868515133857727,0.9999772310256958,0.36445772647857666,0.2113167643547058,-0.8685886859893799,0.9999741315841675,0.3457181751728058,0.2114822268486023,-0.8687023520469666,0.999969482421875,0.4182242751121521,0.2150048315525055,-0.45452046394348145,0.9999697208404541,0.29446572065353394,0.2219618260860443,-0.6508105993270874,0.9999768733978271,0.41584983468055725,0.2554251253604889,-0.7511633038520813,0.9999921321868896,0.38476407527923584,0.2573329210281372,-0.8068792223930359,0.9999940395355225,0.4994530975818634,0.35026028752326965,-0.2160157859325409,0.9999427795410156,0.13604556024074554,0.3710014820098877,-0.5016792416572571,0.9998125433921814,0.5484475493431091,0.5061274170875549,0.019472448155283928,0.9821663498878479,0.11656370759010315,0.5136839747428894,-0.6687251925468445,0.9634242057800293,0.6234407424926758,0.6330526471138,-0.25686293840408325,0.984636664390564,0.19980691373348236,0.5772156715393066,-1.146398901939392,0.9194634556770325,0.6463884711265564,0.6757635474205017,-0.3463500142097473,0.9718400835990906,0.2344476282596588,0.5944185256958008,-1.266025185585022,0.9018606543540955,0.6300643086433411,0.6756309270858765,-0.44456586241722107,0.9747229218482971,0.24942460656166077,0.5699145793914795,-1.3373894691467285,0.9068596959114075,0.617977499961853,0.6662737727165222,-0.3009047210216522,0.9744660258293152,0.24025197327136993,0.5602072477340698,-1.1822501420974731,0.8932698965072632,0.46107521653175354,0.6328592896461487,0.09131181240081787,0.9983592629432678,0.2790338695049286,0.6539472341537476,-0.09086331725120544,0.9986565113067627,0.4679539203643799,0.8380179405212402,0.2213146835565567,0.960197389125824,0.31344762444496155,0.8686784505844116,0.0038321681786328554,0.9688950181007385,0.4836730360984802,0.9614934921264648,1.0112982988357544,0.8942899703979492,0.34191715717315674,0.9931355714797974,0.626911461353302,0.9137817621231079,0.46255120635032654,0.9728865027427673,1.0699577331542969,0.8551393151283264,0.34223270416259766,0.9950225949287415,0.6718851327896118,0.6842972636222839,0.5446112751960754,1.0234049558639526,0.7806568145751953,0.8472186326980591,0.36492645740509033,1.092112421989441,0.26844322681427,0.8065708875656128
19254.42754235814,0.40643206238746643,0.23251041769981384,-0.9300808310508728,0.9999892711639404,0.4109265208244324,0.20945781469345093,-0.8659021258354187,0.9999783039093018,0.41907405853271484,0.20835483074188232,-0.8660309314727783,0.9999747276306152,0.42702874541282654,0.2073826789855957,-0.866072416305542,0.9999709129333496,0.37881240248680115,0.21046006679534912,-0.9025909304618835,0.9999803304672241,0.3617207109928131,0.2102220058441162,-0.90267413854599,0.9999775886535645,0.34415048360824585,0.21037501096725464,-0.9028035402297974,0.9999744892120361,0.41883060336112976,0.21461817622184753,-0.4883485734462738,0.9999703168869019,0.29471874237060547,0.22066062688827515,-0.668677031993866,0.9999799728393555,0.4150383770465851,0.25478750467300415,-0.788361668586731,0.9999929666519165,0.38355809450149536,0.25641247630119324,-0.8395773768424988,0.9999951124191284,0.4986431300640106,0.35001686215400696,-0.24811995029449463,0.9999431371688843,0.1364780068397522,0.3681519329547882,-0.5085366368293762,0.9998446702957153,0.548548698425293,0.5058478116989136,-0.025780146941542625,0.9835516810417175,0.11671990901231766,0.5130416750907898,-0.6563426852226257,0.969767153263092,0.6218463182449341,0.6316363215446472,-0.31942930817604065,0.9846028089523315,0.1998327523469925,0.580005407333374,-1.1228584051132202,0.9288952946662903,0.6451549530029297,0.6740347743034363,-0.41383183002471924,0.9709897637367249,0.23670239746570587,0.5971437096595764,-1.2410653829574585,0.9081079363822937,0.6283797025680542,0.6740071177482605,-0.5110499858856201,0.9737918376922607,0.2527933120727539,0.5731387138366699,-1.3158830404281616,0.9129219651222229,0.6155834197998047,0.6648675799369812,-0.3637525737285614,0.973301112651825,0.24347621202468872,0.5637798309326172,-1.1595823764801025,0.9016271233558655,0.45877259969711304,0.6287493705749512,0.08188626915216446,0.9980207681655884,0.27806058526039124,0.6510651707649231,-0.08141206204891205,0.9984517097473145,0.4690164625644684,0.8293340802192688,0.19524633884429932,0.9650871753692627,0.3187676668167114,0.8687328100204468,0.011649467051029205,0.9700312614440918,0.4819437265396118,0.9594655632972717,0.9511576294898987,0.902934193611145,0.34553971886634827,0.9925520420074463,0.6343727111816406,0.9150727987289429,0.46035441756248474,0.9715461134910583,1.0052099227905273,0.846672534942627,0.348550021648407,0.9948800802230835,0.6783329248428345,0.6742329001426697,0.5447940826416016,1.0179131031036377,0.7013002634048462,0.8549379110336304,0.36519673466682434,1.0891203880310059,0.26697325706481934,0.8107044100761414
19271.094209024806,0.40900304913520813,0.23272868990898132,-0.9513980746269226,0.9999836683273315,0.4139183759689331,0.20951202511787415,-0.8862853050231934,0.9999687671661377,0.4220592975616455,0.20831304788589478,-0.8864551186561584,0.9999643564224243,0.42960554361343384,0.20711573958396912,-0.8865199089050293,0.9999603033065796,0.38191351294517517,0.2111714780330658,-0.9202315807342529,0.999969482421875,0.3646906614303589,0.21121332049369812,-0.9202585816383362,0.9999641180038452,0.34590137004852295,0.21139872074127197,-0.9203584790229797,0.9999579191207886,0.42003145813941956,0.21435055136680603,-0.5070348978042603,0.9999617338180542,0.29484954476356506,0.22132444381713867,-0.6724622845649719,0.9999679327011108,0.4167417287826538,0.25539255142211914,-0.8096360564231873,0.9999901056289673,0.38515686988830566,0.257316529750824,-0.8565475344657898,0.9999921321868896,0.5024014711380005,0.3509352207183838,-0.27272307872772217,0.9999364614486694,0.14127331972122192,0.3689159154891968,-0.504943311214447,0.9997413754463196,0.5493178367614746,0.505095362663269,-0.049937713891267776,0.9811438322067261,0.11535912752151489,0.5141257047653198,-0.641326367855072,0.9529595971107483,0.6208779811859131,0.630980908870697,-0.3466721475124359,0.9812467694282532,0.20092540979385376,0.575888991355896,-1.1100704669952393,0.8932592272758484,0.6471534967422485,0.6754356622695923,-0.44528713822364807,0.966600775718689,0.2420738935470581,0.5924220681190491,-1.232420802116394,0.8698311448097229,0.6313485503196716,0.6751976013183594,-0.5456969738006592,0.9700450301170349,0.2561967670917511,0.5702985525131226,-1.306910514831543,0.8767865300178528,0.6184481978416443,0.6655285954475403,-0.39247480034828186,0.9697061777114868,0.24613170325756073,0.5608628988265991,-1.1481502056121826,0.8626055717468262,0.4582706689834595,0.6336991190910339,0.07773457467556,0.9984411597251892,0.27959150075912476,0.6541227698326111,-0.07723154872655869,0.9985766410827637,0.4689015746116638,0.8329411745071411,0.25932031869888306,0.9718078970909119,0.3189501166343689,0.8652766942977905,0.08964936435222626,0.9778152108192444,0.480232834815979,0.9632738828659058,1.0589271783828735,0.9234855771064758,0.34808236360549927,0.9899077415466309,0.7605292797088623,0.932936429977417,0.46237826347351074,0.9726690053939819,1.1168665885925293,0.8650541305541992,0.35010361671447754,0.992302656173706,0.8106712698936462,0.7365197539329529,0.5457273125648499,1.0279135704040527,0.8078634142875671,0.8758669495582581,0.35875946283340454,1.0759731531143188,0.4161500334739685,0.8467751741409302
19287.760875691474,0.4059653878211975,0.2333311140537262,-0.9331221580505371,0.9999865293502808,0.4135732054710388,0.210191011428833,-0.8662081360816956,0.9999750852584839,0.4222501516342163,0.2094888985157013,-0.8663903474807739,0.9999719858169556,0.4297367036342621,0.20870760083198547,-0.8664903044700623,0.9999680519104004,0.3808916211128235,0.21080347895622253,-0.9028615355491638,0.999975323677063,0.3626704216003418,0.210662841796875,-0.9029131531715393,0.9999723434448242,0.34318608045578003,0.2107371985912323,-0.9030252695083618,0.9999679327011108,0.4217645823955536,0.21478408575057983,-0.47973310947418213,0.9999717473983765,0.29343849420547485,0.21953213214874268,-0.655683696269989,0.999976396560669,0.4130095839500427,0.25601717829704285,-0.7878851890563965,0.9999926090240479,0.38000184297561646,0.2577793300151825,-0.8377957344055176,0.9999940395355225,0.5020370483398438,0.34905296564102173,-0.23799444735050201,0.9999488592147827,0.13466505706310272,0.3724995255470276,-0.4844532907009125,0.9997264742851257,0.5514767169952393,0.5038512945175171,-0.0022794432006776333,0.983885645866394,0.12021832913160324,0.5194063186645508,-0.6351512670516968,0.9609114527702332,0.6209113597869873,0.6312465071678162,-0.3072678744792938,0.9830500483512878,0.20372986793518066,0.5808431506156921,-1.1460199356079102,0.9216804504394531,0.6470483541488647,0.675506591796875,-0.40755733847618103,0.9693546295166016,0.2412288784980774,0.5979306697845459,-1.2718455791473389,0.9034451246261597,0.631161093711853,0.6748610734939575,-0.504072904586792,0.9725961685180664,0.25500723719596863,0.5745764970779419,-1.348842740058899,0.909716010093689,0.6182538270950317,0.665295422077179,-0.35170671343803406,0.972274661064148,0.24529248476028442,0.5646927952766418,-1.1849136352539062,0.8974514603614807,0.45648741722106934,0.6302425265312195,0.06871595233678818,0.9985266923904419,0.27443259954452515,0.6520929932594299,-0.06813237816095352,0.9984436631202698,0.4696449041366577,0.8350496292114258,0.1489909440279007,0.9694887399673462,0.3180409371852875,0.8671189546585083,0.05870399996638298,0.9574726223945618,0.4806593954563141,0.9636346697807312,0.9894195199012756,0.896369457244873,0.34881365299224854,0.9893477559089661,0.773421049118042,0.8781141042709351,0.46430566906929016,0.9693529009819031,1.0515859127044678,0.8175311088562012,0.3493921756744385,0.9883092641830444,0.828313946723938,0.6287409067153931,0.5382381081581116,1.0386931896209717,0.7288240790367126,0.8271065950393677,0.36600175499916077,1.0845777988433838,0.41859933733940125,0.7532392144203186
19304.427542358142,0.40294891595840454,0.2371860295534134,-0.9647354483604431,0.9999891519546509,0.41128209233283997,0.21203723549842834,-0.9023206830024719,0.9999779462814331,0.4202159643173218,0.21106228232383728,-0.9024436473846436,0.9999747276306152,0.4279712438583374,0.21046030521392822,-0.9024670124053955,0.9999706745147705,0.37955859303474426,0.2129552960395813,-0.936111330986023,0.9999791383743286,0.36166930198669434,0.21275654435157776,-0.9361228942871094,0.9999765157699585,0.34301045536994934,0.21315550804138184,-0.9361461997032166,0.9999721050262451,0.4200916886329651,0.21657443046569824,-0.5324560403823853,0.9999700784683228,0.2929356098175049,0.2220999300479889,-0.698089063167572,0.9999790191650391,0.4101696014404297,0.2595241665840149,-0.8259429931640625,0.9999921321868896,0.377963662147522,0.2610887289047241,-0.8726722598075867,0.999994158744812,0.5019162893295288,0.3486693799495697,-0.3013536036014557,0.9999440908432007,0.13581231236457825,0.37133491039276123,-0.5397384166717529,0.9998193383216858,0.5511018633842468,0.5055758357048035,-0.07189314812421799,0.9802027940750122,0.12332553416490555,0.5165233612060547,-0.6740739345550537,0.9675289988517761,0.6199990510940552,0.6318322420120239,-0.346156507730484,0.9809970855712891,0.20225022733211517,0.5785213112831116,-1.1155450344085693,0.9274711012840271,0.6439211368560791,0.6742010712623596,-0.4392069876194,0.9660047888755798,0.24148643016815186,0.595342218875885,-1.2360632419586182,0.907476544380188,0.6287585496902466,0.6746399402618408,-0.5364850163459778,0.969353199005127,0.2541964054107666,0.5712385177612305,-1.30623459815979,0.9126056432723999,0.6164627075195312,0.6653448939323425,-0.39067167043685913,0.9696686267852783,0.24425055086612701,0.5613352060317993,-1.151749610900879,0.9017243385314941,0.4553682506084442,0.6280654668807983,0.0811886116862297,0.9988441467285156,0.2766427993774414,0.6490182876586914,-0.08077475428581238,0.9989359974861145,0.4683521091938019,0.8284198045730591,0.32303786277770996,0.9689791798591614,0.3196903169155121,0.8556098341941833,0.12881022691726685,0.9815315008163452,0.4805590510368347,0.9624500274658203,1.0741002559661865,0.9308620095252991,0.3442053496837616,0.9865655899047852,0.7701773047447205,0.9440950155258179,0.46072903275489807,0.9724214673042297,1.1286191940307617,0.8862594366073608,0.34294241666793823,0.9884603023529053,0.8190139532089233,0.7814201712608337,0.5496820211410522,1.0193618535995483,0.8383138179779053,0.8910366892814636,0.36436977982521057,1.0686745643615723,0.44644099473953247,0.8673288822174072
19321.09420902481,0.40179288387298584,0.2376174032688141,-0.9239426851272583,0.9999843835830688,0.41059431433677673,0.21252575516700745,-0.8606187701225281,0.9999680519104004,0.4195305109024048,0.21155661344528198,-0.8607892394065857,0.9999655485153198,0.4274729788303375,0.2109343707561493,-0.8608730435371399,0.99996018409729,0.3788490295410156,0.21358275413513184,-0.8933094143867493,0.9999672174453735,0.36117351055145264,0.21350368857383728,-0.8933106660842896,0.9999631643295288,0.3429562747478485,0.2140083611011505,-0.893367350101471,0.999955415725708,0.41941165924072266,0.2167607545852661,-0.4866284728050232,0.9999604225158691,0.29432469606399536,0.22261154651641846,-0.6463096141815186,0.9999669790267944,0.40912067890167236,0.25995516777038574,-0.783185601234436,0.9999898672103882,0.3768557608127594,0.26135262846946716,-0.8283202648162842,0.9999916553497314,0.5026732683181763,0.34844470024108887,-0.25783872604370117,0.9999536275863647,0.1404736340045929,0.36687275767326355,-0.48125046491622925,0.9997647404670715,0.5509222149848938,0.504601001739502,-0.035254593938589096,0.9824122786521912,0.12333709001541138,0.5108523368835449,-0.5984923243522644,0.9620825052261353,0.6193385124206543,0.6303256154060364,-0.3199335038661957,0.9803200960159302,0.20440635085105896,0.5804014801979065,-1.035453200340271,0.9019754528999329,0.6447756290435791,0.6745688915252686,-0.41779279708862305,0.9645410776138306,0.23927053809165955,0.6019270420074463,-1.1535818576812744,0.8757181167602539,0.6287559270858765,0.674473226070404,-0.513688862323761,0.9681556820869446,0.255583792924881,0.578240156173706,-1.2283273935317993,0.882530689239502,0.6156195998191833,0.665126383304596,-0.3641270697116852,0.9680965542793274,0.24700739979743958,0.5676896572113037,-1.0730005502700806,0.8719911575317383,0.45564526319503784,0.6300598978996277,0.07116057723760605,0.9986435770988464,0.27645453810691833,0.6518665552139282,-0.07055512815713882,0.9985209107398987,0.4681323766708374,0.8295717239379883,0.20016859471797943,0.9652780294418335,0.32074815034866333,0.8594517707824707,0.08266320824623108,0.9673521518707275,0.48279646039009094,0.9658587574958801,0.9514274597167969,0.9026092290878296,0.34478574991226196,0.9872004985809326,0.7526862025260925,0.8977773189544678,0.4671044647693634,0.9750187397003174,1.004652500152588,0.8242813348770142,0.34498533606529236,0.9883337020874023,0.8031319379806519,0.6585627794265747,0.5454369783401489,1.024032473564148,0.6893491148948669,0.8353459239006042,0.35574808716773987,1.073183298110962,0.413267582654953,0.7835637927055359
