0,1,2,3,4
18823.661088429486,1.1716111898422241,1.189745545387268,1.6215699911117554,1.3429160118103027
18823.66308849181,1.1727445125579834,1.190069317817688,1.6222176551818848,1.3427541255950928
18823.665088554135,1.1722588539123535,1.189907431602478,1.6236748695373535,1.3422683477401733
18823.66708861646,1.1714491844177246,1.1894216537475586,1.6246464252471924,1.3427541255950928
18823.669088678787,1.171934962272644,1.1895835399627686,1.624322533607483,1.3425922393798828
18823.671088741114,1.1722588539123535,1.189745545387268,1.623189091682434,1.343725562095642
18823.67308880344,1.1716111898422241,1.190231204032898,1.6233510971069336,1.3429160118103027
18823.675088865766,1.1724207401275635,1.189907431602478,1.6236748695373535,1.3429160118103027
18823.677088928092,1.1735540628433228,1.190069317817688,1.6251320838928223,1.3438875675201416
18823.67908899042,1.1738779544830322,1.1910407543182373,1.6248083114624023,1.344535231590271
18823.681089052745,1.1735540628433228,1.189745545387268,1.6252940893173218,1.3430780172348022
18823.68308911507,1.1745256185531616,1.1889358758926392,1.6256178617477417,1.3425922393798828
18823.685089177397,1.1738779544830322,1.1887739896774292,1.6259416341781616,1.3421064615249634
18823.687089239724,1.171934962272644,1.1890978813171387,1.6259416341781616,1.3417826890945435
18823.68908930205,1.1724207401275635,1.189907431602478,1.6248083114624023,1.3421064615249634
18823.691089364376,1.1729063987731934,1.190069317817688,1.6249701976776123,1.3422683477401733
18823.693089426702,1.1730684041976929,1.1892597675323486,1.6252940893173218,1.341135025024414
18823.69508948903,1.1740398406982422,1.1894216537475586,1.6256178617477417,1.340973138809204
18823.697089551355,1.175173282623291,1.189907431602478,1.626265525817871,1.3417826890945435
18823.69908961368,1.1748493909835815,1.190069317817688,1.6261036396026611,1.340973138809204
18823.701089676004,1.175658941268921,1.190069317817688,1.6259416341781616,1.341296911239624
18823.70308973833,1.1758209466934204,1.189745545387268,1.6256178617477417,1.3421064615249634
18823.705089800656,1.1746875047683716,1.189745545387268,1.6261036396026611,1.3417826890945435
18823.707089862983,1.1735540628433228,1.1895835399627686,1.626427412033081,1.3427541255950928
18823.70908992531,1.1740398406982422,1.1892597675323486,1.626589298248291,1.341296911239624
18823.711089987635,1.1738779544830322,1.1889358758926392,1.626265525817871,1.341296911239624
18823.71309004996,1.1737160682678223,1.1890978813171387,1.6267513036727905,1.341135025024414
18823.715090112288,1.1740398406982422,1.1894216537475586,1.6257797479629517,1.341620683670044
18823.717090174614,1.1742017269134521,1.1894216537475586,1.6254559755325317,1.3408111333847046
18823.71909023694,1.1738779544830322,1.1890978813171387,1.6257797479629517,1.341458797454834
18823.721090299267,1.1733921766281128,1.1887739896774292,1.6259416341781616,1.341135025024414
18823.723090361593,1.1737160682678223,1.1884502172470093,1.6251320838928223,1.3408111333847046
18823.72509042392,1.1727445125579834,1.1878025531768799,1.6252940893173218,1.3404873609542847
18823.727090486245,1.1711254119873047,1.1879644393920898,1.6244844198226929,1.3396778106689453
18823.72909054857,1.1711254119873047,1.1882882118225098,1.623998761177063,1.3388681411743164
18823.731090610898,1.1709635257720947,1.1881263256072998,1.6246464252471924,1.3400015830993652
18823.733090673224,1.1711254119873047,1.1887739896774292,1.6251320838928223,1.3396778106689453
18823.73509073555,1.1711254119873047,1.1878025531768799,1.624160647392273,1.3403254747390747
18823.737090797877,1.1711254119873047,1.1874786615371704,1.623189091682434,1.3406492471694946
18823.739090860203,1.1714491844177246,1.18764066696167,1.6230272054672241,1.3398396968841553
18823.741090922525,1.1712872982025146,1.1874786615371704,1.6228653192520142,1.3400015830993652
18823.74309098485,1.171934962272644,1.1886121034622192,1.6233510971069336,1.3403254747390747
18823.745091047178,1.1709635257720947,1.18764066696167,1.6235129833221436,1.3388681411743164
18823.747091109504,1.1690205335617065,1.1881263256072998,1.623189091682434,1.3382205963134766
18823.74909117183,1.1703158617019653,1.1881263256072998,1.6233510971069336,1.339030146598816
18823.751091234157,1.1708015203475952,1.1881263256072998,1.6233510971069336,1.3396778106689453
18823.753091296483,1.1704777479171753,1.18764066696167,1.6223795413970947,1.3388681411743164
18823.75509135881,1.1709635257720947,1.18764066696167,1.6228653192520142,1.3387062549591064
18823.757091421136,1.172096848487854,1.1879644393920898,1.623998761177063,1.339030146598816
18823.75909148346,1.171934962272644,1.18764066696167,1.6235129833221436,1.3395158052444458
18823.761091545788,1.172096848487854,1.1879644393920898,1.624160647392273,1.3404873609542847
18823.763091608114,1.1732302904129028,1.1882882118225098,1.6248083114624023,1.3408111333847046
18823.76509167044,1.1725826263427734,1.1884502172470093,1.6244844198226929,1.3396778106689453
18823.767091732767,1.171773076057434,1.1886121034622192,1.624160647392273,1.339030146598816
18823.769091795093,1.172096848487854,1.1884502172470093,1.624160647392273,1.3388681411743164
18823.77109185742,1.1725826263427734,1.1873167753219604,1.6246464252471924,1.3388681411743164
18823.773091919746,1.1722588539123535,1.18764066696167,1.6254559755325317,1.3391920328140259
18823.775091982072,1.1730684041976929,1.1884502172470093,1.6259416341781616,1.3393539190292358
18823.777092044398,1.1740398406982422,1.1882882118225098,1.6256178617477417,1.3406492471694946
18823.77909210672,1.1740398406982422,1.1879644393920898,1.626589298248291,1.341296911239624
18823.781092169047,1.1740398406982422,1.1884502172470093,1.6272369623184204,1.3401634693145752
18823.783092231373,1.175173282623291,1.1889358758926392,1.6272369623184204,1.3404873609542847
18823.7850922937,1.1750112771987915,1.1884502172470093,1.6278846263885498,1.3396778106689453
18823.787092356026,1.1748493909835815,1.1886121034622192,1.62739896774292,1.3398396968841553
18823.789092418352,1.175335168838501,1.1895835399627686,1.6275608539581299,1.3403254747390747
18823.79109248068,1.175173282623291,1.1892597675323486,1.6275608539581299,1.3406492471694946
18823.793092543005,1.1740398406982422,1.1892597675323486,1.6285322904586792,1.3400015830993652
18823.79509260533,1.1737160682678223,1.1894216537475586,1.6282085180282593,1.3406492471694946
18823.797092667657,1.1758209466934204,1.1892597675323486,1.6278846263885498,1.341135025024414
18823.799092729983,1.175497055053711,1.1886121034622192,1.6286941766738892,1.3408111333847046
18823.80109279231,1.1748493909835815,1.1881263256072998,1.6283704042434692,1.3404873609542847
18823.803092854636,1.175658941268921,1.1881263256072998,1.6283704042434692,1.3408111333847046
18823.805092916962,1.1748493909835815,1.1882882118225098,1.6285322904586792,1.3403254747390747
18823.80709297929,1.1745256185531616,1.1884502172470093,1.6282085180282593,1.3408111333847046
18823.809093041615,1.1748493909835815,1.1882882118225098,1.6275608539581299,1.3395158052444458
18823.81109310394,1.175658941268921,1.1873167753219604,1.62739896774292,1.3391920328140259
18823.813093166267,1.1742017269134521,1.18764066696167,1.6275608539581299,1.339030146598816
18823.815093228593,1.1748493909835815,1.1889358758926392,1.62739896774292,1.3391920328140259
18823.81709329092,1.1761447191238403,1.1882882118225098,1.62739896774292,1.339030146598816
18823.819093353246,1.1759828329086304,1.1874786615371704,1.626589298248291,1.3396778106689453
18823.82109341557,1.1761447191238403,1.1869930028915405,1.6270750761032104,1.3396778106689453
18823.823093477895,1.1772781610488892,1.186507225036621,1.62739896774292,1.3393539190292358
18823.82509354022,1.175497055053711,1.1871548891067505,1.6272369623184204,1.339030146598816
18823.827093602547,1.1745256185531616,1.1871548891067505,1.6267513036727905,1.3391920328140259
18823.829093664874,1.1746875047683716,1.1860214471817017,1.6270750761032104,1.3393539190292358
18823.8310937272,1.175173282623291,1.1858595609664917,1.6272369623184204,1.3385443687438965
18823.833093789526,1.1738779544830322,1.186830997467041,1.6275608539581299,1.337896704673767
18823.835093851852,1.1737160682678223,1.1869930028915405,1.626427412033081,1.3377348184585571
18823.83709391418,1.1750112771987915,1.1861833333969116,1.6269131898880005,1.3382205963134766
18823.839093976505,1.175173282623291,1.186669111251831,1.626427412033081,1.3395158052444458
18823.84109403883,1.1750112771987915,1.186507225036621,1.6257797479629517,1.3393539190292358
18823.843094101157,1.1750112771987915,1.1873167753219604,1.6254559755325317,1.3391920328140259
18823.845094163484,1.1742017269134521,1.1878025531768799,1.6261036396026611,1.337896704673767
18823.84709422581,1.1733921766281128,1.1873167753219604,1.626427412033081,1.337896704673767
18823.849094288136,1.1740398406982422,1.186830997467041,1.626427412033081,1.3388681411743164
18823.851094350463,1.1743637323379517,1.186830997467041,1.626265525817871,1.3387062549591064
18823.85309441279,1.1730684041976929,1.1873167753219604,1.6269131898880005,1.3377348184585571
18823.855094475115,1.1745256185531616,1.1873167753219604,1.6269131898880005,1.3382205963134766
18823.85709453744,1.1758209466934204,1.186669111251831,1.6267513036727905,1.3385443687438965
18823.859094599764,1.175497055053711,1.186669111251831,1.626427412033081,1.3395158052444458
18823.86109466209,1.1742017269134521,1.1863453388214111,1.6261036396026611,1.3383824825286865
18823.863094724416,1.175497055053711,1.1869930028915405,1.626589298248291,1.3388681411743164
18823.865094786743,1.1746875047683716,1.1873167753219604,1.6270750761032104,1.338058590888977
18823.86709484907,1.1740398406982422,1.1874786615371704,1.6267513036727905,1.3387062549591064
18823.869094911395,1.1748493909835815,1.18764066696167,1.626265525817871,1.339030146598816
18823.87109497372,1.1750112771987915,1.1878025531768799,1.6257797479629517,1.3400015830993652
18823.873095036048,1.1735540628433228,1.1882882118225098,1.6261036396026611,1.3388681411743164
18823.875095098374,1.1746875047683716,1.1882882118225098,1.626427412033081,1.3391920328140259
18823.8770951607,1.1758209466934204,1.1882882118225098,1.6270750761032104,1.339030146598816
18823.879095223027,1.1748493909835815,1.1878025531768799,1.62739896774292,1.3382205963134766
18823.881095285353,1.1750112771987915,1.1878025531768799,1.6277227401733398,1.3383824825286865
18823.88309534768,1.1758209466934204,1.1873167753219604,1.6278846263885498,1.339030146598816
18823.885095410005,1.1758209466934204,1.18764066696167,1.6280465126037598,1.3393539190292358
18823.88709547233,1.175497055053711,1.1878025531768799,1.6285322904586792,1.3391920328140259
18823.889095534658,1.175335168838501,1.1871548891067505,1.6293418407440186,1.3391920328140259
18823.891095596984,1.1761447191238403,1.1869930028915405,1.6291799545288086,1.3395158052444458
18823.89309565931,1.175658941268921,1.186507225036621,1.6285322904586792,1.3391920328140259
18823.895095721637,1.175335168838501,1.1871548891067505,1.6272369623184204,1.3391920328140259
18823.897095783963,1.1758209466934204,1.1879644393920898,1.6272369623184204,1.3398396968841553
18823.899095846285,1.1745256185531616,1.1881263256072998,1.6269131898880005,1.3403254747390747
18823.90109590861,1.1748493909835815,1.1878025531768799,1.6282085180282593,1.3400015830993652
18823.903095970938,1.175658941268921,1.1873167753219604,1.6275608539581299,1.3403254747390747
18823.905096033264,1.175173282623291,1.1874786615371704,1.6267513036727905,1.3393539190292358
18823.90709609559,1.1743637323379517,1.186830997467041,1.6275608539581299,1.3398396968841553
18823.909096157917,1.1748493909835815,1.186830997467041,1.6277227401733398,1.3398396968841553
18823.911096220243,1.1748493909835815,1.186507225036621,1.6278846263885498,1.3400015830993652
18823.91309628257,1.175173282623291,1.186830997467041,1.6278846263885498,1.3385443687438965
18823.915096344896,1.175335168838501,1.1873167753219604,1.6277227401733398,1.3393539190292358
18823.917096407222,1.1761447191238403,1.1878025531768799,1.6275608539581299,1.3391920328140259
18823.919096469548,1.1758209466934204,1.1873167753219604,1.6269131898880005,1.3391920328140259
18823.921096531874,1.1759828329086304,1.1869930028915405,1.6277227401733398,1.3387062549591064
18823.9230965942,1.1767923831939697,1.1871548891067505,1.626265525817871,1.3387062549591064
18823.925096656527,1.1763066053390503,1.186669111251831,1.626427412033081,1.3388681411743164
18823.927096718853,1.175658941268921,1.1858595609664917,1.6259416341781616,1.339030146598816
18823.92909678118,1.1748493909835815,1.1853737831115723,1.626265525817871,1.3382205963134766
18823.931096843506,1.1750112771987915,1.1853737831115723,1.6270750761032104,1.3375729322433472
18823.933096905832,1.1733921766281128,1.1855357885360718,1.6270750761032104,1.3375729322433472
18823.935096968158,1.1740398406982422,1.1860214471817017,1.6270750761032104,1.337896704673767
18823.93709703048,1.175173282623291,1.186507225036621,1.6267513036727905,1.338058590888977
18823.939097092807,1.1750112771987915,1.1860214471817017,1.626589298248291,1.337896704673767
18823.941097155133,1.175335168838501,1.186507225036621,1.6277227401733398,1.3382205963134766
18823.94309721746,1.1759828329086304,1.1861833333969116,1.6269131898880005,1.3383824825286865
18823.945097279786,1.175658941268921,1.1853737831115723,1.6267513036727905,1.3375729322433472
18823.947097342112,1.175173282623291,1.1856976747512817,1.626427412033081,1.3372490406036377
18823.94909740444,1.1750112771987915,1.1855357885360718,1.626427412033081,1.3366013765335083
18823.951097466765,1.175173282623291,1.1863453388214111,1.6267513036727905,1.3370871543884277
18823.95309752909,1.1742017269134521,1.1853737831115723,1.6259416341781616,1.3370871543884277
18823.955097591417,1.1746875047683716,1.1850500106811523,1.626427412033081,1.3370871543884277
18823.957097653743,1.175658941268921,1.1848881244659424,1.626427412033081,1.337896704673767
18823.95909771607,1.175658941268921,1.1852118968963623,1.6272369623184204,1.3383824825286865
18823.961097778396,1.1763066053390503,1.1858595609664917,1.6259416341781616,1.3385443687438965
18823.963097840722,1.1774400472640991,1.1858595609664917,1.626427412033081,1.339030146598816
18823.96509790305,1.1771161556243896,1.1855357885360718,1.6259416341781616,1.3393539190292358
18823.967097965375,1.1758209466934204,1.1855357885360718,1.626589298248291,1.3385443687438965
18823.9690980277,1.1750112771987915,1.1856976747512817,1.6259416341781616,1.339030146598816
18823.971098090027,1.1750112771987915,1.186830997467041,1.626589298248291,1.3388681411743164
18823.973098152353,1.1740398406982422,1.186830997467041,1.6277227401733398,1.3383824825286865
18823.97509821468,1.175335168838501,1.186830997467041,1.6278846263885498,1.3395158052444458
18823.977098277006,1.1771161556243896,1.1863453388214111,1.6283704042434692,1.3388681411743164
18823.97909833933,1.1771161556243896,1.1860214471817017,1.6278846263885498,1.3387062549591064
18823.981098401655,1.1774400472640991,1.1863453388214111,1.6283704042434692,1.3387062549591064
18823.98309846398,1.1772781610488892,1.1863453388214111,1.6275608539581299,1.3388681411743164
18823.985098526307,1.1761447191238403,1.1860214471817017,1.6282085180282593,1.3385443687438965
18823.987098588634,1.175335168838501,1.1863453388214111,1.6278846263885498,1.3374109268188477
18823.98909865096,1.175497055053711,1.1863453388214111,1.6285322904586792,1.3375729322433472
18823.991098713286,1.1769542694091797,1.1863453388214111,1.6280465126037598,1.338058590888977
18823.993098775612,1.1766304969787598,1.1878025531768799,1.6280465126037598,1.3387062549591064
18823.99509883794,1.1759828329086304,1.1871548891067505,1.6278846263885498,1.3395158052444458
18823.997098900265,1.1771161556243896,1.1863453388214111,1.6286941766738892,1.3395158052444458
18823.99909896259,1.177763819694519,1.1869930028915405,1.6286941766738892,1.3393539190292358
18824.001099024917,1.1774400472640991,1.1879644393920898,1.6285322904586792,1.3400015830993652
18824.003099087244,1.1779258251190186,1.18764066696167,1.6285322904586792,1.3398396968841553
18824.00509914957,1.1764686107635498,1.1879644393920898,1.6286941766738892,1.3391920328140259
18824.007099211896,1.175335168838501,1.1881263256072998,1.6286941766738892,1.3388681411743164
18824.009099274223,1.175497055053711,1.1879644393920898,1.6280465126037598,1.3387062549591064
18824.01109933655,1.1763066053390503,1.18764066696167,1.6277227401733398,1.3387062549591064
18824.013099398875,1.1746875047683716,1.1878025531768799,1.6280465126037598,1.339030146598816
18824.0150994612,1.175497055053711,1.1882882118225098,1.6277227401733398,1.3400015830993652
18824.017099523524,1.1767923831939697,1.1886121034622192,1.6282085180282593,1.3398396968841553
18824.01909958585,1.1759828329086304,1.1882882118225098,1.6277227401733398,1.3393539190292358
18824.021099648176,1.175658941268921,1.1881263256072998,1.6275608539581299,1.3383824825286865
18824.023099710503,1.1771161556243896,1.1874786615371704,1.6278846263885498,1.3391920328140259
18824.02509977283,1.1766304969787598,1.1874786615371704,1.6278846263885498,1.339030146598816
18824.027099835155,1.1750112771987915,1.1873167753219604,1.6282085180282593,1.3387062549591064
18824.02909989748,1.1750112771987915,1.1874786615371704,1.6288561820983887,1.3391920328140259
18824.031099959808,1.1750112771987915,1.1869930028915405,1.6277227401733398,1.339030146598816
18824.033100022134,1.1742017269134521,1.1869930028915405,1.62739896774292,1.339030146598816
18824.03510008446,1.1745256185531616,1.1874786615371704,1.6277227401733398,1.3393539190292358
18824.037100146787,1.1761447191238403,1.1881263256072998,1.6282085180282593,1.3398396968841553
18824.039100209113,1.1761447191238403,1.1873167753219604,1.6278846263885498,1.3388681411743164
18824.04110027144,1.1759828329086304,1.1874786615371704,1.62739896774292,1.339030146598816
18824.043100333765,1.1764686107635498,1.1871548891067505,1.6269131898880005,1.3388681411743164
18824.04510039609,1.1764686107635498,1.186507225036621,1.6277227401733398,1.3385443687438965
18824.047100458418,1.175658941268921,1.1869930028915405,1.6272369623184204,1.3395158052444458
18824.049100520744,1.1748493909835815,1.1878025531768799,1.62739896774292,1.3393539190292358
18824.05110058307,1.175335168838501,1.1878025531768799,1.6275608539581299,1.3393539190292358
18824.053100645397,1.1743637323379517,1.1871548891067505,1.6277227401733398,1.3387062549591064
18824.055100707723,1.1740398406982422,1.186830997467041,1.6272369623184204,1.339030146598816
18824.057100770046,1.175658941268921,1.1869930028915405,1.6282085180282593,1.3395158052444458
18824.05910083237,1.175173282623291,1.1871548891067505,1.6278846263885498,1.3398396968841553
18824.061100894698,1.1748493909835815,1.1874786615371704,1.62739896774292,1.3395158052444458
18824.063100957024,1.1759828329086304,1.1878025531768799,1.6278846263885498,1.3398396968841553
18824.06510101935,1.1750112771987915,1.1878025531768799,1.6275608539581299,1.3395158052444458
18824.067101081677,1.1745256185531616,1.1873167753219604,1.6270750761032104,1.3393539190292358
18824.069101144003,1.1745256185531616,1.18764066696167,1.6269131898880005,1.3385443687438965
18824.07110120633,1.1748493909835815,1.18764066696167,1.626265525817871,1.3391920328140259
18824.073101268656,1.1740398406982422,1.1871548891067505,1.6270750761032104,1.3393539190292358
18824.075101330982,1.1743637323379517,1.1863453388214111,1.6269131898880005,1.3401634693145752
18824.077101393308,1.175173282623291,1.186669111251831,1.6269131898880005,1.3398396968841553
18824.079101455634,1.175173282623291,1.186507225036621,1.626427412033081,1.3401634693145752
18824.08110151796,1.1748493909835815,1.1863453388214111,1.626427412033081,1.3393539190292358
18824.083101580287,1.175497055053711,1.1863453388214111,1.6257797479629517,1.3403254747390747
18824.085101642613,1.1748493909835815,1.1871548891067505,1.6254559755325317,1.3401634693145752
18824.08710170494,1.1742017269134521,1.1873167753219604,1.6252940893173218,1.3401634693145752
18824.089101767266,1.1740398406982422,1.1871548891067505,1.6244844198226929,1.3393539190292358
18824.091101829592,1.1732302904129028,1.186830997467041,1.6251320838928223,1.3395158052444458
18824.09310189192,1.1722588539123535,1.1871548891067505,1.6252940893173218,1.3401634693145752
18824.095101954244,1.1732302904129028,1.1879644393920898,1.6254559755325317,1.3398396968841553
18824.097102016567,1.1740398406982422,1.1882882118225098,1.6249701976776123,1.3404873609542847
18824.099102078893,1.1743637323379517,1.1873167753219604,1.624322533607483,1.3395158052444458
18824.10110214122,1.1740398406982422,1.1871548891067505,1.624322533607483,1.3400015830993652
18824.103102203546,1.1748493909835815,1.186830997467041,1.6244844198226929,1.3403254747390747
18824.105102265872,1.1742017269134521,1.1869930028915405,1.6249701976776123,1.3395158052444458
18824.1071023282,1.1730684041976929,1.186669111251831,1.6259416341781616,1.3398396968841553
18824.109102390525,1.1735540628433228,1.1873167753219604,1.6267513036727905,1.3403254747390747
18824.11110245285,1.1738779544830322,1.1886121034622192,1.626427412033081,1.341135025024414
18824.113102515177,1.1729063987731934,1.1879644393920898,1.626589298248291,1.3401634693145752
18824.115102577503,1.1742017269134521,1.1869930028915405,1.6259416341781616,1.3404873609542847
18824.11710263983,1.1750112771987915,1.18764066696167,1.6261036396026611,1.341135025024414
18824.119102702156,1.1759828329086304,1.1887739896774292,1.626589298248291,1.3408111333847046
18824.121102764482,1.1761447191238403,1.1884502172470093,1.6269131898880005,1.341135025024414
18824.12310282681,1.1764686107635498,1.1882882118225098,1.6259416341781616,1.341296911239624
18824.125102889135,1.1750112771987915,1.18764066696167,1.6254559755325317,1.3404873609542847
18824.12710295146,1.1748493909835815,1.1881263256072998,1.6254559755325317,1.3408111333847046
18824.129103013787,1.1745256185531616,1.1887739896774292,1.6254559755325317,1.3408111333847046
18824.131103076114,1.1738779544830322,1.1886121034622192,1.6252940893173218,1.3403254747390747
18824.13310313844,1.1738779544830322,1.1884502172470093,1.626265525817871,1.3400015830993652
18824.135103200766,1.1748493909835815,1.1881263256072998,1.626265525817871,1.3408111333847046
18824.13710326309,1.1750112771987915,1.1886121034622192,1.626265525817871,1.3400015830993652
18824.139103325415,1.175658941268921,1.1886121034622192,1.6257797479629517,1.3403254747390747
18824.14110338774,1.1763066053390503,1.1879644393920898,1.6249701976776123,1.340973138809204
18824.143103450067,1.1771161556243896,1.1881263256072998,1.6254559755325317,1.3421064615249634
18824.145103512394,1.1761447191238403,1.1879644393920898,1.6261036396026611,1.3404873609542847
18824.14710357472,1.175173282623291,1.1882882118225098,1.626589298248291,1.3391920328140259
18824.149103637046,1.1743637323379517,1.1889358758926392,1.6257797479629517,1.3388681411743164
18824.151103699372,1.1729063987731934,1.1882882118225098,1.6254559755325317,1.3393539190292358
18824.1531037617,1.172096848487854,1.1879644393920898,1.6257797479629517,1.3391920328140259
18824.155103824025,1.1740398406982422,1.1874786615371704,1.6257797479629517,1.3401634693145752
18824.15710388635,1.175335168838501,1.18764066696167,1.6249701976776123,1.3403254747390747
18824.159103948678,1.1758209466934204,1.186507225036621,1.6246464252471924,1.3400015830993652
18824.161104011004,1.1750112771987915,1.186507225036621,1.6249701976776123,1.3393539190292358
18824.16310407333,1.175658941268921,1.1871548891067505,1.624160647392273,1.3400015830993652
18824.165104135656,1.1748493909835815,1.186507225036621,1.6233510971069336,1.3403254747390747
18824.167104197983,1.1743637323379517,1.186507225036621,1.6228653192520142,1.3406492471694946
18824.16910426031,1.1737160682678223,1.1861833333969116,1.6235129833221436,1.3400015830993652
18824.171104322635,1.1732302904129028,1.186507225036621,1.6235129833221436,1.3396778106689453
18824.17310438496,1.1722588539123535,1.186507225036621,1.6236748695373535,1.3395158052444458
18824.175104447284,1.1730684041976929,1.186830997467041,1.6235129833221436,1.3403254747390747
18824.17710450961,1.1732302904129028,1.186669111251831,1.6228653192520142,1.3403254747390747
18824.179104571936,1.1733921766281128,1.186669111251831,1.6222176551818848,1.3401634693145752
18824.181104634263,1.1738779544830322,1.1874786615371704,1.6223795413970947,1.3408111333847046
18824.18310469659,1.1740398406982422,1.186669111251831,1.6225415468215942,1.341135025024414
18824.185104758915,1.1722588539123535,1.1861833333969116,1.6227034330368042,1.3400015830993652
18824.18710482124,1.1706396341323853,1.1863453388214111,1.6222176551818848,1.3388681411743164
18824.189104883568,1.1708015203475952,1.1873167753219604,1.6217318773269653,1.3385443687438965
18824.191104945894,1.1712872982025146,1.1874786615371704,1.6217318773269653,1.3391920328140259
18824.19310500822,1.1704777479171753,1.1874786615371704,1.6223795413970947,1.3391920328140259
18824.195105070547,1.1712872982025146,1.1871548891067505,1.6220557689666748,1.3398396968841553
18824.197105132873,1.1732302904129028,1.1873167753219604,1.6220557689666748,1.3403254747390747
18824.1991051952,1.1727445125579834,1.18764066696167,1.6228653192520142,1.340973138809204
18824.201105257525,1.1725826263427734,1.1874786615371704,1.6228653192520142,1.341296911239624
18824.20310531985,1.1737160682678223,1.1881263256072998,1.6233510971069336,1.3421064615249634
18824.205105382178,1.1725826263427734,1.1884502172470093,1.624160647392273,1.3403254747390747
18824.207105444504,1.1716111898422241,1.1886121034622192,1.623998761177063,1.3401634693145752
18824.20910550683,1.1714491844177246,1.1882882118225098,1.6236748695373535,1.3417826890945435
18824.211105569157,1.1722588539123535,1.1886121034622192,1.624160647392273,1.341620683670044
18824.213105631483,1.171773076057434,1.1878025531768799,1.6236748695373535,1.3403254747390747
18824.21510569381,1.1737160682678223,1.186669111251831,1.6233510971069336,1.341296911239624
18824.21710575613,1.1738779544830322,1.186507225036621,1.624160647392273,1.3404873609542847
18824.219105818458,1.1732302904129028,1.186830997467041,1.624160647392273,1.3421064615249634
18824.221105880784,1.1724207401275635,1.186830997467041,1.6235129833221436,1.3421064615249634
18824.22310594311,1.1738779544830322,1.1874786615371704,1.6235129833221436,1.3419445753097534
18824.225106005437,1.1737160682678223,1.1881263256072998,1.6230272054672241,1.3424303531646729
18824.227106067763,1.1732302904129028,1.1879644393920898,1.623998761177063,1.3406492471694946
18824.22910613009,1.1729063987731934,1.1879644393920898,1.6236748695373535,1.3400015830993652
18824.231106192416,1.1732302904129028,1.1873167753219604,1.6235129833221436,1.3395158052444458
18824.233106254742,1.1722588539123535,1.1878025531768799,1.6238367557525635,1.3398396968841553
18824.235106317068,1.1735540628433228,1.1869930028915405,1.6235129833221436,1.341135025024414
18824.237106379394,1.1748493909835815,1.1873167753219604,1.6233510971069336,1.3408111333847046
18824.23910644172,1.1743637323379517,1.1878025531768799,1.6244844198226929,1.341135025024414
18824.241106504047,1.1738779544830322,1.1878025531768799,1.6246464252471924,1.341458797454834
18824.243106566373,1.1740398406982422,1.1884502172470093,1.6252940893173218,1.3419445753097534
18824.2451066287,1.1745256185531616,1.1889358758926392,1.6252940893173218,1.341135025024414
18824.247106691026,1.1743637323379517,1.1890978813171387,1.6246464252471924,1.341135025024414
18824.249106753352,1.1738779544830322,1.1886121034622192,1.6238367557525635,1.341135025024414
18824.25110681568,1.1740398406982422,1.1882882118225098,1.624322533607483,1.340973138809204
18824.253106878004,1.1737160682678223,1.1873167753219604,1.6244844198226929,1.3398396968841553
18824.255106940327,1.1746875047683716,1.1878025531768799,1.6252940893173218,1.3403254747390747
18824.257107002653,1.1759828329086304,1.1886121034622192,1.6248083114624023,1.3408111333847046
18824.25910706498,1.175658941268921,1.1884502172470093,1.6259416341781616,1.3403254747390747
18824.261107127306,1.1750112771987915,1.1874786615371704,1.6259416341781616,1.3404873609542847
18824.263107189632,1.1750112771987915,1.1873167753219604,1.6252940893173218,1.3408111333847046
18824.26510725196,1.1743637323379517,1.1871548891067505,1.6246464252471924,1.3404873609542847
18824.267107314285,1.1733921766281128,1.1869930028915405,1.6246464252471924,1.341135025024414
18824.26910737661,1.1738779544830322,1.186830997467041,1.6249701976776123,1.341620683670044
18824.271107438937,1.1742017269134521,1.1863453388214111,1.6249701976776123,1.3406492471694946
18824.273107501263,1.1732302904129028,1.1869930028915405,1.6244844198226929,1.3398396968841553
18824.27510756359,1.1738779544830322,1.1873167753219604,1.6248083114624023,1.3408111333847046
18824.277107625916,1.1740398406982422,1.1873167753219604,1.6246464252471924,1.3400015830993652
18824.279107688242,1.1742017269134521,1.186830997467041,1.624160647392273,1.3404873609542847
18824.28110775057,1.1737160682678223,1.186830997467041,1.6248083114624023,1.341135025024414
18824.283107812895,1.1748493909835815,1.1871548891067505,1.6244844198226929,1.3408111333847046
18824.28510787522,1.1735540628433228,1.18764066696167,1.6249701976776123,1.3401634693145752
18824.287107937547,1.1730684041976929,1.1874786615371704,1.6244844198226929,1.3401634693145752
18824.289107999874,1.1738779544830322,1.1869930028915405,1.624322533607483,1.3400015830993652
18824.2911080622,1.1743637323379517,1.18764066696167,1.6246464252471924,1.341135025024414
18824.293108124526,1.1733921766281128,1.1887739896774292,1.6248083114624023,1.3406492471694946
18824.29510818685,1.1745256185531616,1.1879644393920898,1.6248083114624023,1.341296911239624
18824.297108249175,1.1758209466934204,1.1874786615371704,1.6251320838928223,1.341296911239624
18824.2991083115,1.175658941268921,1.18764066696167,1.6248083114624023,1.341458797454834
18824.301108373827,1.175335168838501,1.18764066696167,1.6252940893173218,1.3417826890945435
18824.303108436154,1.175658941268921,1.18764066696167,1.6254559755325317,1.3427541255950928
18824.30510849848,1.1743637323379517,1.1881263256072998,1.6261036396026611,1.3417826890945435
18824.307108560806,1.1745256185531616,1.1874786615371704,1.6261036396026611,1.3406492471694946
18824.309108623132,1.1748493909835815,1.1882882118225098,1.6254559755325317,1.341296911239624
18824.31110868546,1.1745256185531616,1.1884502172470093,1.6249701976776123,1.3421064615249634
18824.313108747785,1.1732302904129028,1.1881263256072998,1.6252940893173218,1.341135025024414
18824.31510881011,1.1738779544830322,1.1878025531768799,1.6256178617477417,1.341135025024414
18824.317108872438,1.175497055053711,1.1871548891067505,1.6256178617477417,1.341296911239624
18824.319108934764,1.1763066053390503,1.1873167753219604,1.624322533607483,1.3404873609542847
18824.32110899709,1.175497055053711,1.1871548891067505,1.6251320838928223,1.341296911239624
18824.323109059416,1.175173282623291,1.1873167753219604,1.6254559755325317,1.341296911239624
18824.325109121743,1.1738779544830322,1.1882882118225098,1.6251320838928223,1.341620683670044
18824.32710918407,1.1732302904129028,1.1887739896774292,1.6251320838928223,1.340973138809204
18824.329109246395,1.1737160682678223,1.1887739896774292,1.6254559755325317,1.3406492471694946
18824.33110930872,1.1742017269134521,1.1878025531768799,1.6249701976776123,1.3404873609542847
18824.333109371044,1.1738779544830322,1.1881263256072998,1.6256178617477417,1.3401634693145752
18824.33510943337,1.1745256185531616,1.1878025531768799,1.6254559755325317,1.3419445753097534
18824.337109495696,1.175658941268921,1.1879644393920898,1.6252940893173218,1.3419445753097534
18824.339109558023,1.175173282623291,1.1871548891067505,1.6248083114624023,1.3408111333847046
18824.34110962035,1.1743637323379517,1.1879644393920898,1.6244844198226929,1.341135025024414
18824.343109682675,1.1748493909835815,1.1878025531768799,1.6251320838928223,1.341458797454834
18824.345109745,1.1743637323379517,1.18764066696167,1.6249701976776123,1.3406492471694946
18824.347109807328,1.1737160682678223,1.18764066696167,1.624322533607483,1.3408111333847046
18824.349109869654,1.1738779544830322,1.1878025531768799,1.6236748695373535,1.3406492471694946
18824.35110993198,1.1733921766281128,1.1874786615371704,1.624160647392273,1.3417826890945435
18824.353109994307,1.171934962272644,1.18764066696167,1.6248083114624023,1.341296911239624
18824.355110056633,1.1724207401275635,1.1869930028915405,1.6238367557525635,1.3408111333847046
18824.35711011896,1.1740398406982422,1.1871548891067505,1.6233510971069336,1.3408111333847046
18824.359110181285,1.1742017269134521,1.1878025531768799,1.6238367557525635,1.3406492471694946
18824.36111024361,1.1746875047683716,1.1886121034622192,1.6246464252471924,1.341135025024414
18824.363110305938,1.1758209466934204,1.1882882118225098,1.6256178617477417,1.341458797454834
18824.365110368264,1.1746875047683716,1.1878025531768799,1.6249701976776123,1.341296911239624
18824.36711043059,1.1737160682678223,1.1881263256072998,1.6244844198226929,1.341135025024414
18824.369110492917,1.1722588539123535,1.1871548891067505,1.6244844198226929,1.3406492471694946
18824.371110555243,1.172096848487854,1.18764066696167,1.6235129833221436,1.3404873609542847
18824.37311061757,1.1714491844177246,1.1873167753219604,1.6238367557525635,1.3404873609542847
18824.37511067989,1.1729063987731934,1.186507225036621,1.623189091682434,1.341135025024414
18824.377110742218,1.1733921766281128,1.1869930028915405,1.623998761177063,1.341135025024414
18824.379110804544,1.1733921766281128,1.1873167753219604,1.6230272054672241,1.341296911239624
18824.38111086687,1.1735540628433228,1.1869930028915405,1.6225415468215942,1.3417826890945435
18824.383110929197,1.1737160682678223,1.1873167753219604,1.6222176551818848,1.3417826890945435
18824.385110991523,1.1725826263427734,1.1871548891067505,1.6212462186813354,1.340973138809204
18824.38711105385,1.1722588539123535,1.186669111251831,1.6218938827514648,1.3404873609542847
18824.389111116176,1.1729063987731934,1.1874786615371704,1.6218938827514648,1.3401634693145752
18824.391111178502,1.1727445125579834,1.1871548891067505,1.6225415468215942,1.3400015830993652
18824.393111240828,1.1714491844177246,1.1871548891067505,1.6228653192520142,1.3404873609542847
18824.395111303154,1.1730684041976929,1.186830997467041,1.6223795413970947,1.341296911239624
18824.39711136548,1.1730684041976929,1.186830997467041,1.6225415468215942,1.341135025024414
18824.399111427807,1.1730684041976929,1.1869930028915405,1.6223795413970947,1.340973138809204
18824.401111490133,1.1737160682678223,1.1871548891067505,1.6220557689666748,1.341296911239624
18824.40311155246,1.1746875047683716,1.1871548891067505,1.6223795413970947,1.3424303531646729
18824.405111614786,1.1733921766281128,1.1873167753219604,1.6228653192520142,1.3408111333847046
18824.407111677112,1.1727445125579834,1.18764066696167,1.6225415468215942,1.3403254747390747
18824.40911173944,1.1725826263427734,1.1874786615371704,1.6220557689666748,1.3401634693145752
18824.411111801764,1.1732302904129028,1.186830997467041,1.6220557689666748,1.3401634693145752
18824.413111864087,1.1732302904129028,1.186830997467041,1.6225415468215942,1.3395158052444458
18824.415111926413,1.1735540628433228,1.1863453388214111,1.6227034330368042,1.3404873609542847
18824.41711198874,1.1740398406982422,1.1873167753219604,1.6223795413970947,1.3406492471694946
18824.419112051066,1.1745256185531616,1.1874786615371704,1.6220557689666748,1.3396778106689453
18824.421112113392,1.1740398406982422,1.186830997467041,1.6230272054672241,1.3398396968841553
18824.42311217572,1.1746875047683716,1.186830997467041,1.6228653192520142,1.3401634693145752
18824.425112238045,1.1730684041976929,1.1869930028915405,1.6235129833221436,1.3393539190292358
18824.42711230037,1.1727445125579834,1.186669111251831,1.6233510971069336,1.3395158052444458
18824.429112362697,1.1722588539123535,1.186830997467041,1.6233510971069336,1.3400015830993652
18824.431112425023,1.1712872982025146,1.186507225036621,1.6230272054672241,1.3406492471694946
18824.43311248735,1.1711254119873047,1.186669111251831,1.6233510971069336,1.3398396968841553
18824.435112549676,1.1724207401275635,1.1874786615371704,1.6236748695373535,1.3408111333847046
18824.437112612002,1.1732302904129028,1.1874786615371704,1.623189091682434,1.3398396968841553
18824.43911267433,1.1730684041976929,1.18764066696167,1.6222176551818848,1.3401634693145752
18824.441112736655,1.1732302904129028,1.18764066696167,1.6217318773269653,1.3391920328140259
18824.44311279898,1.1743637323379517,1.1874786615371704,1.6212462186813354,1.3396778106689453
18824.445112861307,1.1729063987731934,1.186669111251831,1.6225415468215942,1.3401634693145752
18824.447112923634,1.1729063987731934,1.186669111251831,1.6223795413970947,1.3396778106689453
18824.44911298596,1.1737160682678223,1.1861833333969116,1.6220557689666748,1.3388681411743164
18824.451113048286,1.1727445125579834,1.1858595609664917,1.6217318773269653,1.3395158052444458
18824.45311311061,1.1704777479171753,1.1863453388214111,1.6220557689666748,1.3395158052444458
18824.455113172935,1.1712872982025146,1.1863453388214111,1.6225415468215942,1.3404873609542847
18824.45711323526,1.1716111898422241,1.1861833333969116,1.6220557689666748,1.3403254747390747
18824.459113297587,1.1730684041976929,1.1874786615371704,1.6218938827514648,1.3396778106689453
18824.461113359914,1.1724207401275635,1.1871548891067505,1.6225415468215942,1.3401634693145752
18824.46311342224,1.1738779544830322,1.1869930028915405,1.6223795413970947,1.3408111333847046
18824.465113484566,1.1738779544830322,1.1871548891067505,1.6233510971069336,1.3400015830993652
18824.467113546893,1.1725826263427734,1.186507225036621,1.623998761177063,1.3406492471694946
18824.46911360922,1.171773076057434,1.1869930028915405,1.624160647392273,1.3408111333847046
18824.471113671545,1.1729063987731934,1.1874786615371704,1.6236748695373535,1.3400015830993652
18824.47311373387,1.171773076057434,1.186830997467041,1.624160647392273,1.3396778106689453
18824.475113796198,1.1732302904129028,1.186830997467041,1.6235129833221436,1.341620683670044
18824.477113858524,1.1740398406982422,1.1881263256072998,1.6244844198226929,1.3417826890945435
18824.47911392085,1.1738779544830322,1.18764066696167,1.6244844198226929,1.341458797454834
18824.481113983176,1.1743637323379517,1.1874786615371704,1.6249701976776123,1.3417826890945435
18824.483114045503,1.1758209466934204,1.1878025531768799,1.624322533607483,1.341296911239624
18824.48511410783,1.1745256185531616,1.1881263256072998,1.6249701976776123,1.3400015830993652
18824.487114170155,1.1746875047683716,1.1882882118225098,1.6257797479629517,1.3403254747390747
18824.48911423248,1.1746875047683716,1.1887739896774292,1.6267513036727905,1.3396778106689453
18824.491114294804,1.1745256185531616,1.1890978813171387,1.6269131898880005,1.3401634693145752
18824.49311435713,1.1743637323379517,1.1886121034622192,1.6267513036727905,1.341135025024414
18824.495114419457,1.175497055053711,1.1878025531768799,1.6259416341781616,1.3421064615249634
18824.497114481783,1.1759828329086304,1.1881263256072998,1.6256178617477417,1.3417826890945435
18824.49911454411,1.1763066053390503,1.1882882118225098,1.6246464252471924,1.3422683477401733
18824.501114606435,1.1761447191238403,1.1881263256072998,1.6251320838928223,1.340973138809204
18824.50311466876,1.1771161556243896,1.1884502172470093,1.6256178617477417,1.3417826890945435
18824.505114731088,1.1759828329086304,1.18764066696167,1.626589298248291,1.3419445753097534
18824.507114793414,1.1750112771987915,1.1878025531768799,1.6267513036727905,1.341620683670044
18824.50911485574,1.1759828329086304,1.18764066696167,1.6275608539581299,1.341620683670044
18824.511114918067,1.1766304969787598,1.1873167753219604,1.6282085180282593,1.341135025024414
18824.513114980393,1.1750112771987915,1.1878025531768799,1.6286941766738892,1.341135025024414
18824.51511504272,1.1763066053390503,1.1879644393920898,1.6280465126037598,1.3421064615249634
18824.517115105045,1.1769542694091797,1.1871548891067505,1.6275608539581299,1.3422683477401733
18824.51911516737,1.1774400472640991,1.1882882118225098,1.6277227401733398,1.3424303531646729
18824.521115229698,1.1769542694091797,1.1887739896774292,1.6282085180282593,1.3421064615249634
18824.523115292024,1.177601933479309,1.1884502172470093,1.6282085180282593,1.3430780172348022
18824.52511535435,1.177601933479309,1.1874786615371704,1.6280465126037598,1.3422683477401733
18824.527115416677,1.1767923831939697,1.1873167753219604,1.6275608539581299,1.3421064615249634
18824.529115479003,1.1767923831939697,1.186830997467041,1.62739896774292,1.3419445753097534
18824.53111554133,1.1774400472640991,1.186830997467041,1.626265525817871,1.341620683670044
18824.533115603652,1.175658941268921,1.186830997467041,1.6269131898880005,1.3401634693145752
18824.535115665978,1.1764686107635498,1.1874786615371704,1.626427412033081,1.341296911239624
18824.537115728304,1.1767923831939697,1.1869930028915405,1.626427412033081,1.340973138809204
18824.53911579063,1.1767923831939697,1.1873167753219604,1.6267513036727905,1.3406492471694946
18824.541115852957,1.1774400472640991,1.186669111251831,1.6270750761032104,1.341296911239624
18824.543115915283,1.1790591478347778,1.186669111251831,1.6270750761032104,1.341620683670044
18824.54511597761,1.1774400472640991,1.186830997467041,1.6261036396026611,1.3403254747390747
18824.547116039936,1.1759828329086304,1.186507225036621,1.6269131898880005,1.3406492471694946
18824.549116102262,1.1759828329086304,1.1869930028915405,1.626427412033081,1.3403254747390747
18824.551116164588,1.1766304969787598,1.186669111251831,1.6261036396026611,1.3398396968841553
18824.553116226914,1.1764686107635498,1.1863453388214111,1.6269131898880005,1.3396778106689453
18824.55511628924,1.1784114837646484,1.1861833333969116,1.626589298248291,1.3400015830993652
18824.557116351567,1.178735375404358,1.1860214471817017,1.626427412033081,1.340973138809204
18824.559116413893,1.1779258251190186,1.186830997467041,1.626265525817871,1.341458797454834
18824.56111647622,1.1771161556243896,1.186669111251831,1.6257797479629517,1.341296911239624
18824.563116538546,1.177763819694519,1.186669111251831,1.6259416341781616,1.3408111333847046
18824.565116600872,1.1771161556243896,1.186507225036621,1.6269131898880005,1.3398396968841553
18824.5671166632,1.1769542694091797,1.186669111251831,1.6270750761032104,1.3401634693145752
18824.569116725525,1.1771161556243896,1.186507225036621,1.6275608539581299,1.3403254747390747
18824.571116787847,1.177601933479309,1.186669111251831,1.6275608539581299,1.3408111333847046
18824.573116850173,1.1759828329086304,1.1860214471817017,1.626427412033081,1.341135025024414
18824.5751169125,1.1779258251190186,1.1861833333969116,1.626427412033081,1.3417826890945435
18824.577116974826,1.1790591478347778,1.1869930028915405,1.6269131898880005,1.341135025024414
18824.579117037152,1.178735375404358,1.1860214471817017,1.62739896774292,1.340973138809204
18824.58111709948,1.1780877113342285,1.1858595609664917,1.626265525817871,1.3406492471694946
18824.583117161805,1.178573489189148,1.1869930028915405,1.6257797479629517,1.3406492471694946
18824.58511722413,1.1769542694091797,1.1869930028915405,1.626265525817871,1.3401634693145752
18824.587117286457,1.1764686107635498,1.186830997467041,1.6261036396026611,1.3398396968841553
18824.589117348783,1.1764686107635498,1.186507225036621,1.6248083114624023,1.339030146598816
18824.59111741111,1.1763066053390503,1.186669111251831,1.6249701976776123,1.3385443687438965
18824.593117473436,1.175173282623291,1.1873167753219604,1.6254559755325317,1.3391920328140259
18824.595117535762,1.1761447191238403,1.186830997467041,1.6246464252471924,1.3398396968841553
18824.59711759809,1.1759828329086304,1.1863453388214111,1.623998761177063,1.3396778106689453
18824.599117660415,1.1759828329086304,1.186507225036621,1.6238367557525635,1.3395158052444458
18824.60111772274,1.1758209466934204,1.1860214471817017,1.6236748695373535,1.3396778106689453
18824.603117785067,1.1761447191238403,1.1856976747512817,1.623189091682434,1.3406492471694946
18824.605117847394,1.1758209466934204,1.1856976747512817,1.623189091682434,1.3398396968841553
18824.60711790972,1.1735540628433228,1.1856976747512817,1.6236748695373535,1.3387062549591064
18824.609117972046,1.1737160682678223,1.1861833333969116,1.623998761177063,1.3383824825286865
18824.61111803437,1.1740398406982422,1.1861833333969116,1.6236748695373535,1.3374109268188477
18824.613118096695,1.1738779544830322,1.186507225036621,1.6235129833221436,1.3374109268188477
18824.61511815902,1.1748493909835815,1.1861833333969116,1.6235129833221436,1.3385443687438965
18824.617118221347,1.175173282623291,1.1853737831115723,1.6233510971069336,1.3385443687438965
18824.619118283674,1.1742017269134521,1.1853737831115723,1.6235129833221436,1.3395158052444458
18824.621118346,1.1742017269134521,1.1863453388214111,1.6233510971069336,1.3400015830993652
18824.623118408326,1.1748493909835815,1.1863453388214111,1.623998761177063,1.3401634693145752
18824.625118470653,1.1735540628433228,1.1863453388214111,1.6246464252471924,1.3388681411743164
18824.62711853298,1.1743637323379517,1.1855357885360718,1.623998761177063,1.3383824825286865
18824.629118595305,1.1745256185531616,1.1852118968963623,1.623189091682434,1.3395158052444458
18824.63111865763,1.1748493909835815,1.1855357885360718,1.6230272054672241,1.3393539190292358
18824.633118719958,1.1730684041976929,1.1858595609664917,1.6227034330368042,1.3387062549591064
18824.635118782284,1.1743637323379517,1.1860214471817017,1.6236748695373535,1.3387062549591064
18824.63711884461,1.175497055053711,1.186830997467041,1.6233510971069336,1.339030146598816
18824.639118906936,1.1750112771987915,1.186830997467041,1.6235129833221436,1.3385443687438965
18824.641118969263,1.175497055053711,1.186669111251831,1.6246464252471924,1.3391920328140259
18824.64311903159,1.1766304969787598,1.1863453388214111,1.6252940893173218,1.3403254747390747
18824.645119093915,1.175335168838501,1.186507225036621,1.6251320838928223,1.3391920328140259
18824.64711915624,1.175658941268921,1.186507225036621,1.6244844198226929,1.3393539190292358
18824.649119218568,1.175335168838501,1.1863453388214111,1.6249701976776123,1.3388681411743164
18824.65111928089,1.1750112771987915,1.186507225036621,1.6244844198226929,1.3387062549591064
18824.653119343217,1.1738779544830322,1.1856976747512817,1.624322533607483,1.3388681411743164
18824.655119405543,1.1745256185531616,1.1863453388214111,1.6248083114624023,1.3391920328140259
18824.65711946787,1.1761447191238403,1.186830997467041,1.6246464252471924,1.3393539190292358
18824.659119530195,1.1764686107635498,1.1863453388214111,1.6254559755325317,1.3393539190292358
18824.66111959252,1.175497055053711,1.1861833333969116,1.6252940893173218,1.3391920328140259
18824.663119654848,1.1763066053390503,1.1855357885360718,1.6256178617477417,1.3388681411743164
18824.665119717174,1.1750112771987915,1.1852118968963623,1.6261036396026611,1.3385443687438965
18824.6671197795,1.1750112771987915,1.1856976747512817,1.6254559755325317,1.3382205963134766
18824.669119841827,1.175335168838501,1.1858595609664917,1.6254559755325317,1.3377348184585571
18824.671119904153,1.1759828329086304,1.1858595609664917,1.6249701976776123,1.3377348184585571
18824.67311996648,1.175497055053711,1.1856976747512817,1.6252940893173218,1.3370871543884277
18824.675120028805,1.1769542694091797,1.1853737831115723,1.6252940893173218,1.338058590888977
18824.67712009113,1.1771161556243896,1.1853737831115723,1.6257797479629517,1.3391920328140259
18824.679120153458,1.1772781610488892,1.1853737831115723,1.626427412033081,1.3388681411743164
18824.681120215784,1.1764686107635498,1.1856976747512817,1.6259416341781616,1.338058590888977
18824.68312027811,1.177763819694519,1.1855357885360718,1.6254559755325317,1.3393539190292358
18824.685120340437,1.1764686107635498,1.1860214471817017,1.6257797479629517,1.3377348184585571
18824.687120402763,1.1764686107635498,1.1863453388214111,1.6257797479629517,1.3374109268188477
18824.68912046509,1.1772781610488892,1.1856976747512817,1.6249701976776123,1.3385443687438965
18824.691120527412,1.1779258251190186,1.1860214471817017,1.6259416341781616,1.339030146598816
18824.693120589738,1.1764686107635498,1.1856976747512817,1.6267513036727905,1.3395158052444458
18824.695120652064,1.1779258251190186,1.1852118968963623,1.6261036396026611,1.3398396968841553
18824.69712071439,1.1772781610488892,1.1852118968963623,1.6252940893173218,1.339030146598816
18824.699120776717,1.1769542694091797,1.1861833333969116,1.6254559755325317,1.339030146598816
18824.701120839043,1.177763819694519,1.1863453388214111,1.6256178617477417,1.3393539190292358
18824.70312090137,1.1792210340499878,1.1863453388214111,1.6252940893173218,1.3396778106689453
18824.705120963696,1.1772781610488892,1.1860214471817017,1.6259416341781616,1.3387062549591064
18824.707121026022,1.1759828329086304,1.1855357885360718,1.6257797479629517,1.3388681411743164
18824.70912108835,1.1772781610488892,1.1856976747512817,1.6257797479629517,1.339030146598816
18824.711121150674,1.1771161556243896,1.1856976747512817,1.6267513036727905,1.339030146598816
18824.713121213,1.1759828329086304,1.1863453388214111,1.626427412033081,1.3388681411743164
18824.715121275327,1.1779258251190186,1.1863453388214111,1.626427412033081,1.3388681411743164
18824.717121337653,1.177763819694519,1.186830997467041,1.626589298248291,1.339030146598816
18824.71912139998,1.1771161556243896,1.186830997467041,1.6257797479629517,1.3398396968841553
18824.721121462306,1.1766304969787598,1.186830997467041,1.6261036396026611,1.3395158052444458
18824.723121524632,1.177601933479309,1.186507225036621,1.6257797479629517,1.3391920328140259
18824.72512158696,1.1766304969787598,1.1863453388214111,1.6259416341781616,1.3391920328140259
18824.727121649285,1.175497055053711,1.186669111251831,1.6267513036727905,1.3396778106689453
18824.729121711607,1.1758209466934204,1.186830997467041,1.6267513036727905,1.3403254747390747
18824.731121773933,1.1759828329086304,1.186507225036621,1.626589298248291,1.3401634693145752
18824.73312183626,1.1746875047683716,1.1869930028915405,1.6251320838928223,1.3396778106689453
18824.735121898586,1.1761447191238403,1.1871548891067505,1.6254559755325317,1.3403254747390747
18824.737121960912,1.1766304969787598,1.1861833333969116,1.6256178617477417,1.3401634693145752
18824.73912202324,1.1772781610488892,1.1855357885360718,1.626265525817871,1.3396778106689453
18824.741122085565,1.177763819694519,1.1852118968963623,1.6251320838928223,1.3401634693145752
18824.74312214789,1.178573489189148,1.1863453388214111,1.6252940893173218,1.3404873609542847
18824.745122210217,1.1769542694091797,1.1852118968963623,1.6256178617477417,1.3395158052444458
18824.747122272543,1.1771161556243896,1.1848881244659424,1.6257797479629517,1.3396778106689453
18824.74912233487,1.1771161556243896,1.1848881244659424,1.6252940893173218,1.3401634693145752
18824.751122397196,1.1766304969787598,1.1853737831115723,1.6257797479629517,1.339030146598816
18824.753122459522,1.175335168838501,1.1858595609664917,1.626265525817871,1.3387062549591064
18824.75512252185,1.1764686107635498,1.1860214471817017,1.626589298248291,1.3404873609542847
18824.757122584175,1.1780877113342285,1.1855357885360718,1.626427412033081,1.3408111333847046
18824.7591226465,1.1774400472640991,1.1847261190414429,1.6254559755325317,1.3408111333847046
18824.761122708827,1.1769542694091797,1.1847261190414429,1.6249701976776123,1.3419445753097534
18824.763122771154,1.178573489189148,1.1858595609664917,1.6252940893173218,1.341620683670044
18824.76512283348,1.1771161556243896,1.1856976747512817,1.6257797479629517,1.3404873609542847
18824.767122895806,1.1766304969787598,1.1860214471817017,1.6257797479629517,1.3401634693145752
18824.769122958132,1.1771161556243896,1.1863453388214111,1.6267513036727905,1.3400015830993652
18824.771123020455,1.177601933479309,1.1861833333969116,1.626265525817871,1.3404873609542847
18824.77312308278,1.1766304969787598,1.1863453388214111,1.6256178617477417,1.3396778106689453
18824.775123145108,1.1780877113342285,1.186669111251831,1.6252940893173218,1.3404873609542847
18824.777123207434,1.1792210340499878,1.1858595609664917,1.6249701976776123,1.3406492471694946
18824.77912326976,1.178735375404358,1.1855357885360718,1.6251320838928223,1.3404873609542847
18824.781123332086,1.178735375404358,1.1848881244659424,1.6254559755325317,1.3403254747390747
18824.783123394413,1.1795449256896973,1.1853737831115723,1.6248083114624023,1.3403254747390747
18824.78512345674,1.1780877113342285,1.1852118968963623,1.6246464252471924,1.3393539190292358
18824.787123519065,1.1774400472640991,1.1853737831115723,1.6246464252471924,1.3396778106689453
18824.78912358139,1.1772781610488892,1.1855357885360718,1.6249701976776123,1.3398396968841553
18824.791123643718,1.1772781610488892,1.1850500106811523,1.6254559755325317,1.3406492471694946
18824.793123706044,1.1761447191238403,1.1847261190414429,1.6254559755325317,1.3404873609542847
18824.79512376837,1.1771161556243896,1.184240460395813,1.6248083114624023,1.3404873609542847
18824.797123830696,1.1774400472640991,1.184564232826233,1.6254559755325317,1.3408111333847046
18824.799123893023,1.1779258251190186,1.184564232826233,1.6249701976776123,1.341296911239624
18824.80112395535,1.1779258251190186,1.1850500106811523,1.6246464252471924,1.3403254747390747
18824.803124017675,1.1793830394744873,1.1858595609664917,1.6246464252471924,1.3408111333847046
18824.80512408,1.177763819694519,1.1853737831115723,1.6251320838928223,1.3408111333847046
18824.807124142328,1.1764686107635498,1.184402346611023,1.6236748695373535,1.3406492471694946
18824.80912420465,1.1774400472640991,1.1852118968963623,1.6233510971069336,1.3404873609542847
18824.811124266977,1.1771161556243896,1.1856976747512817,1.6227034330368042,1.3400015830993652
18824.813124329303,1.1758209466934204,1.1855357885360718,1.623189091682434,1.3393539190292358
18824.81512439163,1.177601933479309,1.1850500106811523,1.6235129833221436,1.340973138809204
18824.817124453955,1.1782495975494385,1.1847261190414429,1.624322533607483,1.341135025024414
18824.81912451628,1.1788972616195679,1.1850500106811523,1.6235129833221436,1.341458797454834
18824.821124578608,1.178735375404358,1.1847261190414429,1.6233510971069336,1.341458797454834
18824.823124640934,1.1788972616195679,1.1847261190414429,1.623189091682434,1.340973138809204
18824.82512470326,1.1772781610488892,1.1855357885360718,1.6227034330368042,1.3404873609542847
18824.827124765587,1.1769542694091797,1.1855357885360718,1.6223795413970947,1.340973138809204
18824.829124827913,1.1780877113342285,1.1848881244659424,1.6238367557525635,1.340973138809204
18824.83112489024,1.1780877113342285,1.1856976747512817,1.6233510971069336,1.3403254747390747
18824.833124952565,1.1764686107635498,1.1861833333969116,1.623189091682434,1.3400015830993652
18824.83512501489,1.177601933479309,1.1856976747512817,1.6233510971069336,1.341458797454834
18824.837125077218,1.1780877113342285,1.1848881244659424,1.6227034330368042,1.3408111333847046
18824.839125139544,1.1780877113342285,1.184240460395813,1.6227034330368042,1.341135025024414
18824.84112520187,1.1788972616195679,1.1837546825408936,1.6230272054672241,1.3406492471694946
18824.843125264197,1.1797068119049072,1.1839165687561035,1.6235129833221436,1.341296911239624
18824.845125326523,1.1784114837646484,1.1852118968963623,1.624160647392273,1.3408111333847046
18824.84712538885,1.177763819694519,1.1855357885360718,1.6238367557525635,1.341296911239624
18824.849125451172,1.1790591478347778,1.1858595609664917,1.6238367557525635,1.3419445753097534
18824.851125513498,1.1790591478347778,1.1856976747512817,1.6233510971069336,1.3419445753097534
18824.853125575824,1.177763819694519,1.184402346611023,1.6235129833221436,1.3419445753097534
18824.85512563815,1.1782495975494385,1.1840784549713135,1.6236748695373535,1.3417826890945435
18824.857125700477,1.1790591478347778,1.184240460395813,1.6238367557525635,1.341296911239624
18824.859125762803,1.178573489189148,1.184402346611023,1.6238367557525635,1.341296911239624
18824.86112582513,1.1792210340499878,1.1853737831115723,1.6238367557525635,1.3417826890945435
18824.863125887456,1.1805163621902466,1.1860214471817017,1.623998761177063,1.341135025024414
18824.865125949782,1.1788972616195679,1.1860214471817017,1.6244844198226929,1.341135025024414
18824.86712601211,1.1793830394744873,1.1855357885360718,1.6251320838928223,1.3421064615249634
18824.869126074434,1.1790591478347778,1.1858595609664917,1.624322533607483,1.3425922393798828
18824.87112613676,1.1788972616195679,1.1863453388214111,1.6246464252471924,1.3427541255950928
18824.873126199087,1.1772781610488892,1.1871548891067505,1.6244844198226929,1.3427541255950928
18824.875126261413,1.1798686981201172,1.186830997467041,1.624322533607483,1.3430780172348022
18824.87712632374,1.181164026260376,1.1873167753219604,1.624322533607483,1.3429160118103027
18824.879126386066,1.180840253829956,1.186830997467041,1.6235129833221436,1.3421064615249634
18824.881126448392,1.1805163621902466,1.1863453388214111,1.623189091682434,1.3417826890945435
18824.88312651072,1.181002140045166,1.1856976747512817,1.6236748695373535,1.3424303531646729
18824.885126573045,1.1788972616195679,1.1852118968963623,1.624160647392273,1.341296911239624
18824.887126635367,1.178573489189148,1.1848881244659424,1.6238367557525635,1.3419445753097534
18824.889126697693,1.1784114837646484,1.1850500106811523,1.6228653192520142,1.3419445753097534
18824.89112676002,1.1788972616195679,1.1850500106811523,1.6225415468215942,1.3417826890945435
18824.893126822346,1.177763819694519,1.1856976747512817,1.623189091682434,1.341458797454834
18824.895126884672,1.1788972616195679,1.1853737831115723,1.6233510971069336,1.3417826890945435
18824.897126947,1.178735375404358,1.184402346611023,1.6233510971069336,1.341620683670044
18824.899127009325,1.1793830394744873,1.184402346611023,1.6230272054672241,1.3417826890945435
18824.90112707165,1.1788972616195679,1.1847261190414429,1.6235129833221436,1.3417826890945435
18824.903127133977,1.1801925897598267,1.1848881244659424,1.6218938827514648,1.3421064615249634
18824.905127196304,1.1782495975494385,1.184402346611023,1.6223795413970947,1.3421064615249634
18824.90712725863,1.1771161556243896,1.1839165687561035,1.6220557689666748,1.3417826890945435
18824.909127320956,1.1772781610488892,1.1835927963256836,1.6214081048965454,1.341296911239624
18824.911127383282,1.1780877113342285,1.1834309101104736,1.620760440826416,1.3401634693145752
18824.91312744561,1.1766304969787598,1.1840784549713135,1.620436668395996,1.3403254747390747
18824.915127507935,1.1767923831939697,1.1840784549713135,1.620922327041626,1.341458797454834
18824.91712757026,1.1766304969787598,1.184240460395813,1.6215699911117554,1.341296911239624
18824.919127632587,1.1771161556243896,1.184402346611023,1.621084213256836,1.341296911239624
18824.921127694914,1.1767923831939697,1.184240460395813,1.620760440826416,1.341458797454834
18824.92312775724,1.177763819694519,1.184240460395813,1.620598554611206,1.341458797454834
18824.925127819566,1.1766304969787598,1.184564232826233,1.620922327041626,1.3403254747390747
18824.927127881892,1.1764686107635498,1.1839165687561035,1.621084213256836,1.3422683477401733
18824.929127944215,1.1767923831939697,1.1839165687561035,1.620598554611206,1.3421064615249634
18824.93112800654,1.1769542694091797,1.1840784549713135,1.620922327041626,1.3408111333847046
18824.933128068868,1.1750112771987915,1.1835927963256836,1.6214081048965454,1.3400015830993652
18824.935128131194,1.1764686107635498,1.1834309101104736,1.620922327041626,1.341296911239624
18824.93712819352,1.1772781610488892,1.184402346611023,1.6214081048965454,1.3417826890945435
18824.939128255846,1.1772781610488892,1.1847261190414429,1.6217318773269653,1.341458797454834
18824.941128318173,1.177601933479309,1.1848881244659424,1.620598554611206,1.341458797454834
18824.9431283805,1.1782495975494385,1.1850500106811523,1.621084213256836,1.3421064615249634
18824.945128442825,1.177601933479309,1.184564232826233,1.6215699911117554,1.341296911239624
18824.94712850515,1.177763819694519,1.184402346611023,1.621084213256836,1.341620683670044
18824.949128567478,1.177763819694519,1.1837546825408936,1.6214081048965454,1.3425922393798828
18824.951128629804,1.1774400472640991,1.1834309101104736,1.6227034330368042,1.341135025024414
18824.95312869213,1.1763066053390503,1.184564232826233,1.6223795413970947,1.341458797454834
18824.955128754456,1.1780877113342285,1.184564232826233,1.6223795413970947,1.3417826890945435
18824.957128816783,1.1782495975494385,1.1850500106811523,1.6220557689666748,1.341620683670044
18824.95912887911,1.177763819694519,1.1848881244659424,1.6222176551818848,1.3419445753097534
18824.961128941435,1.177601933479309,1.1839165687561035,1.6225415468215942,1.3422683477401733
18824.96312900376,1.1788972616195679,1.184402346611023,1.6236748695373535,1.3429160118103027
18824.965129066088,1.1774400472640991,1.1852118968963623,1.624160647392273,1.3422683477401733
18824.96712912841,1.1767923831939697,1.1852118968963623,1.6233510971069336,1.3421064615249634
18824.969129190737,1.1771161556243896,1.1852118968963623,1.6227034330368042,1.3417826890945435
18824.971129253063,1.1772781610488892,1.1858595609664917,1.6218938827514648,1.3417826890945435
18824.97312931539,1.1763066053390503,1.1861833333969116,1.6220557689666748,1.340973138809204
18824.975129377715,1.1779258251190186,1.1855357885360718,1.6225415468215942,1.3417826890945435
18824.97712944004,1.178573489189148,1.1855357885360718,1.6220557689666748,1.3421064615249634
18824.979129502368,1.1788972616195679,1.1860214471817017,1.6212462186813354,1.3422683477401733
18824.981129564694,1.1790591478347778,1.1860214471817017,1.6217318773269653,1.3408111333847046
18824.98312962702,1.1793830394744873,1.1856976747512817,1.6223795413970947,1.3419445753097534
18824.985129689347,1.1779258251190186,1.1852118968963623,1.623189091682434,1.341135025024414
18824.987129751673,1.177601933479309,1.1848881244659424,1.6238367557525635,1.341458797454834
18824.989129814,1.1772781610488892,1.1847261190414429,1.6230272054672241,1.3406492471694946
18824.991129876325,1.1771161556243896,1.1850500106811523,1.6215699911117554,1.3404873609542847
18824.99312993865,1.1766304969787598,1.1853737831115723,1.6217318773269653,1.3401634693145752
18824.995130000978,1.178735375404358,1.1856976747512817,1.6222176551818848,1.3408111333847046
18824.997130063304,1.1792210340499878,1.1858595609664917,1.6220557689666748,1.341135025024414
18824.99913012563,1.1782495975494385,1.1856976747512817,1.6214081048965454,1.3417826890945435
18825.001130187957,1.1779258251190186,1.1850500106811523,1.6220557689666748,1.3419445753097534
18825.003130250283,1.178735375404358,1.1850500106811523,1.6225415468215942,1.341458797454834
18825.00513031261,1.1771161556243896,1.1847261190414429,1.6220557689666748,1.3408111333847046
18825.007130374932,1.1769542694091797,1.1850500106811523,1.6212462186813354,1.3404873609542847
18825.009130437258,1.177601933479309,1.1847261190414429,1.6212462186813354,1.3408111333847046
18825.011130499584,1.1767923831939697,1.1839165687561035,1.6215699911117554,1.3403254747390747
18825.01313056191,1.1758209466934204,1.1837546825408936,1.6230272054672241,1.340973138809204
18825.015130624237,1.1771161556243896,1.1839165687561035,1.6227034330368042,1.3398396968841553
18825.017130686563,1.1769542694091797,1.184240460395813,1.6217318773269653,1.3400015830993652
18825.01913074889,1.1769542694091797,1.1847261190414429,1.6217318773269653,1.3408111333847046
18825.021130811216,1.1763066053390503,1.1847261190414429,1.6217318773269653,1.341620683670044
18825.023130873542,1.1779258251190186,1.184564232826233,1.6222176551818848,1.3419445753097534
18825.02513093587,1.1766304969787598,1.1852118968963623,1.6225415468215942,1.340973138809204
18825.027130998194,1.1766304969787598,1.1847261190414429,1.6230272054672241,1.341135025024414
18825.02913106052,1.1764686107635498,1.184564232826233,1.6230272054672241,1.341135025024414
18825.031131122847,1.1771161556243896,1.1848881244659424,1.6230272054672241,1.3403254747390747
18825.033131185173,1.1763066053390503,1.1840784549713135,1.623189091682434,1.3400015830993652
18825.0351312475,1.177763819694519,1.1847261190414429,1.6236748695373535,1.341458797454834
18825.037131309826,1.1780877113342285,1.1858595609664917,1.623998761177063,1.3419445753097534
18825.039131372152,1.1782495975494385,1.1858595609664917,1.623189091682434,1.3421064615249634
18825.04113143448,1.1780877113342285,1.1855357885360718,1.6227034330368042,1.3417826890945435
18825.043131496805,1.1790591478347778,1.1858595609664917,1.6225415468215942,1.3417826890945435
18825.045131559127,1.177763819694519,1.186507225036621,1.623189091682434,1.340973138809204
18825.047131621453,1.1769542694091797,1.186507225036621,1.624322533607483,1.341296911239624
18825.04913168378,1.177601933479309,1.1863453388214111,1.624160647392273,1.3419445753097534
18825.051131746106,1.1782495975494385,1.1850500106811523,1.6236748695373535,1.341458797454834
18825.053131808432,1.1780877113342285,1.1853737831115723,1.624322533607483,1.341458797454834
18825.05513187076,1.1803544759750366,1.1855357885360718,1.6235129833221436,1.341458797454834
18825.057131933085,1.1800307035446167,1.1861833333969116,1.624160647392273,1.3421064615249634
18825.05913199541,1.1790591478347778,1.186830997467041,1.624160647392273,1.3419445753097534
18825.061132057737,1.1793830394744873,1.1860214471817017,1.624160647392273,1.3425922393798828
18825.063132120064,1.1798686981201172,1.1860214471817017,1.623998761177063,1.3427541255950928
18825.06513218239,1.1780877113342285,1.1858595609664917,1.6236748695373535,1.3425922393798828
18825.067132244716,1.177601933479309,1.1858595609664917,1.623998761177063,1.3424303531646729
18825.069132307042,1.1782495975494385,1.1855357885360718,1.6235129833221436,1.3419445753097534
18825.07113236937,1.1779258251190186,1.1855357885360718,1.6233510971069336,1.3421064615249634
18825.073132431695,1.1767923831939697,1.1858595609664917,1.624322533607483,1.3417826890945435
18825.07513249402,1.178573489189148,1.186507225036621,1.6251320838928223,1.341296911239624
18825.077132556347,1.1793830394744873,1.1863453388214111,1.6246464252471924,1.341620683670044
18825.079132618674,1.1790591478347778,1.186507225036621,1.6251320838928223,1.3429160118103027
18825.081132681,1.1790591478347778,1.1871548891067505,1.6249701976776123,1.3427541255950928
18825.083132743326,1.1798686981201172,1.1873167753219604,1.6244844198226929,1.3425922393798828
18825.085132805652,1.177601933479309,1.1861833333969116,1.6249701976776123,1.3422683477401733
18825.087132867975,1.1771161556243896,1.1860214471817017,1.6238367557525635,1.3425922393798828
18825.0891329303,1.1771161556243896,1.186669111251831,1.6238367557525635,1.3425922393798828
18825.091132992628,1.1771161556243896,1.186507225036621,1.6238367557525635,1.3421064615249634
18825.093133054954,1.1761447191238403,1.1861833333969116,1.6235129833221436,1.340973138809204
18825.09513311728,1.1769542694091797,1.1856976747512817,1.6223795413970947,1.341458797454834
18825.097133179606,1.1767923831939697,1.1850500106811523,1.6215699911117554,1.341458797454834
18825.099133241933,1.1761447191238403,1.1853737831115723,1.6214081048965454,1.341620683670044
18825.10113330426,1.1761447191238403,1.1863453388214111,1.620760440826416,1.3424303531646729
18825.103133366585,1.1769542694091797,1.1860214471817017,1.6215699911117554,1.3429160118103027
18825.10513342891,1.1748493909835815,1.1858595609664917,1.6212462186813354,1.341296911239624
18825.107133491238,1.1748493909835815,1.1861833333969116,1.6212462186813354,1.3417826890945435
18825.109133553564,1.1750112771987915,1.1863453388214111,1.6212462186813354,1.3421064615249634
18825.11113361589,1.1746875047683716,1.1858595609664917,1.6220557689666748,1.3421064615249634
18825.113133678216,1.1743637323379517,1.1856976747512817,1.6225415468215942,1.3417826890945435
18825.115133740543,1.1766304969787598,1.1861833333969116,1.6230272054672241,1.3417826890945435
18825.11713380287,1.1758209466934204,1.1861833333969116,1.6227034330368042,1.341458797454834
18825.119133865195,1.1761447191238403,1.1861833333969116,1.6214081048965454,1.3421064615249634
18825.12113392752,1.1761447191238403,1.1858595609664917,1.6218938827514648,1.3419445753097534
18825.123133989848,1.177601933479309,1.1856976747512817,1.6222176551818848,1.3424303531646729
18825.12513405217,1.1766304969787598,1.1863453388214111,1.6225415468215942,1.3422683477401733
18825.127134114497,1.175658941268921,1.186830997467041,1.6223795413970947,1.3424303531646729
18825.129134176823,1.1759828329086304,1.1871548891067505,1.6220557689666748,1.3422683477401733
18825.13113423915,1.175658941268921,1.1873167753219604,1.6227034330368042,1.341296911239624
18825.133134301475,1.1748493909835815,1.1871548891067505,1.6222176551818848,1.341135025024414
18825.1351343638,1.1767923831939697,1.1863453388214111,1.6228653192520142,1.3417826890945435
18825.137134426128,1.1764686107635498,1.186507225036621,1.6230272054672241,1.3424303531646729
18825.139134488454,1.1763066053390503,1.18764066696167,1.6233510971069336,1.3422683477401733
18825.14113455078,1.1771161556243896,1.1871548891067505,1.6238367557525635,1.3425922393798828
18825.143134613107,1.1788972616195679,1.1878025531768799,1.6235129833221436,1.3427541255950928
18825.145134675433,1.1774400472640991,1.1873167753219604,1.6236748695373535,1.3419445753097534
18825.14713473776,1.177763819694519,1.18764066696167,1.6236748695373535,1.3417826890945435
18825.149134800085,1.1769542694091797,1.1878025531768799,1.6248083114624023,1.341296911239624
18825.15113486241,1.1769542694091797,1.1878025531768799,1.6249701976776123,1.341135025024414
18825.153134924738,1.175658941268921,1.186830997467041,1.6249701976776123,1.341296911239624
18825.155134987064,1.1772781610488892,1.1874786615371704,1.624160647392273,1.3424303531646729
18825.15713504939,1.1779258251190186,1.1874786615371704,1.6236748695373535,1.3424303531646729
18825.159135111717,1.1782495975494385,1.1871548891067505,1.6236748695373535,1.3422683477401733
18825.161135174043,1.178573489189148,1.1873167753219604,1.6236748695373535,1.3434017896652222
18825.16313523637,1.1788972616195679,1.186669111251831,1.6235129833221436,1.343725562095642
18825.165135298692,1.177601933479309,1.1860214471817017,1.623189091682434,1.3429160118103027
18825.167135361018,1.1779258251190186,1.1858595609664917,1.6228653192520142,1.3419445753097534
18825.169135423344,1.177763819694519,1.1858595609664917,1.6235129833221436,1.3419445753097534
18825.17113548567,1.1764686107635498,1.1855357885360718,1.6233510971069336,1.3417826890945435
18825.173135547997,1.175335168838501,1.1858595609664917,1.623189091682434,1.3408111333847046
18825.175135610323,1.1767923831939697,1.1858595609664917,1.6227034330368042,1.3404873609542847
18825.17713567265,1.1774400472640991,1.1855357885360718,1.6235129833221436,1.341135025024414
18825.179135734976,1.1772781610488892,1.1861833333969116,1.6236748695373535,1.341296911239624
18825.181135797302,1.1779258251190186,1.1853737831115723,1.623189091682434,1.3417826890945435
18825.18313585963,1.178573489189148,1.1861833333969116,1.6236748695373535,1.3422683477401733
18825.185135921954,1.1761447191238403,1.1858595609664917,1.6235129833221436,1.3421064615249634
18825.18713598428,1.175658941268921,1.1856976747512817,1.6233510971069336,1.3417826890945435
18825.189136046607,1.175658941268921,1.1855357885360718,1.6238367557525635,1.341620683670044
18825.191136108933,1.175497055053711,1.1852118968963623,1.6233510971069336,1.3417826890945435
18825.19313617126,1.1745256185531616,1.1848881244659424,1.6228653192520142,1.3419445753097534
18825.195136233586,1.175497055053711,1.1858595609664917,1.6222176551818848,1.3429160118103027
18825.197136295912,1.1763066053390503,1.1855357885360718,1.6218938827514648,1.3421064615249634
18825.19913635824,1.1761447191238403,1.1850500106811523,1.6214081048965454,1.341620683670044
18825.201136420565,1.1763066053390503,1.1856976747512817,1.6222176551818848,1.3422683477401733
18825.203136482887,1.177601933479309,1.1863453388214111,1.6225415468215942,1.3422683477401733
18825.205136545213,1.175173282623291,1.1860214471817017,1.6222176551818848,1.341620683670044
18825.20713660754,1.1748493909835815,1.1863453388214111,1.6214081048965454,1.341458797454834
18825.209136669866,1.1742017269134521,1.1860214471817017,1.6202746629714966,1.341296911239624
18825.211136732192,1.1733921766281128,1.1858595609664917,1.620760440826416,1.3404873609542847
18825.21313679452,1.1724207401275635,1.186669111251831,1.6202746629714966,1.3408111333847046
18825.215136856845,1.1733921766281128,1.1869930028915405,1.620436668395996,1.340973138809204
18825.21713691917,1.1732302904129028,1.1860214471817017,1.620598554611206,1.3404873609542847
18825.219136981497,1.1722588539123535,1.1856976747512817,1.6196269989013672,1.3408111333847046
18825.221137043824,1.1722588539123535,1.1860214471817017,1.6181697845458984,1.3417826890945435
18825.22313710615,1.1729063987731934,1.1861833333969116,1.617522120475769,1.341458797454834
18825.225137168476,1.171773076057434,1.1855357885360718,1.6176841259002686,1.3401634693145752
18825.227137230802,1.171934962272644,1.1855357885360718,1.6171983480453491,1.3403254747390747
18825.22913729313,1.1722588539123535,1.184402346611023,1.6168744564056396,1.3403254747390747
18825.231137355455,1.171934962272644,1.184564232826233,1.6180078983306885,1.3398396968841553
18825.23313741778,1.1709635257720947,1.1848881244659424,1.6186555624008179,1.3403254747390747
18825.235137480107,1.1722588539123535,1.1853737831115723,1.6183316707611084,1.341296911239624
18825.237137542434,1.1727445125579834,1.1852118968963623,1.6183316707611084,1.3421064615249634
18825.23913760476,1.1729063987731934,1.1853737831115723,1.6178460121154785,1.3417826890945435
18825.241137667086,1.1730684041976929,1.1856976747512817,1.618493676185608,1.341135025024414
18825.243137729412,1.1729063987731934,1.1852118968963623,1.6186555624008179,1.341458797454834
18825.245137791735,1.172096848487854,1.1853737831115723,1.6188174486160278,1.3408111333847046
18825.24713785406,1.1727445125579834,1.1856976747512817,1.6188174486160278,1.341458797454834
18825.249137916388,1.1733921766281128,1.1856976747512817,1.6194651126861572,1.3408111333847046
18825.251137978714,1.1740398406982422,1.1860214471817017,1.6194651126861572,1.3403254747390747
18825.25313804104,1.1733921766281128,1.1853737831115723,1.6191413402557373,1.3403254747390747
18825.255138103366,1.1743637323379517,1.1853737831115723,1.6201127767562866,1.341620683670044
18825.257138165693,1.1745256185531616,1.1856976747512817,1.6212462186813354,1.3417826890945435
18825.25913822802,1.1758209466934204,1.1858595609664917,1.621084213256836,1.341458797454834
18825.261138290345,1.1758209466934204,1.1856976747512817,1.6202746629714966,1.341135025024414
18825.26313835267,1.1766304969787598,1.1861833333969116,1.620922327041626,1.341296911239624
18825.265138414998,1.175497055053711,1.1860214471817017,1.620922327041626,1.341296911239624
18825.267138477324,1.1758209466934204,1.1847261190414429,1.6218938827514648,1.341620683670044
18825.26913853965,1.1759828329086304,1.1853737831115723,1.6223795413970947,1.340973138809204
18825.271138601976,1.1759828329086304,1.1855357885360718,1.6218938827514648,1.3406492471694946
18825.273138664303,1.1750112771987915,1.1855357885360718,1.6215699911117554,1.3408111333847046
18825.27513872663,1.1761447191238403,1.1863453388214111,1.621084213256836,1.3430780172348022
18825.277138788955,1.1774400472640991,1.1856976747512817,1.6225415468215942,1.3429160118103027
18825.27913885128,1.1769542694091797,1.1860214471817017,1.6230272054672241,1.341458797454834
18825.281138913608,1.1766304969787598,1.186507225036621,1.623998761177063,1.3424303531646729
18825.28313897593,1.177601933479309,1.186830997467041,1.623189091682434,1.3429160118103027
18825.285139038257,1.1767923831939697,1.1874786615371704,1.623189091682434,1.3425922393798828
18825.287139100583,1.1771161556243896,1.1871548891067505,1.6223795413970947,1.3424303531646729
18825.28913916291,1.1774400472640991,1.1873167753219604,1.6223795413970947,1.3419445753097534
18825.291139225235,1.1771161556243896,1.186669111251831,1.6228653192520142,1.341620683670044
18825.29313928756,1.1764686107635498,1.1860214471817017,1.6228653192520142,1.3421064615249634
18825.295139349888,1.1772781610488892,1.1855357885360718,1.6220557689666748,1.3427541255950928
18825.297139412214,1.1764686107635498,1.1863453388214111,1.6220557689666748,1.3434017896652222
18825.29913947454,1.1771161556243896,1.186507225036621,1.6218938827514648,1.3424303531646729
18825.301139536867,1.1774400472640991,1.186830997467041,1.6222176551818848,1.3421064615249634
18825.303139599193,1.177601933479309,1.186669111251831,1.6222176551818848,1.3421064615249634
18825.30513966152,1.1759828329086304,1.1863453388214111,1.6233510971069336,1.3422683477401733
18825.307139723845,1.1769542694091797,1.1858595609664917,1.623189091682434,1.3435636758804321
18825.30913978617,1.1767923831939697,1.1873167753219604,1.6235129833221436,1.3429160118103027
18825.311139848498,1.1763066053390503,1.18764066696167,1.6227034330368042,1.3424303531646729
18825.313139910824,1.1750112771987915,1.1879644393920898,1.6223795413970947,1.3422683477401733
18825.31513997315,1.1763066053390503,1.1881263256072998,1.6220557689666748,1.3422683477401733
18825.317140035477,1.1759828329086304,1.1881263256072998,1.6218938827514648,1.3427541255950928
18825.319140097803,1.1758209466934204,1.1882882118225098,1.6218938827514648,1.3419445753097534
18825.32114016013,1.1758209466934204,1.1886121034622192,1.6228653192520142,1.3422683477401733
18825.323140222452,1.1761447191238403,1.1887739896774292,1.624160647392273,1.3425922393798828
18825.325140284778,1.1750112771987915,1.1881263256072998,1.6233510971069336,1.3425922393798828
18825.327140347104,1.1740398406982422,1.1881263256072998,1.6227034330368042,1.3425922393798828
18825.32914040943,1.1743637323379517,1.1879644393920898,1.6228653192520142,1.3429160118103027
18825.331140471757,1.175173282623291,1.1884502172470093,1.623998761177063,1.343725562095642
18825.333140534083,1.1737160682678223,1.1881263256072998,1.6238367557525635,1.3432399034500122
18825.33514059641,1.175497055053711,1.18764066696167,1.6238367557525635,1.3432399034500122
18825.337140658736,1.1763066053390503,1.1874786615371704,1.6233510971069336,1.3434017896652222
18825.339140721062,1.1758209466934204,1.18764066696167,1.6225415468215942,1.3434017896652222
18825.34114078339,1.1746875047683716,1.1879644393920898,1.6228653192520142,1.3443732261657715
18825.343140845715,1.1748493909835815,1.1878025531768799,1.6228653192520142,1.3442113399505615
18825.34514090804,1.1735540628433228,1.1874786615371704,1.6228653192520142,1.3435636758804321
18825.347140970367,1.1733921766281128,1.1886121034622192,1.6227034330368042,1.3434017896652222
18825.349141032693,1.1748493909835815,1.1892597675323486,1.6230272054672241,1.3427541255950928
18825.35114109502,1.175335168838501,1.1879644393920898,1.6236748695373535,1.3429160118103027
18825.353141157346,1.1748493909835815,1.1886121034622192,1.6236748695373535,1.3427541255950928
18825.355141219672,1.1763066053390503,1.1890978813171387,1.623998761177063,1.3442113399505615
18825.357141282,1.1750112771987915,1.1889358758926392,1.623189091682434,1.3442113399505615
18825.359141344325,1.1743637323379517,1.1887739896774292,1.6223795413970947,1.3427541255950928
18825.36114140665,1.175497055053711,1.1890978813171387,1.6230272054672241,1.3429160118103027
18825.363141468973,1.1767923831939697,1.1892597675323486,1.6238367557525635,1.343725562095642
18825.3651415313,1.175497055053711,1.1895835399627686,1.6238367557525635,1.3434017896652222
18825.367141593626,1.1746875047683716,1.1890978813171387,1.623998761177063,1.3427541255950928
18825.369141655952,1.1742017269134521,1.1895835399627686,1.6235129833221436,1.3432399034500122
18825.37114171828,1.1742017269134521,1.1892597675323486,1.623189091682434,1.3435636758804321
18825.373141780605,1.1735540628433228,1.189745545387268,1.6236748695373535,1.3442113399505615
18825.37514184293,1.175173282623291,1.190069317817688,1.6230272054672241,1.344535231590271
18825.377141905257,1.1759828329086304,1.190069317817688,1.6236748695373535,1.3438875675201416
18825.379141967584,1.175497055053711,1.1907169818878174,1.6236748695373535,1.3440494537353516
18825.38114202991,1.175335168838501,1.190393090248108,1.6235129833221436,1.344535231590271
18825.383142092236,1.175658941268921,1.190393090248108,1.6233510971069336,1.344535231590271
18825.385142154562,1.1737160682678223,1.190393090248108,1.6227034330368042,1.343725562095642
18825.38714221689,1.1743637323379517,1.1894216537475586,1.6222176551818848,1.343725562095642
18825.389142279215,1.1738779544830322,1.1889358758926392,1.6223795413970947,1.343725562095642
18825.39114234154,1.1735540628433228,1.1894216537475586,1.6217318773269653,1.3435636758804321
18825.393142403867,1.1725826263427734,1.190393090248108,1.6222176551818848,1.343725562095642
18825.395142466194,1.1745256185531616,1.190069317817688,1.6218938827514648,1.3438875675201416
18825.39714252852,1.1743637323379517,1.1895835399627686,1.620598554611206,1.3430780172348022
18825.399142590846,1.1733921766281128,1.1887739896774292,1.620922327041626,1.3425922393798828
18825.401142653172,1.1738779544830322,1.1889358758926392,1.620760440826416,1.3434017896652222
18825.403142715495,1.1746875047683716,1.1895835399627686,1.620598554611206,1.3430780172348022
18825.40514277782,1.1716111898422241,1.1892597675323486,1.6201127767562866,1.3429160118103027
18825.407142840148,1.171934962272644,1.1889358758926392,1.6201127767562866,1.3430780172348022
18825.409142902474,1.1712872982025146,1.1882882118225098,1.6194651126861572,1.3425922393798828
18825.4111429648,1.171934962272644,1.1879644393920898,1.6202746629714966,1.3425922393798828
18825.413143027126,1.1714491844177246,1.1882882118225098,1.620598554611206,1.3427541255950928
18825.415143089453,1.1730684041976929,1.1878025531768799,1.6193032264709473,1.3425922393798828
18825.41714315178,1.171934962272644,1.1879644393920898,1.6188174486160278,1.3422683477401733
18825.419143214105,1.171934962272644,1.1879644393920898,1.6191413402557373,1.3425922393798828
18825.42114327643,1.1716111898422241,1.1881263256072998,1.6188174486160278,1.3422683477401733
18825.423143338758,1.1725826263427734,1.1881263256072998,1.6191413402557373,1.3421064615249634
18825.425143401084,1.1708015203475952,1.1878025531768799,1.6197890043258667,1.341296911239624
18825.42714346341,1.169668197631836,1.1874786615371704,1.6193032264709473,1.341458797454834
18825.429143525736,1.169668197631836,1.1878025531768799,1.6189793348312378,1.341296911239624
18825.431143588063,1.169668197631836,1.1882882118225098,1.6186555624008179,1.3403254747390747
18825.43314365039,1.1693443059921265,1.1874786615371704,1.6188174486160278,1.3403254747390747
18825.435143712715,1.1711254119873047,1.1874786615371704,1.6191413402557373,1.3417826890945435
18825.43714377504,1.1712872982025146,1.1878025531768799,1.6197890043258667,1.3424303531646729
18825.439143837368,1.1701538562774658,1.1881263256072998,1.6199508905410767,1.3424303531646729
18825.44114389969,1.169668197631836,1.1882882118225098,1.620760440826416,1.3430780172348022
18825.443143962017,1.1704777479171753,1.1874786615371704,1.6202746629714966,1.3427541255950928
18825.445144024343,1.1701538562774658,1.1878025531768799,1.6197890043258667,1.3424303531646729
18825.44714408667,1.1703158617019653,1.1886121034622192,1.6197890043258667,1.341620683670044
18825.449144148995,1.1704777479171753,1.1878025531768799,1.6199508905410767,1.341620683670044
18825.45114421132,1.1699919700622559,1.1878025531768799,1.6194651126861572,1.3422683477401733
18825.453144273648,1.1690205335617065,1.1878025531768799,1.6194651126861572,1.3422683477401733
18825.455144335974,1.1716111898422241,1.1874786615371704,1.6199508905410767,1.3417826890945435
18825.4571443983,1.171934962272644,1.18764066696167,1.6201127767562866,1.341620683670044
18825.459144460627,1.1722588539123535,1.1874786615371704,1.620922327041626,1.3419445753097534
18825.461144522953,1.1722588539123535,1.1881263256072998,1.6202746629714966,1.3422683477401733
18825.46314458528,1.1729063987731934,1.1884502172470093,1.6202746629714966,1.3421064615249634
18825.465144647605,1.1712872982025146,1.1884502172470093,1.6214081048965454,1.341135025024414
18825.46714470993,1.1712872982025146,1.1886121034622192,1.6215699911117554,1.3419445753097534
18825.469144772258,1.1712872982025146,1.1884502172470093,1.6214081048965454,1.3424303531646729
18825.471144834584,1.1711254119873047,1.1890978813171387,1.620922327041626,1.3430780172348022
18825.47314489691,1.1699919700622559,1.1890978813171387,1.620436668395996,1.3427541255950928
18825.475144959237,1.1712872982025146,1.1887739896774292,1.620436668395996,1.3424303531646729
18825.477145021563,1.171934962272644,1.1890978813171387,1.620436668395996,1.341135025024414
18825.47914508389,1.1716111898422241,1.1884502172470093,1.620598554611206,1.3417826890945435
18825.481145146216,1.1712872982025146,1.1887739896774292,1.620760440826416,1.3427541255950928
18825.48314520854,1.1729063987731934,1.1886121034622192,1.6222176551818848,1.3427541255950928
18825.485145270864,1.1714491844177246,1.1881263256072998,1.6217318773269653,1.3421064615249634
18825.48714533319,1.1711254119873047,1.1889358758926392,1.6212462186813354,1.341296911239624
18825.489145395517,1.1708015203475952,1.1882882118225098,1.6212462186813354,1.3422683477401733
18825.491145457843,1.1711254119873047,1.1879644393920898,1.6218938827514648,1.3417826890945435
18825.49314552017,1.1706396341323853,1.1881263256072998,1.6220557689666748,1.3404873609542847
18825.495145582496,1.171773076057434,1.1881263256072998,1.6217318773269653,1.341458797454834
18825.497145644822,1.1712872982025146,1.1881263256072998,1.6214081048965454,1.3417826890945435
18825.49914570715,1.1716111898422241,1.1884502172470093,1.6222176551818848,1.3417826890945435
18825.501145769475,1.1709635257720947,1.1882882118225098,1.6217318773269653,1.341620683670044
18825.5031458318,1.1716111898422241,1.1889358758926392,1.6218938827514648,1.341620683670044
18825.505145894127,1.1703158617019653,1.1884502172470093,1.623189091682434,1.3404873609542847
18825.507145956453,1.1708015203475952,1.1887739896774292,1.6228653192520142,1.3398396968841553
18825.50914601878,1.169668197631836,1.1892597675323486,1.6220557689666748,1.341296911239624
18825.511146081106,1.169830083847046,1.1886121034622192,1.6217318773269653,1.340973138809204
18825.513146143432,1.1693443059921265,1.1881263256072998,1.6222176551818848,1.3406492471694946
18825.51514620576,1.1706396341323853,1.1892597675323486,1.6220557689666748,1.341296911239624
18825.517146268085,1.1711254119873047,1.1895835399627686,1.6220557689666748,1.3406492471694946
18825.51914633041,1.1712872982025146,1.190231204032898,1.6222176551818848,1.3406492471694946
18825.521146392733,1.1711254119873047,1.190069317817688,1.6217318773269653,1.3419445753097534
18825.52314645506,1.1712872982025146,1.189907431602478,1.6218938827514648,1.341296911239624
18825.525146517386,1.1690205335617065,1.189745545387268,1.6214081048965454,1.3406492471694946
18825.527146579712,1.1690205335617065,1.190069317817688,1.6215699911117554,1.3403254747390747
18825.52914664204,1.1688586473464966,1.1894216537475586,1.6217318773269653,1.3400015830993652
18825.531146704365,1.1682109832763672,1.189745545387268,1.6220557689666748,1.3403254747390747
18825.53314676669,1.1674014329910278,1.1894216537475586,1.6214081048965454,1.3403254747390747
18825.535146829017,1.1690205335617065,1.1894216537475586,1.620436668395996,1.3406492471694946
18825.537146891344,1.169830083847046,1.1890978813171387,1.620598554611206,1.340973138809204
18825.53914695367,1.169668197631836,1.1890978813171387,1.6215699911117554,1.3408111333847046
18825.541147015996,1.1691824197769165,1.1890978813171387,1.6214081048965454,1.3403254747390747
18825.543147078322,1.1701538562774658,1.1889358758926392,1.6212462186813354,1.3403254747390747
18825.54514714065,1.168534755706787,1.1882882118225098,1.6212462186813354,1.3401634693145752
18825.547147202975,1.1680489778518677,1.1889358758926392,1.620760440826416,1.341135025024414
18825.5491472653,1.1682109832763672,1.1890978813171387,1.620760440826416,1.3408111333847046
18825.551147327627,1.1669156551361084,1.1882882118225098,1.6201127767562866,1.3398396968841553
18825.553147389954,1.166267991065979,1.1887739896774292,1.6194651126861572,1.3401634693145752
18825.55514745228,1.1688586473464966,1.190231204032898,1.6201127767562866,1.3400015830993652
18825.557147514606,1.1682109832763672,1.190231204032898,1.6194651126861572,1.3398396968841553
18825.559147576932,1.1678870916366577,1.1894216537475586,1.6194651126861572,1.3406492471694946
18825.561147639255,1.1683728694915771,1.1887739896774292,1.6201127767562866,1.341620683670044
18825.56314770158,1.169668197631836,1.1887739896774292,1.620436668395996,1.3404873609542847
18825.565147763908,1.1674014329910278,1.1889358758926392,1.620760440826416,1.3398396968841553
18825.567147826234,1.1667537689208984,1.1882882118225098,1.6199508905410767,1.3400015830993652
18825.56914788856,1.166267991065979,1.18764066696167,1.6196269989013672,1.3396778106689453
18825.571147950886,1.1667537689208984,1.1884502172470093,1.620598554611206,1.3393539190292358
18825.573148013213,1.166591763496399,1.1879644393920898,1.6214081048965454,1.3398396968841553
18825.57514807554,1.1683728694915771,1.1884502172470093,1.6217318773269653,1.3396778106689453
18825.577148137865,1.168696641921997,1.1882882118225098,1.6212462186813354,1.3406492471694946
18825.57914820019,1.168534755706787,1.1884502172470093,1.620922327041626,1.3403254747390747
18825.581148262518,1.1678870916366577,1.1894216537475586,1.6199508905410767,1.3401634693145752
18825.583148324844,1.168696641921997,1.1894216537475586,1.620760440826416,1.3408111333847046
18825.58514838717,1.1683728694915771,1.1887739896774292,1.621084213256836,1.3404873609542847
18825.587148449496,1.1680489778518677,1.1881263256072998,1.6214081048965454,1.3400015830993652
18825.589148511823,1.1682109832763672,1.1878025531768799,1.6217318773269653,1.3408111333847046
18825.59114857415,1.169506311416626,1.1879644393920898,1.6215699911117554,1.341296911239624
18825.593148636475,1.168534755706787,1.1882882118225098,1.6214081048965454,1.3401634693145752
18825.5951486988,1.1699919700622559,1.1887739896774292,1.6218938827514648,1.3406492471694946
18825.597148761128,1.169830083847046,1.1894216537475586,1.6222176551818848,1.3406492471694946
18825.59914882345,1.1693443059921265,1.1890978813171387,1.6225415468215942,1.3400015830993652
18825.601148885777,1.1701538562774658,1.1892597675323486,1.6230272054672241,1.3406492471694946
18825.603148948103,1.1706396341323853,1.1892597675323486,1.6238367557525635,1.341296911239624
18825.60514901043,1.1690205335617065,1.1889358758926392,1.6236748695373535,1.340973138809204
18825.607149072755,1.169668197631836,1.1895835399627686,1.623189091682434,1.3417826890945435
18825.60914913508,1.1706396341323853,1.1892597675323486,1.623189091682434,1.3408111333847046
18825.611149197408,1.1708015203475952,1.1895835399627686,1.6233510971069336,1.3400015830993652
18825.613149259734,1.1709635257720947,1.1894216537475586,1.6235129833221436,1.3401634693145752
18825.61514932206,1.172096848487854,1.1894216537475586,1.6246464252471924,1.3421064615249634
18825.617149384387,1.1722588539123535,1.189907431602478,1.624322533607483,1.3419445753097534
18825.619149446713,1.172096848487854,1.190231204032898,1.6251320838928223,1.3422683477401733
18825.62114950904,1.1722588539123535,1.1905550956726074,1.6252940893173218,1.3425922393798828
18825.623149571366,1.1732302904129028,1.1910407543182373,1.6248083114624023,1.3427541255950928
18825.62514963369,1.1716111898422241,1.1915265321731567,1.6251320838928223,1.3422683477401733
18825.627149696018,1.171773076057434,1.1916884183883667,1.6254559755325317,1.341458797454834
18825.629149758344,1.172096848487854,1.1913646459579468,1.6254559755325317,1.3419445753097534
18825.63114982067,1.171773076057434,1.1915265321731567,1.6251320838928223,1.341296911239624
18825.633149882997,1.1716111898422241,1.1907169818878174,1.6248083114624023,1.341458797454834
18825.635149945323,1.1740398406982422,1.190231204032898,1.6248083114624023,1.3417826890945435
18825.63715000765,1.1730684041976929,1.1907169818878174,1.6251320838928223,1.341458797454834
18825.639150069976,1.1722588539123535,1.1908788681030273,1.6252940893173218,1.3422683477401733
18825.6411501323,1.1725826263427734,1.1908788681030273,1.6256178617477417,1.3424303531646729
18825.643150194624,1.1738779544830322,1.1910407543182373,1.6249701976776123,1.3425922393798828
18825.64515025695,1.171773076057434,1.1912027597427368,1.6248083114624023,1.3424303531646729
18825.647150319277,1.1711254119873047,1.1907169818878174,1.624160647392273,1.3422683477401733
18825.649150381603,1.1709635257720947,1.190231204032898,1.6235129833221436,1.3417826890945435
18825.65115044393,1.1711254119873047,1.1892597675323486,1.6235129833221436,1.341620683670044
18825.653150506256,1.1704777479171753,1.1894216537475586,1.6236748695373535,1.341296911239624
18825.655150568582,1.1727445125579834,1.190069317817688,1.623998761177063,1.3419445753097534
18825.65715063091,1.1724207401275635,1.1908788681030273,1.6236748695373535,1.3422683477401733
18825.659150693235,1.1709635257720947,1.1905550956726074,1.6233510971069336,1.3419445753097534
18825.66115075556,1.1712872982025146,1.1907169818878174,1.6227034330368042,1.3424303531646729
18825.663150817887,1.171934962272644,1.190069317817688,1.6235129833221436,1.3424303531646729
18825.665150880213,1.1704777479171753,1.190393090248108,1.6228653192520142,1.3425922393798828
18825.66715094254,1.1714491844177246,1.189907431602478,1.623189091682434,1.3406492471694946
18825.669151004866,1.1712872982025146,1.189745545387268,1.6233510971069336,1.340973138809204
18825.671151067192,1.1699919700622559,1.1894216537475586,1.6227034330368042,1.341458797454834
18825.67315112952,1.169668197631836,1.1905550956726074,1.6223795413970947,1.341135025024414
18825.675151191845,1.1716111898422241,1.189907431602478,1.623189091682434,1.341620683670044
18825.67715125417,1.172096848487854,1.190231204032898,1.6227034330368042,1.3417826890945435
18825.679151316494,1.1712872982025146,1.1907169818878174,1.6228653192520142,1.341135025024414
18825.68115137882,1.1708015203475952,1.189907431602478,1.621084213256836,1.341296911239624
18825.683151441146,1.1704777479171753,1.189907431602478,1.6215699911117554,1.341458797454834
18825.685151503472,1.1690205335617065,1.1894216537475586,1.6225415468215942,1.3419445753097534
18825.6871515658,1.169668197631836,1.1895835399627686,1.6220557689666748,1.341135025024414
18825.689151628125,1.1693443059921265,1.189907431602478,1.6218938827514648,1.3417826890945435
18825.69115169045,1.1682109832763672,1.189907431602478,1.621084213256836,1.341296911239624
18825.693151752777,1.1680489778518677,1.190069317817688,1.620436668395996,1.340973138809204
18825.695151815104,1.1706396341323853,1.189745545387268,1.620760440826416,1.3419445753097534
18825.69715187743,1.1703158617019653,1.190231204032898,1.620436668395996,1.3419445753097534
18825.699151939756,1.1699919700622559,1.1905550956726074,1.620598554611206,1.341458797454834
18825.701152002082,1.169506311416626,1.190231204032898,1.621084213256836,1.3417826890945435
18825.70315206441,1.1704777479171753,1.190393090248108,1.620922327041626,1.341620683670044
18825.705152126735,1.1682109832763672,1.1894216537475586,1.6199508905410767,1.341458797454834
18825.70715218906,1.168534755706787,1.1892597675323486,1.6191413402557373,1.341135025024414
18825.709152251387,1.1680489778518677,1.1892597675323486,1.6191413402557373,1.341458797454834
18825.711152313714,1.1680489778518677,1.1890978813171387,1.6189793348312378,1.3403254747390747
18825.71315237604,1.1670775413513184,1.1887739896774292,1.6193032264709473,1.3400015830993652
18825.715152438366,1.1690205335617065,1.1887739896774292,1.6196269989013672,1.3403254747390747
18825.717152500692,1.1699919700622559,1.1890978813171387,1.6197890043258667,1.3406492471694946
18825.719152563015,1.168696641921997,1.1889358758926392,1.6199508905410767,1.340973138809204
18825.72115262534,1.1680489778518677,1.1889358758926392,1.6199508905410767,1.3422683477401733
18825.723152687668,1.1693443059921265,1.1889358758926392,1.620760440826416,1.341620683670044
18825.725152749994,1.1682109832763672,1.1894216537475586,1.6212462186813354,1.341135025024414
18825.72715281232,1.1682109832763672,1.1905550956726074,1.6212462186813354,1.3419445753097534
18825.729152874646,1.1682109832763672,1.1895835399627686,1.6214081048965454,1.3417826890945435
18825.731152936973,1.1674014329910278,1.189745545387268,1.620760440826416,1.340973138809204
18825.7331529993,1.1677252054214478,1.189745545387268,1.6215699911117554,1.3417826890945435
18825.735153061625,1.1701538562774658,1.189907431602478,1.6212462186813354,1.3419445753097534
18825.73715312395,1.1699919700622559,1.1890978813171387,1.620598554611206,1.3425922393798828
18825.739153186278,1.169506311416626,1.189907431602478,1.620598554611206,1.3430780172348022
18825.741153248604,1.1693443059921265,1.1907169818878174,1.6202746629714966,1.3432399034500122
18825.74315331093,1.1703158617019653,1.1908788681030273,1.620598554611206,1.3429160118103027
18825.745153373256,1.1693443059921265,1.1907169818878174,1.620598554611206,1.3425922393798828
18825.747153435583,1.1706396341323853,1.1907169818878174,1.620436668395996,1.3427541255950928
18825.74915349791,1.1712872982025146,1.1905550956726074,1.620760440826416,1.3432399034500122
18825.751153560235,1.1703158617019653,1.190393090248108,1.6202746629714966,1.3427541255950928
18825.75315362256,1.1693443059921265,1.189745545387268,1.621084213256836,1.3422683477401733
18825.755153684888,1.171773076057434,1.190069317817688,1.6212462186813354,1.3421064615249634
18825.75715374721,1.172096848487854,1.1905550956726074,1.621084213256836,1.3435636758804321
18825.759153809537,1.171773076057434,1.1890978813171387,1.621084213256836,1.3435636758804321
18825.761153871863,1.1716111898422241,1.1894216537475586,1.620760440826416,1.343725562095642
18825.76315393419,1.172096848487854,1.190393090248108,1.620760440826416,1.3432399034500122
18825.765153996515,1.169668197631836,1.190393090248108,1.620598554611206,1.3425922393798828
18825.76715405884,1.169830083847046,1.190069317817688,1.6201127767562866,1.3424303531646729
18825.769154121168,1.169830083847046,1.1895835399627686,1.6196269989013672,1.3422683477401733
18825.771154183494,1.1693443059921265,1.1894216537475586,1.6194651126861572,1.3421064615249634
18825.77315424582,1.169506311416626,1.1892597675323486,1.6194651126861572,1.341620683670044
18825.775154308147,1.1706396341323853,1.1892597675323486,1.6202746629714966,1.3419445753097534
18825.777154370473,1.1706396341323853,1.1892597675323486,1.6199508905410767,1.3417826890945435
18825.7791544328,1.1706396341323853,1.189745545387268,1.6191413402557373,1.3417826890945435
18825.781154495126,1.1704777479171753,1.1895835399627686,1.6191413402557373,1.3424303531646729
18825.78315455745,1.1716111898422241,1.1892597675323486,1.6197890043258667,1.3425922393798828
18825.785154619778,1.169506311416626,1.189907431602478,1.6189793348312378,1.3424303531646729
18825.787154682104,1.169506311416626,1.1905550956726074,1.6189793348312378,1.3422683477401733
18825.78915474443,1.1704777479171753,1.1884502172470093,1.6189793348312378,1.3422683477401733
18825.791154806757,1.1699919700622559,1.1884502172470093,1.6194651126861572,1.341458797454834
18825.793154869083,1.1691824197769165,1.1878025531768799,1.6202746629714966,1.341458797454834
18825.79515493141,1.1706396341323853,1.1886121034622192,1.6199508905410767,1.3425922393798828
18825.797154993736,1.1704777479171753,1.1889358758926392,1.6191413402557373,1.3425922393798828
18825.79915505606,1.1701538562774658,1.1889358758926392,1.6189793348312378,1.3421064615249634
18825.801155118384,1.1703158617019653,1.1881263256072998,1.6196269989013672,1.3425922393798828
18825.80315518071,1.1704777479171753,1.1882882118225098,1.6202746629714966,1.3424303531646729
18825.805155243037,1.1688586473464966,1.1886121034622192,1.620598554611206,1.3422683477401733
18825.807155305363,1.168696641921997,1.1892597675323486,1.6194651126861572,1.3422683477401733
18825.80915536769,1.1691824197769165,1.1892597675323486,1.6197890043258667,1.3417826890945435
18825.811155430016,1.1703158617019653,1.1889358758926392,1.620922327041626,1.3406492471694946
18825.813155492342,1.169830083847046,1.1887739896774292,1.620436668395996,1.3417826890945435
18825.81515555467,1.1712872982025146,1.1889358758926392,1.6201127767562866,1.3422683477401733
18825.817155616995,1.1711254119873047,1.1892597675323486,1.6201127767562866,1.3417826890945435
18825.81915567932,1.1701538562774658,1.1894216537475586,1.6197890043258667,1.3419445753097534
18825.821155741647,1.169668197631836,1.1894216537475586,1.6201127767562866,1.341458797454834
18825.823155803973,1.1714491844177246,1.1895835399627686,1.620436668395996,1.341135025024414
18825.8251558663,1.169506311416626,1.1894216537475586,1.6201127767562866,1.3417826890945435
18825.827155928626,1.169506311416626,1.1894216537475586,1.6201127767562866,1.3425922393798828
18825.829155990952,1.169830083847046,1.1887739896774292,1.6202746629714966,1.3424303531646729
18825.83115605328,1.1693443059921265,1.1887739896774292,1.620922327041626,1.341620683670044
18825.833156115605,1.168534755706787,1.1894216537475586,1.620760440826416,1.3427541255950928
18825.83515617793,1.1706396341323853,1.190231204032898,1.620436668395996,1.3434017896652222
18825.837156240254,1.1706396341323853,1.189907431602478,1.620598554611206,1.3427541255950928
18825.83915630258,1.1708015203475952,1.189745545387268,1.620922327041626,1.3427541255950928
18825.841156364906,1.1709635257720947,1.189745545387268,1.6217318773269653,1.3434017896652222
18825.843156427232,1.1714491844177246,1.190231204032898,1.6218938827514648,1.3435636758804321
18825.84515648956,1.1693443059921265,1.190393090248108,1.620922327041626,1.3434017896652222
18825.847156551885,1.168534755706787,1.1905550956726074,1.620760440826416,1.3427541255950928
18825.84915661421,1.1691824197769165,1.1889358758926392,1.6199508905410767,1.3434017896652222
18825.851156676537,1.1699919700622559,1.1894216537475586,1.6197890043258667,1.3430780172348022
18825.853156738864,1.1690205335617065,1.189907431602478,1.6201127767562866,1.3438875675201416
18825.85515680119,1.1712872982025146,1.1894216537475586,1.6201127767562866,1.3432399034500122
18825.857156863516,1.1709635257720947,1.189745545387268,1.620598554611206,1.3430780172348022
18825.859156925842,1.1716111898422241,1.189907431602478,1.621084213256836,1.343725562095642
18825.86115698817,1.171773076057434,1.190069317817688,1.620436668395996,1.3427541255950928
18825.863157050495,1.172096848487854,1.1913646459579468,1.620436668395996,1.3432399034500122
18825.86515711282,1.1704777479171753,1.1905550956726074,1.620598554611206,1.3430780172348022
18825.867157175147,1.169830083847046,1.190231204032898,1.6201127767562866,1.3425922393798828
18825.869157237474,1.1699919700622559,1.1905550956726074,1.6193032264709473,1.3432399034500122
18825.8711572998,1.1708015203475952,1.190069317817688,1.6189793348312378,1.3421064615249634
18825.873157362126,1.169668197631836,1.1894216537475586,1.6201127767562866,1.3430780172348022
18825.875157424452,1.171934962272644,1.1892597675323486,1.6196269989013672,1.3440494537353516
18825.877157486775,1.1711254119873047,1.189745545387268,1.6194651126861572,1.344535231590271
18825.8791575491,1.1712872982025146,1.1892597675323486,1.6193032264709473,1.344859004020691
18825.881157611428,1.1716111898422241,1.1889358758926392,1.6191413402557373,1.3451828956604004
18825.883157673754,1.172096848487854,1.1894216537475586,1.6191413402557373,1.344859004020691
18825.88515773608,1.1701538562774658,1.190231204032898,1.6199508905410767,1.3442113399505615
18825.887157798406,1.1708015203475952,1.189907431602478,1.620436668395996,1.3443732261657715
18825.889157860733,1.171773076057434,1.1892597675323486,1.6201127767562866,1.3438875675201416
18825.89115792306,1.1716111898422241,1.190231204032898,1.620436668395996,1.3438875675201416
18825.893157985385,1.1704777479171753,1.1907169818878174,1.6197890043258667,1.343725562095642
18825.89515804771,1.1716111898422241,1.189907431602478,1.6202746629714966,1.343725562095642
18825.897158110038,1.171934962272644,1.1905550956726074,1.6199508905410767,1.3435636758804321
18825.899158172364,1.1712872982025146,1.190231204032898,1.6199508905410767,1.3438875675201416
18825.90115823469,1.1711254119873047,1.189907431602478,1.6202746629714966,1.3435636758804321
18825.903158297016,1.171773076057434,1.1895835399627686,1.6214081048965454,1.343725562095642
18825.905158359343,1.1708015203475952,1.189907431602478,1.621084213256836,1.3430780172348022
18825.90715842167,1.1709635257720947,1.1894216537475586,1.621084213256836,1.3442113399505615
18825.909158483995,1.1714491844177246,1.1889358758926392,1.621084213256836,1.3442113399505615
18825.91115854632,1.1714491844177246,1.189745545387268,1.6214081048965454,1.3429160118103027
18825.913158608648,1.1712872982025146,1.1894216537475586,1.6217318773269653,1.3429160118103027
18825.915158670974,1.1730684041976929,1.1889358758926392,1.6214081048965454,1.3432399034500122
18825.917158733297,1.1729063987731934,1.189745545387268,1.6217318773269653,1.343725562095642
18825.919158795623,1.172096848487854,1.189745545387268,1.621084213256836,1.3435636758804321
18825.92115885795,1.1727445125579834,1.1895835399627686,1.620760440826416,1.3440494537353516
18825.923158920275,1.1738779544830322,1.1895835399627686,1.621084213256836,1.3434017896652222
18825.9251589826,1.1724207401275635,1.1887739896774292,1.6214081048965454,1.3429160118103027
18825.927159044928,1.1729063987731934,1.1884502172470093,1.620598554611206,1.3429160118103027
18825.929159107254,1.172096848487854,1.1894216537475586,1.620598554611206,1.3438875675201416
18825.93115916958,1.1716111898422241,1.189745545387268,1.620598554611206,1.3429160118103027
18825.933159231907,1.1712872982025146,1.189907431602478,1.6201127767562866,1.3432399034500122
18825.935159294233,1.1729063987731934,1.1895835399627686,1.620922327041626,1.3438875675201416
18825.93715935656,1.1729063987731934,1.1892597675323486,1.6218938827514648,1.343725562095642
18825.939159418886,1.1729063987731934,1.1895835399627686,1.6217318773269653,1.3434017896652222
18825.94115948121,1.1733921766281128,1.189745545387268,1.6217318773269653,1.3430780172348022
18825.943159543538,1.1738779544830322,1.189745545387268,1.620760440826416,1.3434017896652222
18825.945159605864,1.1725826263427734,1.1892597675323486,1.6201127767562866,1.3435636758804321
18825.94715966819,1.1727445125579834,1.1890978813171387,1.620598554611206,1.3427541255950928
18825.949159730517,1.1722588539123535,1.1886121034622192,1.620760440826416,1.3429160118103027
18825.951159792843,1.171934962272644,1.1889358758926392,1.621084213256836,1.343725562095642
18825.95315985517,1.171773076057434,1.1894216537475586,1.620922327041626,1.344535231590271
18825.955159917496,1.1727445125579834,1.189745545387268,1.620598554611206,1.3438875675201416
18825.95715997982,1.1733921766281128,1.190069317817688,1.620436668395996,1.3435636758804321
18825.959160042145,1.1735540628433228,1.189907431602478,1.6214081048965454,1.343725562095642
18825.96116010447,1.1738779544830322,1.1905550956726074,1.621084213256836,1.3438875675201416
18825.963160166797,1.1738779544830322,1.190069317817688,1.6217318773269653,1.3443732261657715
18825.965160229123,1.1725826263427734,1.189907431602478,1.6222176551818848,1.3440494537353516
18825.96716029145,1.1727445125579834,1.189907431602478,1.621084213256836,1.3435636758804321
18825.969160353776,1.1738779544830322,1.1887739896774292,1.621084213256836,1.3440494537353516
18825.971160416102,1.1730684041976929,1.1887739896774292,1.6215699911117554,1.3432399034500122
18825.97316047843,1.1733921766281128,1.1895835399627686,1.6215699911117554,1.3434017896652222
18825.975160540755,1.1743637323379517,1.190393090248108,1.6212462186813354,1.3443732261657715
18825.97716060308,1.1746875047683716,1.1905550956726074,1.6218938827514648,1.3443732261657715
18825.979160665407,1.1748493909835815,1.189745545387268,1.6222176551818848,1.3440494537353516
18825.981160727733,1.1746875047683716,1.1894216537475586,1.6228653192520142,1.3451828956604004
18825.98316079006,1.1750112771987915,1.1895835399627686,1.6230272054672241,1.3455066680908203
18825.985160852386,1.1735540628433228,1.1895835399627686,1.6230272054672241,1.3443732261657715
18825.987160914712,1.1743637323379517,1.1905550956726074,1.6230272054672241,1.3450208902359009
18825.98916097704,1.1746875047683716,1.189907431602478,1.6236748695373535,1.344859004020691
18825.991161039365,1.1743637323379517,1.1890978813171387,1.6238367557525635,1.3453447818756104
18825.99316110169,1.1729063987731934,1.1890978813171387,1.6238367557525635,1.3453447818756104
18825.995161164014,1.1743637323379517,1.1879644393920898,1.6225415468215942,1.3451828956604004
18825.99716122634,1.1750112771987915,1.1884502172470093,1.6227034330368042,1.344859004020691
18825.999161288666,1.175497055053711,1.1890978813171387,1.6227034330368042,1.3440494537353516
18826.001161350992,1.1758209466934204,1.1890978813171387,1.6223795413970947,1.343725562095642
18826.00316141332,1.175497055053711,1.1892597675323486,1.6223795413970947,1.3438875675201416
18826.005161475645,1.1748493909835815,1.1890978813171387,1.6227034330368042,1.3438875675201416
18826.00716153797,1.1745256185531616,1.1889358758926392,1.6227034330368042,1.3435636758804321
18826.009161600297,1.1746875047683716,1.1882882118225098,1.6225415468215942,1.3434017896652222
18826.011161662624,1.1740398406982422,1.1886121034622192,1.6217318773269653,1.343725562095642
18826.01316172495,1.1732302904129028,1.1890978813171387,1.6222176551818848,1.3432399034500122
18826.015161787276,1.1750112771987915,1.1889358758926392,1.6222176551818848,1.3434017896652222
18826.017161849602,1.1748493909835815,1.1889358758926392,1.6222176551818848,1.3427541255950928
18826.01916191193,1.1733921766281128,1.1894216537475586,1.6212462186813354,1.3430780172348022
18826.021161974255,1.1733921766281128,1.190069317817688,1.6215699911117554,1.3435636758804321
18826.02316203658,1.1743637323379517,1.1890978813171387,1.6214081048965454,1.3429160118103027
18826.025162098907,1.1727445125579834,1.1882882118225098,1.6202746629714966,1.3429160118103027
18826.027162161234,1.1727445125579834,1.1881263256072998,1.6199508905410767,1.3434017896652222
18826.02916222356,1.1725826263427734,1.1882882118225098,1.620760440826416,1.3430780172348022
18826.031162285886,1.171773076057434,1.1878025531768799,1.6217318773269653,1.3419445753097534
18826.033162348212,1.1724207401275635,1.1882882118225098,1.6214081048965454,1.341620683670044
18826.03516241054,1.1732302904129028,1.1878025531768799,1.620598554611206,1.3422683477401733
18826.03716247286,1.1737160682678223,1.1878025531768799,1.6197890043258667,1.3421064615249634
18826.039162535188,1.1742017269134521,1.1882882118225098,1.620436668395996,1.341296911239624
18826.041162597514,1.1737160682678223,1.1889358758926392,1.620598554611206,1.3422683477401733
18826.04316265984,1.1738779544830322,1.1878025531768799,1.6197890043258667,1.3424303531646729
18826.045162722166,1.1722588539123535,1.1873167753219604,1.6196269989013672,1.341620683670044
18826.047162784493,1.1716111898422241,1.1886121034622192,1.6202746629714966,1.3406492471694946
18826.04916284682,1.172096848487854,1.1882882118225098,1.6199508905410767,1.3406492471694946
18826.051162909145,1.1706396341323853,1.1874786615371704,1.6196269989013672,1.340973138809204
18826.05316297147,1.1703158617019653,1.18764066696167,1.6197890043258667,1.3417826890945435
18826.055163033798,1.172096848487854,1.1873167753219604,1.6194651126861572,1.3419445753097534
18826.057163096124,1.1730684041976929,1.1874786615371704,1.6197890043258667,1.3419445753097534
18826.05916315845,1.1725826263427734,1.186507225036621,1.6196269989013672,1.3417826890945435
18826.061163220777,1.1716111898422241,1.186830997467041,1.6189793348312378,1.341458797454834
18826.063163283103,1.1716111898422241,1.186669111251831,1.6191413402557373,1.3406492471694946
18826.06516334543,1.1701538562774658,1.186669111251831,1.6189793348312378,1.3400015830993652
18826.067163407755,1.1708015203475952,1.1856976747512817,1.6188174486160278,1.3401634693145752
18826.06916347008,1.1714491844177246,1.1855357885360718,1.618493676185608,1.3403254747390747
18826.071163532408,1.1706396341323853,1.1856976747512817,1.6183316707611084,1.341135025024414
18826.073163594734,1.1699919700622559,1.1855357885360718,1.6183316707611084,1.3404873609542847
18826.075163657057,1.1706396341323853,1.186830997467041,1.618493676185608,1.340973138809204
18826.077163719383,1.1712872982025146,1.186830997467041,1.6180078983306885,1.341135025024414
18826.07916378171,1.1716111898422241,1.186830997467041,1.617522120475769,1.340973138809204
18826.081163844035,1.171934962272644,1.186830997467041,1.618493676185608,1.341296911239624
18826.08316390636,1.1727445125579834,1.186830997467041,1.6183316707611084,1.341458797454834
18826.085163968688,1.1711254119873047,1.1861833333969116,1.6181697845458984,1.340973138809204
18826.087164031014,1.171773076057434,1.1855357885360718,1.618493676185608,1.3408111333847046
18826.08916409334,1.171773076057434,1.1853737831115723,1.6194651126861572,1.3404873609542847
18826.091164155667,1.1722588539123535,1.1856976747512817,1.6191413402557373,1.3403254747390747
18826.093164217993,1.1716111898422241,1.1860214471817017,1.6188174486160278,1.3401634693145752
18826.09516428032,1.1735540628433228,1.1860214471817017,1.6196269989013672,1.341296911239624
18826.097164342646,1.1735540628433228,1.186830997467041,1.6199508905410767,1.3427541255950928
18826.09916440497,1.1733921766281128,1.1873167753219604,1.621084213256836,1.3421064615249634
18826.101164467298,1.1738779544830322,1.1873167753219604,1.621084213256836,1.341458797454834
18826.103164529624,1.175173282623291,1.18764066696167,1.6212462186813354,1.3408111333847046
18826.10516459195,1.1732302904129028,1.1879644393920898,1.621084213256836,1.341620683670044
18826.107164654277,1.1740398406982422,1.1881263256072998,1.6217318773269653,1.3419445753097534
18826.109164716603,1.1750112771987915,1.1879644393920898,1.6220557689666748,1.341296911239624
18826.11116477893,1.1746875047683716,1.186507225036621,1.623189091682434,1.341135025024414
18826.113164841256,1.1745256185531616,1.1863453388214111,1.6230272054672241,1.341458797454834
18826.11516490358,1.1759828329086304,1.186669111251831,1.623189091682434,1.341620683670044
18826.117164965905,1.175497055053711,1.1873167753219604,1.6233510971069336,1.3419445753097534
18826.11916502823,1.1746875047683716,1.1871548891067505,1.6227034330368042,1.3419445753097534
18826.121165090557,1.1750112771987915,1.1869930028915405,1.6227034330368042,1.3417826890945435
18826.123165152883,1.1761447191238403,1.1869930028915405,1.6222176551818848,1.3424303531646729
18826.12516521521,1.175173282623291,1.1879644393920898,1.6233510971069336,1.341620683670044
18826.127165277536,1.175335168838501,1.1874786615371704,1.623998761177063,1.3419445753097534
18826.129165339862,1.1763066053390503,1.1869930028915405,1.6246464252471924,1.341620683670044
18826.13116540219,1.1758209466934204,1.186830997467041,1.6238367557525635,1.341296911239624
18826.133165464515,1.1742017269134521,1.1879644393920898,1.6236748695373535,1.341135025024414
18826.13516552684,1.1763066053390503,1.1879644393920898,1.6235129833221436,1.341620683670044
18826.137165589167,1.1769542694091797,1.1869930028915405,1.6238367557525635,1.341458797454834
18826.139165651493,1.1764686107635498,1.1871548891067505,1.6233510971069336,1.3417826890945435
18826.14116571382,1.1769542694091797,1.1874786615371704,1.6228653192520142,1.3417826890945435
18826.143165776146,1.1769542694091797,1.186507225036621,1.624160647392273,1.3417826890945435
18826.145165838472,1.175497055053711,1.186669111251831,1.624322533607483,1.3417826890945435
18826.1471659008,1.175497055053711,1.1874786615371704,1.6238367557525635,1.341620683670044
18826.149165963125,1.1745256185531616,1.1873167753219604,1.623189091682434,1.3419445753097534
18826.15116602545,1.1738779544830322,1.1878025531768799,1.6227034330368042,1.3417826890945435
18826.153166087774,1.1729063987731934,1.1882882118225098,1.6222176551818848,1.3419445753097534
18826.1551661501,1.1745256185531616,1.1879644393920898,1.6217318773269653,1.3427541255950928
18826.157166212426,1.1746875047683716,1.1881263256072998,1.6218938827514648,1.3432399034500122
18826.159166274752,1.1746875047683716,1.1881263256072998,1.620922327041626,1.3422683477401733
18826.16116633708,1.1742017269134521,1.1879644393920898,1.6212462186813354,1.341135025024414
18826.163166399405,1.1737160682678223,1.1884502172470093,1.620922327041626,1.3401634693145752
18826.16516646173,1.171773076057434,1.1879644393920898,1.6202746629714966,1.3401634693145752
18826.167166524057,1.1711254119873047,1.1869930028915405,1.6202746629714966,1.3408111333847046
18826.169166586384,1.1714491844177246,1.1871548891067505,1.6202746629714966,1.340973138809204
18826.17116664871,1.1711254119873047,1.1882882118225098,1.6199508905410767,1.3401634693145752
18826.173166711036,1.1701538562774658,1.1874786615371704,1.6191413402557373,1.3396778106689453
18826.175166773362,1.1708015203475952,1.1873167753219604,1.6188174486160278,1.3396778106689453
18826.17716683569,1.1706396341323853,1.1874786615371704,1.6186555624008179,1.3398396968841553
18826.179166898015,1.169830083847046,1.1873167753219604,1.6178460121154785,1.3396778106689453
18826.18116696034,1.1703158617019653,1.1873167753219604,1.6176841259002686,1.3403254747390747
18826.183167022667,1.1708015203475952,1.1873167753219604,1.6188174486160278,1.3406492471694946
18826.185167084994,1.169668197631836,1.186507225036621,1.6188174486160278,1.3404873609542847
18826.18716714732,1.1693443059921265,1.186669111251831,1.617522120475769,1.3398396968841553
18826.189167209646,1.169668197631836,1.1874786615371704,1.617522120475769,1.3396778106689453
18826.191167271973,1.1690205335617065,1.1878025531768799,1.6188174486160278,1.3398396968841553
18826.1931673343,1.168696641921997,1.1871548891067505,1.6186555624008179,1.3401634693145752
18826.19516739662,1.1704777479171753,1.186830997467041,1.6186555624008179,1.3404873609542847
18826.197167458948,1.1708015203475952,1.1861833333969116,1.6193032264709473,1.3398396968841553
18826.199167521274,1.1709635257720947,1.186830997467041,1.6197890043258667,1.3396778106689453
18826.2011675836,1.1716111898422241,1.186669111251831,1.6194651126861572,1.3406492471694946
18826.203167645926,1.1727445125579834,1.1874786615371704,1.6201127767562866,1.340973138809204
18826.205167708253,1.1712872982025146,1.1884502172470093,1.6220557689666748,1.340973138809204
18826.20716777058,1.171773076057434,1.1886121034622192,1.6233510971069336,1.341296911239624
18826.209167832905,1.1727445125579834,1.1889358758926392,1.6235129833221436,1.340973138809204
18826.21116789523,1.1735540628433228,1.1887739896774292,1.6244844198226929,1.340973138809204
18826.213167957558,1.1746875047683716,1.1890978813171387,1.6252940893173218,1.341458797454834
18826.215168019884,1.1766304969787598,1.1887739896774292,1.6267513036727905,1.3421064615249634
18826.21716808221,1.177763819694519,1.190231204032898,1.6282085180282593,1.3432399034500122
18826.219168144537,1.178735375404358,1.1910407543182373,1.6304752826690674,1.343725562095642
18826.221168206863,1.1805163621902466,1.1915265321731567,1.6319324970245361,1.3451828956604004
