time,X_NOSE,Y_NOSE,Z_NOSE,visibility_NOSE,X_LEFT_EYE_INNER,Y_LEFT_EYE_INNER,Z_LEFT_EYE_INNER,visibility_LEFT_EYE_INNER,X_LEFT_EYE,Y_LEFT_EYE,Z_LEFT_EYE,visibility_LEFT_EYE,X_LEFT_EYE_OUTER,Y_LEFT_EYE_OUTER,Z_LEFT_EYE_OUTER,visibility_LEFT_EYE_OUTER,X_RIGHT_EYE_OUTER,Y_RIGHT_EYE_OUTER,Z_RIGHT_EYE_OUTER,visibility_RIGHT_EYE_OUTER,X_RIGHT_EYE,Y_RIGHT_EYE,Z_RIGHT_EYE,visibility_RIGHT_EYE,X_RIGHT_EYE_OUTER,Y_RIGHT_EYE_OUTER,Z_RIGHT_EYE_OUTER,visibility_RIGHT_EYE_OUTER,X_LEFT_EAR,Y_LEFT_EAR,Z_LEFT_EAR,visibility_LEFT_EAR,X_RIGHT_EAR,Y_RIGHT_EAR,Z_RIGHT_EAR,visibility_RIGHT_EAR,X_MOUTH_LEFT,Y_MOUTH_LEFT,Z_MOUTH_LEFT,visibility_MOUTH_LEFT,X_MOUTH_RIGHT,Y_MOUTH_RIGHT,Z_MOUTH_RIGHT,visibility_MOUTH_RIGHT,X_LEFT_SHOULDER,Y_LEFT_SHOULDER,Z_LEFT_SHOULDER,visibility_LEFT_SHOULDER,X_RIGHT_SHOULDER,Y_RIGHT_SHOULDER,Z_RIGHT_SHOULDER,visibility_RIGHT_SHOULDER,X_LEFT_ELBOW,Y_LEFT_ELBOW,Z_LEFT_ELBOW,visibility_LEFT_ELBOW,X_RIGHT_ELBOW,Y_RIGHT_ELBOW,Z_RIGHT_ELBOW,visibility_RIGHT_ELBOW,X_LEFT_WRIST,Y_LEFT_WRIST,Z_LEFT_WRIST,visibility_LEFT_WRIST,X_RIGHT_WRIST,Y_RIGHT_WRIST,Z_RIGHT_WRIST,visibility_RIGHT_WRIST,X_LEFT_PINKY,Y_LEFT_PINKY,Z_LEFT_PINKY,visibility_LEFT_PINKY,X_RIGHT_PINKY,Y_RIGHT_PINKY,Z_RIGHT_PINKY,visibility_RIGHT_PINKY,X_LEFT_INDEX,Y_LEFT_INDEX,Z_LEFT_INDEX,visibility_LEFT_INDEX,X_RIGHT_INDEX,Y_RIGHT_INDEX,Z_RIGHT_INDEX,visibility_RIGHT_INDEX,X_LEFT_THUMB,Y_LEFT_THUMB,Z_LEFT_THUMB,visibility_LEFT_THUMB,X_RIGHT_THUMB,Y_RIGHT_THUMB,Z_RIGHT_THUMB,visibility_RIGHT_THUMB,X_LEFT_HIP,Y_LEFT_HIP,Z_LEFT_HIP,visibility_LEFT_HIP,X_RIGHT_HIP,Y_RIGHT_HIP,Z_RIGHT_HIP,visibility_RIGHT_HIP,X_LEFT_KNEE,Y_LEFT_KNEE,Z_LEFT_KNEE,visibility_LEFT_KNEE,X_RIGHT_KNEE,Y_RIGHT_KNEE,Z_RIGHT_KNEE,visibility_RIGHT_KNEE,X_LEFT_ANKLE,Y_LEFT_ANKLE,Z_LEFT_ANKLE,visibility_LEFT_ANKLE,X_RIGHT_ANKLE,Y_RIGHT_ANKLE,Z_RIGHT_ANKLE,visibility_RIGHT_ANKLE,X_LEFT_HEEL,Y_LEFT_HEEL,Z_LEFT_HEEL,visibility_LEFT_HEEL,X_RIGHT_HEEL,Y_RIGHT_HEEL,Z_RIGHT_HEEL,visibility_RIGHT_HEEL,X_LEFT_FOOT_INDEX,Y_LEFT_FOOT_INDEX,Z_LEFT_FOOT_INDEX,visibility_LEFT_FOOT_INDEX,X_RIGHT_FOOT_INDEX,Y_RIGHT_FOOT_INDEX,Z_RIGHT_FOOT_INDEX,visibility_RIGHT_FOOT_INDEX
13410.727980404736,0.49936598539352417,0.26766884326934814,-0.8956328630447388,0.9999481439590454,0.5155487656593323,0.24906423687934875,-0.8550878763198853,0.9998780488967896,0.5249328017234802,0.2494855523109436,-0.8552446365356445,0.9998571872711182,0.5345027446746826,0.25005435943603516,-0.8554643392562866,0.9998531341552734,0.4835970103740692,0.2478598952293396,-0.8776518106460571,0.9998632669448853,0.4700813591480255,0.24754703044891357,-0.8778343796730042,0.9998600482940674,0.45707762241363525,0.24759936332702637,-0.8780985474586487,0.9998576641082764,0.5389203429222107,0.258816659450531,-0.5771310329437256,0.9997867941856384,0.4274008572101593,0.2558324933052063,-0.6900275349617004,0.9998712539672852,0.5118046402931213,0.29067254066467285,-0.7869260907173157,0.999976396560669,0.4701191484928131,0.28873884677886963,-0.8191784620285034,0.9999768733978271,0.613187313079834,0.3776278495788574,-0.342631459236145,0.9999426603317261,0.3417455852031708,0.3884907364845276,-0.5720553398132324,0.9999040365219116,0.6472707986831665,0.5400189161300659,-0.17367015779018402,0.9623939990997314,0.33901625871658325,0.5709068775177002,-0.5330857634544373,0.9906176924705505,0.6594759225845337,0.6735612154006958,-0.34367379546165466,0.9604883193969727,0.37286871671676636,0.7191787362098694,-0.6806613206863403,0.9572147727012634,0.6754492521286011,0.7148969173431396,-0.414620578289032,0.9237764477729797,0.3755081295967102,0.7692192792892456,-0.7527862787246704,0.9168965816497803,0.6596879363059998,0.7143555879592896,-0.4865536689758301,0.9318618178367615,0.4011634290218353,0.7674505710601807,-0.824690580368042,0.9219534993171692,0.6477919816970825,0.7050681114196777,-0.37580400705337524,0.9300657510757446,0.4065620005130768,0.7500245571136475,-0.7093506455421448,0.9225531816482544,0.578993558883667,0.6602030992507935,0.04782387986779213,0.9984709620475769,0.42970991134643555,0.6716306805610657,-0.047604940831661224,0.9976867437362671,0.5814417600631714,0.877720832824707,-0.08293162286281586,0.47711774706840515,0.44805052876472473,0.889876127243042,-0.13929718732833862,0.4072999358177185,0.5544731020927429,1.0439616441726685,0.48024803400039673,0.17946259677410126,0.44968879222869873,1.050162672996521,0.3761653006076813,0.18189150094985962,0.5409537553787231,1.0648305416107178,0.5203506946563721,0.18240958452224731,0.4482113718986511,1.0668964385986328,0.4143761992454529,0.10812605917453766,0.5882125496864319,1.1155471801757812,0.28590354323387146,0.16622787714004517,0.47891172766685486,1.1257505416870117,0.1142914891242981,0.17440226674079895
13427.394647071402,0.4996475279331207,0.26842954754829407,-0.8649330139160156,0.9999527931213379,0.5160486698150635,0.24945110082626343,-0.824939489364624,0.9998791217803955,0.5253397226333618,0.2498958706855774,-0.8251129984855652,0.99985671043396,0.534737765789032,0.2504716217517853,-0.8253196477890015,0.9998549222946167,0.48427554965019226,0.24802789092063904,-0.8463550806045532,0.9998712539672852,0.47085580229759216,0.2475588172674179,-0.846540093421936,0.9998682737350464,0.4576205909252167,0.2474617213010788,-0.8467961549758911,0.9998693466186523,0.5388946533203125,0.2588071823120117,-0.5558233857154846,0.9997832179069519,0.4278216063976288,0.2555449604988098,-0.6636207699775696,0.9998737573623657,0.511885941028595,0.2916874885559082,-0.7602412104606628,0.9999759197235107,0.46992027759552,0.28926554322242737,-0.7910070419311523,0.9999774694442749,0.6124008893966675,0.37745898962020874,-0.33871209621429443,0.9999407529830933,0.34059035778045654,0.38895705342292786,-0.5455445051193237,0.9999039173126221,0.6481598615646362,0.5365347862243652,-0.17860248684883118,0.9680873155593872,0.3392992913722992,0.5718650221824646,-0.5056741833686829,0.9909242987632751,0.6583008170127869,0.6743472218513489,-0.3478967547416687,0.9634196758270264,0.37523430585861206,0.720442533493042,-0.654156506061554,0.9615852236747742,0.6734809279441833,0.715606689453125,-0.41914305090904236,0.928061842918396,0.37751516699790955,0.7700573801994324,-0.7258012294769287,0.925471842288971,0.6570021510124207,0.7153130173683167,-0.4890387952327728,0.9354584813117981,0.40379223227500916,0.7685839533805847,-0.7972619533538818,0.9303406476974487,0.6454633474349976,0.7063010931015015,-0.3789268434047699,0.9345372319221497,0.4096170663833618,0.7515864372253418,-0.6826969981193542,0.9306821823120117,0.5777068138122559,0.6623685359954834,0.0383467935025692,0.9982120990753174,0.4266842007637024,0.6738001704216003,-0.03813083842396736,0.9972834587097168,0.5756746530532837,0.8826421499252319,-0.08386951684951782,0.4652852416038513,0.4463141858577728,0.8907396793365479,-0.11415216326713562,0.3846951723098755,0.552969217300415,1.0456323623657227,0.45008933544158936,0.17617954313755035,0.44860947132110596,1.0536131858825684,0.35153961181640625,0.19462339580059052,0.5404817461967468,1.0666587352752686,0.4871405363082886,0.18328960239887238,0.4486143887042999,1.071265459060669,0.38436147570610046,0.11455431580543518,0.5834314823150635,1.1166260242462158,0.2540552616119385,0.16453152894973755,0.47587987780570984,1.1295911073684692,0.08167632669210434,0.18502789735794067
13444.061313738068,0.5017171502113342,0.2672927975654602,-0.828935980796814,0.9999419450759888,0.5171483159065247,0.24859364330768585,-0.7904512286186218,0.9998546838760376,0.5264331102371216,0.24926616251468658,-0.7906054258346558,0.9998248219490051,0.5356742739677429,0.2501389682292938,-0.7908132076263428,0.9998244643211365,0.48588263988494873,0.2469814121723175,-0.8139365911483765,0.9998493194580078,0.47269466519355774,0.2465124875307083,-0.8141190409660339,0.9998476505279541,0.4589233100414276,0.246266707777977,-0.8143675327301025,0.9998514652252197,0.5391492247581482,0.2591973841190338,-0.5281247496604919,0.999733030796051,0.4280321002006531,0.25447171926498413,-0.6448178291320801,0.9998577833175659,0.5135923624038696,0.29082822799682617,-0.7261146306991577,0.9999687671661377,0.4721698760986328,0.2882636487483978,-0.759434700012207,0.9999712705612183,0.6108887791633606,0.3777995705604553,-0.30928829312324524,0.9999208450317383,0.34201934933662415,0.3877483904361725,-0.545540988445282,0.9998956918716431,0.6493031978607178,0.5361697673797607,-0.14296221733093262,0.9542361497879028,0.34019866585731506,0.57081538438797,-0.5093531012535095,0.9901381731033325,0.6600427627563477,0.6742620468139648,-0.28264957666397095,0.9469631910324097,0.37530797719955444,0.720173716545105,-0.6307841539382935,0.9567316770553589,0.6737461090087891,0.716778576374054,-0.3451385796070099,0.8998515605926514,0.37601473927497864,0.7704463005065918,-0.696749210357666,0.9164557456970215,0.6574755907058716,0.7177218794822693,-0.41144952178001404,0.909636914730072,0.40437042713165283,0.7689355611801147,-0.7646090388298035,0.9215676188468933,0.6460652351379395,0.7083992958068848,-0.3119349479675293,0.9104108810424805,0.4111332893371582,0.7518929243087769,-0.6573829650878906,0.922266960144043,0.5758802890777588,0.6611961722373962,0.04616161808371544,0.9980205297470093,0.4263016879558563,0.6741553544998169,-0.04602024704217911,0.9971737861633301,0.5781615376472473,0.8835585713386536,-0.08791904896497726,0.4406389594078064,0.4491894543170929,0.8942978382110596,-0.12440239638090134,0.3669532835483551,0.5510557293891907,1.045750617980957,0.43051376938819885,0.17008329927921295,0.44911989569664,1.0595166683197021,0.3270977735519409,0.20015333592891693,0.5412408113479614,1.0726557970046997,0.46617063879966736,0.1774459332227707,0.44833311438560486,1.0774637460708618,0.3585140109062195,0.11262878030538559,0.5884275436401367,1.122771978378296,0.2384946346282959,0.16067609190940857,0.47727206349372864,1.1360843181610107,0.059493619948625565,0.19322742521762848
13460.727980404734,0.499454528093338,0.2688460946083069,-0.9134930372238159,0.9999428987503052,0.5156531929969788,0.24983641505241394,-0.8746576309204102,0.9998579025268555,0.5248719453811646,0.25037404894828796,-0.8748055100440979,0.9998288154602051,0.5342046618461609,0.25108498334884644,-0.8750261068344116,0.9998277425765991,0.4835176169872284,0.2482481151819229,-0.89656662940979,0.9998507499694824,0.46962958574295044,0.24775297939777374,-0.896754264831543,0.9998461008071899,0.4563135504722595,0.24769847095012665,-0.8970105648040771,0.9998489618301392,0.5387834906578064,0.2598399221897125,-0.5985105037689209,0.9997395873069763,0.42705026268959045,0.2560482919216156,-0.7082635760307312,0.9998564720153809,0.5120234489440918,0.29226288199424744,-0.8047804832458496,0.999970555305481,0.46947723627090454,0.28978726267814636,-0.8360820412635803,0.9999725818634033,0.612406849861145,0.377290278673172,-0.35688096284866333,0.9999258518218994,0.34082305431365967,0.38864585757255554,-0.5837400555610657,0.999901533126831,0.6503977179527283,0.5353608727455139,-0.18459439277648926,0.960385799407959,0.33961421251296997,0.5714522004127502,-0.5390722751617432,0.9903734922409058,0.6602310538291931,0.6730066537857056,-0.35072097182273865,0.9513922333717346,0.3749912977218628,0.7193416953086853,-0.6784060597419739,0.9563245177268982,0.6742125153541565,0.7163578271865845,-0.4198496639728546,0.906520426273346,0.3764793276786804,0.7698957324028015,-0.7492450475692749,0.9148765206336975,0.6577781438827515,0.7169252038002014,-0.49067017436027527,0.9156626462936401,0.403926819562912,0.7681065201759338,-0.8207582235336304,0.9198524355888367,0.6463633179664612,0.7070603370666504,-0.3822183310985565,0.9151071906089783,0.4104277789592743,0.7506924271583557,-0.7065878510475159,0.9201696515083313,0.5769091844558716,0.6579535007476807,0.04777936264872551,0.9979973435401917,0.42767101526260376,0.6715978980064392,-0.04761794954538345,0.9972097277641296,0.5796582102775574,0.8825755715370178,-0.08009166270494461,0.46062806248664856,0.44969457387924194,0.8937002420425415,-0.12313947826623917,0.4003064036369324,0.5520728826522827,1.0444672107696533,0.44951799511909485,0.1901826411485672,0.4491962492465973,1.0593819618225098,0.33951523900032043,0.22237251698970795,0.540068507194519,1.0711520910263062,0.48549649119377136,0.19431562721729279,0.4488179087638855,1.0777641534805298,0.37096548080444336,0.1219223216176033,0.5906346440315247,1.1198443174362183,0.24338075518608093,0.1790398210287094,0.4771198630332947,1.1358176469802856,0.05530529096722603,0.2075004279613495
13477.3946470714,0.5053995847702026,0.267686665058136,-0.7659032940864563,0.9999346733093262,0.5188233256340027,0.24924053251743317,-0.727932333946228,0.9998425245285034,0.528022050857544,0.24966689944267273,-0.7280847430229187,0.9998090863227844,0.53702312707901,0.25026392936706543,-0.728289783000946,0.9998146891593933,0.48835405707359314,0.24823766946792603,-0.7541863918304443,0.9998377561569214,0.4755289852619171,0.24802307784557343,-0.7543443441390991,0.9998329877853394,0.46156930923461914,0.24788852035999298,-0.7545912265777588,0.9998383522033691,0.5385567545890808,0.2592983543872833,-0.474685400724411,0.9997156262397766,0.42890477180480957,0.2564335763454437,-0.6033383011817932,0.9998514652252197,0.5163214206695557,0.29097670316696167,-0.66668301820755,0.9999674558639526,0.47688332200050354,0.2896273136138916,-0.7033247351646423,0.9999709129333496,0.6112416982650757,0.37665122747421265,-0.2634029984474182,0.999924898147583,0.3433496952056885,0.38817134499549866,-0.5300068855285645,0.9998911619186401,0.6522666215896606,0.5349841117858887,-0.10974482446908951,0.95516037940979,0.3395441472530365,0.5694301128387451,-0.5102288722991943,0.9914633631706238,0.6587662696838379,0.6716170907020569,-0.2520555257797241,0.9582003355026245,0.3723408877849579,0.7187111377716064,-0.6208662390708923,0.9600354433059692,0.6724400520324707,0.7144375443458557,-0.3163716793060303,0.9188589453697205,0.3741421103477478,0.7701676487922668,-0.6877053380012512,0.921611487865448,0.6557472348213196,0.7136879563331604,-0.38141313195228577,0.926925003528595,0.4024258852005005,0.7690935730934143,-0.7517150044441223,0.9257808923721313,0.6443387866020203,0.7034072279930115,-0.2812020182609558,0.9259582757949829,0.4091247618198395,0.7515413761138916,-0.6459429264068604,0.9261755347251892,0.5781254172325134,0.6598631739616394,0.06453506648540497,0.9977904558181763,0.4282311797142029,0.672849714756012,-0.06432558596134186,0.997036337852478,0.578869640827179,0.8778040409088135,-0.055729493498802185,0.43052786588668823,0.4501664340496063,0.8908955454826355,-0.13765348494052887,0.4165785014629364,0.5516319274902344,1.0410351753234863,0.43692800402641296,0.16660159826278687,0.44672587513923645,1.0563534498214722,0.28436535596847534,0.22387947142124176,0.5336517095565796,1.0683081150054932,0.4704870581626892,0.18487142026424408,0.44186484813690186,1.0749166011810303,0.3127489984035492,0.12104896456003189,0.5961834788322449,1.1166023015975952,0.2524731457233429,0.15987923741340637,0.48563557863235474,1.1324851512908936,0.015416084788739681,0.20289434492588043
13494.061313738066,0.5048583149909973,0.26969653367996216,-0.8325276970863342,0.9999550580978394,0.5185533165931702,0.250457227230072,-0.7947644591331482,0.9998880624771118,0.5277868509292603,0.2508572041988373,-0.7949190139770508,0.9998682737350464,0.5367931723594666,0.2513735890388489,-0.7951256036758423,0.9998685121536255,0.48800185322761536,0.2491384744644165,-0.817344605922699,0.999880313873291,0.4752582609653473,0.24872781336307526,-0.8175167441368103,0.9998779296875,0.46142998337745667,0.24856403470039368,-0.8177521824836731,0.9998776912689209,0.5388409495353699,0.25989654660224915,-0.5331430435180664,0.9998112320899963,0.4290878176689148,0.25689035654067993,-0.6448418498039246,0.9998873472213745,0.5157674551010132,0.29252704977989197,-0.7297025322914124,0.9999786615371704,0.47630852460861206,0.29077425599098206,-0.7615944147109985,0.9999791383743286,0.6131098866462708,0.37726733088493347,-0.31557339429855347,0.9999499320983887,0.34236961603164673,0.3871661424636841,-0.5441358089447021,0.9999136924743652,0.6556277275085449,0.5383511781692505,-0.15942144393920898,0.9701990485191345,0.3385881781578064,0.5681056380271912,-0.511885404586792,0.9911552667617798,0.6616271734237671,0.6729159355163574,-0.3173156678676605,0.9650542736053467,0.3725730776786804,0.7192492485046387,-0.648310661315918,0.9579242467880249,0.6733859777450562,0.7159945368766785,-0.38668760657310486,0.929440438747406,0.37389054894447327,0.7700355648994446,-0.7185325622558594,0.919039785861969,0.6548646092414856,0.7151851654052734,-0.45439159870147705,0.9368168115615845,0.4018661081790924,0.7694936990737915,-0.7903718948364258,0.9242429137229919,0.6441714763641357,0.7052991986274719,-0.34746503829956055,0.935425341129303,0.40828201174736023,0.7517113089561462,-0.6771253943443298,0.9250554442405701,0.575724720954895,0.6592677235603333,0.048378683626651764,0.99822598695755,0.42598605155944824,0.6710236072540283,-0.04814428091049194,0.9973735809326172,0.577413022518158,0.8779035806655884,-0.08643517643213272,0.501930296421051,0.44838571548461914,0.8892179727554321,-0.1312475949525833,0.43932652473449707,0.5541303157806396,1.049288034439087,0.4121758043766022,0.20077423751354218,0.4511646628379822,1.0548580884933472,0.307447224855423,0.22248820960521698,0.540003776550293,1.070986032485962,0.44550034403800964,0.1974533647298813,0.44968315958976746,1.0729591846466064,0.3371228277683258,0.12496981769800186,0.5898482203483582,1.1205521821975708,0.21289756894111633,0.17952866852283478,0.48251470923423767,1.1310925483703613,0.037629760801792145,0.20260798931121826
13510.727980404732,0.5071926116943359,0.2679569721221924,-0.7680270671844482,0.999956488609314,0.5207304358482361,0.24909661710262299,-0.730094850063324,0.9998892545700073,0.5302963852882385,0.24944724142551422,-0.7302359938621521,0.999863862991333,0.5391354560852051,0.24997858703136444,-0.730430543422699,0.9998680353164673,0.4899272620677948,0.2481565624475479,-0.7547543048858643,0.9998902082443237,0.47695982456207275,0.2479398101568222,-0.7549149990081787,0.9998867511749268,0.4627028703689575,0.24776063859462738,-0.7551373839378357,0.9998927116394043,0.5397433042526245,0.25862443447113037,-0.4838424324989319,0.9997931122779846,0.4291972815990448,0.2560296356678009,-0.6053804159164429,0.9998981952667236,0.5174991488456726,0.2908809185028076,-0.6722291111946106,0.9999771118164062,0.4783986508846283,0.2893799841403961,-0.7069309949874878,0.9999799728393555,0.6126621961593628,0.3785540759563446,-0.2848050892353058,0.9999306201934814,0.3423898220062256,0.3890446126461029,-0.5264782309532166,0.9999057054519653,0.6541550755500793,0.5385805368423462,-0.13019128143787384,0.9648336172103882,0.3392731547355652,0.5728591680526733,-0.4970669746398926,0.9923210740089417,0.6641669273376465,0.6759393215179443,-0.25781217217445374,0.961725652217865,0.3744528591632843,0.7192147970199585,-0.6027164459228516,0.9647558331489563,0.6759378910064697,0.7202825546264648,-0.3192574679851532,0.9227204918861389,0.37670403718948364,0.7689124345779419,-0.6675241589546204,0.9286696314811707,0.656426191329956,0.7195468544960022,-0.3824790418148041,0.9305827617645264,0.40427345037460327,0.7675846219062805,-0.7313433885574341,0.9330407381057739,0.6461665630340576,0.7103985548019409,-0.28573766350746155,0.9306269288063049,0.4104606509208679,0.7501511573791504,-0.6276925802230835,0.9333818554878235,0.5782989859580994,0.6620919704437256,0.04966273158788681,0.9981753826141357,0.42723366618156433,0.6743042469024658,-0.049533139914274216,0.9974908828735352,0.5785138607025146,0.8836325407028198,-0.05822618678212166,0.4900892674922943,0.4499660134315491,0.8961310386657715,-0.1191030815243721,0.42982643842697144,0.5490227341651917,1.046034812927246,0.42459559440612793,0.19076693058013916,0.45350438356399536,1.0584816932678223,0.31120261549949646,0.2172892987728119,0.5448609590530396,1.0729318857192993,0.4569726586341858,0.18479876220226288,0.4526609778404236,1.0762263536453247,0.34087833762168884,0.11643816530704498,0.5964198112487793,1.1223030090332031,0.23579779267311096,0.17238934338092804,0.48428046703338623,1.1351326704025269,0.05125093087553978,0.20003700256347656
13527.394647071398,0.5069206357002258,0.2689506709575653,-0.6927016377449036,0.9999666213989258,0.5198166966438293,0.24973690509796143,-0.6579593420028687,0.9999148845672607,0.529150128364563,0.25006893277168274,-0.6580882668495178,0.9998946189880371,0.5380563139915466,0.2505608797073364,-0.6582914590835571,0.9999029636383057,0.48945409059524536,0.24883705377578735,-0.6829037070274353,0.999915361404419,0.47672855854034424,0.24860914051532745,-0.683056652545929,0.9999111890792847,0.46267518401145935,0.24843446910381317,-0.6832654476165771,0.9999173879623413,0.5387674570083618,0.2592654228210449,-0.4339636564254761,0.9998396635055542,0.4296291470527649,0.2569514513015747,-0.5573914647102356,0.9999116659164429,0.5175452828407288,0.29173773527145386,-0.6050345301628113,0.9999815225601196,0.4793557822704315,0.2900257110595703,-0.640333890914917,0.9999828338623047,0.6118273138999939,0.3783710300922394,-0.2672100365161896,0.9999465942382812,0.343245267868042,0.38957804441452026,-0.5022444725036621,0.9999041557312012,0.6554149985313416,0.5387674570083618,-0.12375635653734207,0.9688234329223633,0.34162819385528564,0.5759540796279907,-0.478971004486084,0.9912201762199402,0.6660813689231873,0.6774367690086365,-0.21351030468940735,0.9677578210830688,0.3748755156993866,0.7208831310272217,-0.5526136159896851,0.9623991847038269,0.6747543811798096,0.7225865125656128,-0.2689458727836609,0.9333023428916931,0.377674400806427,0.7712189555168152,-0.6109159588813782,0.9262629747390747,0.6551111340522766,0.7219931483268738,-0.32499170303344727,0.9400694370269775,0.40463730692863464,0.7697557210922241,-0.6686851382255554,0.9306596517562866,0.6456824541091919,0.7124293446540833,-0.23737435042858124,0.9406929612159729,0.4098784029483795,0.7525397539138794,-0.5747595429420471,0.9311361312866211,0.576807975769043,0.6632837653160095,0.04607227072119713,0.9983501434326172,0.42683008313179016,0.6753901839256287,-0.046016644686460495,0.9975358247756958,0.5779420733451843,0.881066083908081,-0.07925737649202347,0.41709840297698975,0.44927138090133667,0.8922382593154907,-0.12574341893196106,0.36469823122024536,0.5583754777908325,1.048475980758667,0.3961259126663208,0.13869984447956085,0.450936883687973,1.0555026531219482,0.2920266091823578,0.1779080331325531,0.5456842184066772,1.0694313049316406,0.42990201711654663,0.14643123745918274,0.44939976930618286,1.0725367069244385,0.32242438197135925,0.09608455002307892,0.5963944792747498,1.1195969581604004,0.23534734547138214,0.13209807872772217,0.481984406709671,1.132365345954895,0.05787009000778198,0.16811946034431458
13544.061313738064,0.5090880990028381,0.2697398364543915,-0.7045610547065735,0.9999613761901855,0.5211314558982849,0.2499011904001236,-0.6697595715522766,0.999902606010437,0.5304335355758667,0.25007596611976624,-0.6698969602584839,0.9998799562454224,0.539040744304657,0.25037428736686707,-0.6701166033744812,0.9998893737792969,0.4912261664867401,0.24944844841957092,-0.6960951089859009,0.9999040365219116,0.4787081480026245,0.24935515224933624,-0.69626784324646,0.9999004602432251,0.46452662348747253,0.24926133453845978,-0.6964805722236633,0.9999078512191772,0.5379980802536011,0.2588834762573242,-0.4442428648471832,0.9998230338096619,0.4300168454647064,0.25755736231803894,-0.574094831943512,0.9999046325683594,0.5190805196762085,0.2923155128955841,-0.6158312559127808,0.9999794960021973,0.4823090732097626,0.29087212681770325,-0.653057873249054,0.9999805688858032,0.6112083196640015,0.3786084055900574,-0.2783506214618683,0.999942421913147,0.34339943528175354,0.39035558700561523,-0.5077384114265442,0.9998902082443237,0.6569882035255432,0.5387951135635376,-0.1275840848684311,0.9651508927345276,0.34131908416748047,0.5772799253463745,-0.4786955416202545,0.9903556108474731,0.6662886142730713,0.6759176254272461,-0.21479278802871704,0.959160566329956,0.37425631284713745,0.7214568257331848,-0.5517202615737915,0.9568821787834167,0.6758766770362854,0.7193470001220703,-0.26815563440322876,0.9187498688697815,0.376799613237381,0.7718921303749084,-0.6091171503067017,0.917783796787262,0.6571560502052307,0.7189714908599854,-0.3252670466899872,0.9270966649055481,0.4042229652404785,0.770773708820343,-0.6659148335456848,0.9227246642112732,0.6477848291397095,0.7093310356140137,-0.23889991641044617,0.9292381405830383,0.409243643283844,0.753939688205719,-0.5734125375747681,0.9227331876754761,0.5810008645057678,0.663020670413971,0.036253832280635834,0.9983267188072205,0.4278485178947449,0.6749764084815979,-0.03620292991399765,0.9972367286682129,0.5791789293289185,0.8840863704681396,-0.09580115228891373,0.429480642080307,0.4427621066570282,0.8938580751419067,-0.11222176253795624,0.34201911091804504,0.5614630579948425,1.050885558128357,0.40459540486335754,0.1440677046775818,0.45386722683906555,1.0557925701141357,0.32190659642219543,0.1758607029914856,0.5511221885681152,1.0708805322647095,0.44108060002326965,0.14666339755058289,0.45517611503601074,1.0719037055969238,0.3541954755783081,0.09586039930582047,0.5933923721313477,1.123918056488037,0.24603420495986938,0.13514836132526398,0.48165369033813477,1.1347802877426147,0.0911371260881424,0.16923224925994873
13560.72798040473,0.5053883790969849,0.2673296630382538,-0.8138605952262878,0.9999614953994751,0.5194599628448486,0.24875804781913757,-0.7767019271850586,0.9999070167541504,0.5291141271591187,0.24914765357971191,-0.7768396735191345,0.9998875856399536,0.5381631851196289,0.2497229427099228,-0.7770494818687439,0.9998923540115356,0.4885319471359253,0.2478523552417755,-0.7993898391723633,0.9999014139175415,0.4755908250808716,0.2477286458015442,-0.7995477318763733,0.9998962879180908,0.4614778161048889,0.2476620376110077,-0.7997799515724182,0.9998992681503296,0.5399929285049438,0.258511483669281,-0.5288244485855103,0.9998364448547363,0.4286648631095886,0.25616002082824707,-0.6417829394340515,0.9998980760574341,0.5162986516952515,0.29046857357025146,-0.7170422673225403,0.9999805688858032,0.476108580827713,0.28922128677368164,-0.749300479888916,0.9999806880950928,0.6137374043464661,0.3785550594329834,-0.3308924436569214,0.9999431371688843,0.34254634380340576,0.3877530097961426,-0.5538638830184937,0.9998906850814819,0.6572456955909729,0.5387413501739502,-0.18011941015720367,0.9688777923583984,0.340006023645401,0.5714396238327026,-0.5241382718086243,0.9902593493461609,0.6663115620613098,0.6776635050773621,-0.3063107430934906,0.9645227789878845,0.3730405271053314,0.7192307114601135,-0.6283437013626099,0.956656813621521,0.6749231219291687,0.7229412198066711,-0.36910882592201233,0.9279335141181946,0.37669074535369873,0.7695586681365967,-0.6922230124473572,0.915534257888794,0.65544193983078,0.7229151129722595,-0.4306197762489319,0.9353007078170776,0.40374884009361267,0.7681131958961487,-0.7574776411056519,0.9208191633224487,0.6460078954696655,0.7131901979446411,-0.3330736458301544,0.935393214225769,0.40885788202285767,0.7503221035003662,-0.6539720892906189,0.9224557876586914,0.5755212903022766,0.659829318523407,0.04300865903496742,0.9982892870903015,0.4257165193557739,0.6719841957092285,-0.04288064315915108,0.9973668456077576,0.5791999101638794,0.8774191737174988,-0.0773836076259613,0.4404809772968292,0.4497296214103699,0.8860292434692383,-0.1167609766125679,0.37498044967651367,0.557715117931366,1.0457035303115845,0.4225381314754486,0.16322895884513855,0.4515020251274109,1.0524559020996094,0.3274710178375244,0.18581615388393402,0.5454401969909668,1.0668044090270996,0.4570345878601074,0.16544276475906372,0.45056822896003723,1.0698206424713135,0.3593355417251587,0.10610475391149521,0.5914982557296753,1.1170110702514648,0.2402420938014984,0.148428812623024,0.4794071912765503,1.1285767555236816,0.0768541619181633,0.17354412376880646
13577.394647071396,0.5064836740493774,0.26920849084854126,-0.7172299027442932,0.9999538660049438,0.5199446678161621,0.24981534481048584,-0.6814241409301758,0.9998823404312134,0.5294962525367737,0.25009849667549133,-0.6815664172172546,0.999854564666748,0.5383888483047485,0.2505161464214325,-0.6817759871482849,0.9998618364334106,0.48948314785957336,0.2490292638540268,-0.706014096736908,0.999886155128479,0.47674351930618286,0.2488396018743515,-0.7061861753463745,0.9998836517333984,0.4626050293445587,0.24876226484775543,-0.7064162492752075,0.9998912811279297,0.5390107035636902,0.2590492069721222,-0.4484979808330536,0.9997772574424744,0.42910638451576233,0.2572396993637085,-0.5700489282608032,0.9998940229415894,0.5170145630836487,0.2921942472457886,-0.6259225010871887,0.9999760389328003,0.47827911376953125,0.2904636263847351,-0.6607183218002319,0.99997878074646,0.6130947470664978,0.37958598136901855,-0.2671318054199219,0.9999310970306396,0.3419736623764038,0.38927093148231506,-0.5072237849235535,0.9998997449874878,0.6558918952941895,0.5401737689971924,-0.11661484092473984,0.9635746479034424,0.3415185213088989,0.5758583545684814,-0.4795290231704712,0.9914707541465759,0.6674062609672546,0.6777321696281433,-0.21321842074394226,0.9582736492156982,0.3759791851043701,0.7216833829879761,-0.5639979243278503,0.9600678086280823,0.6768680810928345,0.721499502658844,-0.2684973180294037,0.9174749851226807,0.3786262571811676,0.7725214958190918,-0.6243104338645935,0.921298086643219,0.6575157046318054,0.7215044498443604,-0.3264179527759552,0.9260873794555664,0.4069098234176636,0.7706469297409058,-0.6828193068504333,0.9264495372772217,0.6481249332427979,0.7118728160858154,-0.2380961775779724,0.9276677370071411,0.41225165128707886,0.7537016272544861,-0.586529016494751,0.9271543622016907,0.5773098468780518,0.664131224155426,0.04520362243056297,0.9983128309249878,0.42544934153556824,0.6757683753967285,-0.04513488709926605,0.9974581599235535,0.5780146718025208,0.8841919302940369,-0.08889198303222656,0.4446885287761688,0.4503985643386841,0.8999446034431458,-0.13493457436561584,0.3790777027606964,0.5597630739212036,1.051316261291504,0.4200030565261841,0.14760397374629974,0.45094922184944153,1.0559660196304321,0.3182370066642761,0.17529794573783875,0.5477226376533508,1.071933627128601,0.45693710446357727,0.1535279005765915,0.45052987337112427,1.0721356868743896,0.35237225890159607,0.09746217727661133,0.5959234833717346,1.1232900619506836,0.2596094608306885,0.13446803390979767,0.4802984595298767,1.1332927942276,0.088310107588768,0.16637620329856873
13594.061313738062,0.5065140724182129,0.27036282420158386,-0.780521035194397,0.9999492168426514,0.5193327069282532,0.25068986415863037,-0.744696319103241,0.9998717308044434,0.5285772681236267,0.2511269152164459,-0.7448368668556213,0.9998422861099243,0.5373903512954712,0.2516329884529114,-0.74505215883255,0.9998486042022705,0.48900914192199707,0.24936167895793915,-0.7690715193748474,0.9998723268508911,0.47652557492256165,0.24895943701267242,-0.7692632675170898,0.9998699426651001,0.4625176787376404,0.24873338639736176,-0.7694997787475586,0.9998778104782104,0.537772536277771,0.26035982370376587,-0.5035874247550964,0.999763548374176,0.4292941093444824,0.2571815252304077,-0.6238731741905212,0.9998799562454224,0.5171329379081726,0.2932873070240021,-0.6855865120887756,0.9999749660491943,0.4788002073764801,0.2909238636493683,-0.7200671434402466,0.9999768733978271,0.612411618232727,0.3789294958114624,-0.3081784248352051,0.9999340772628784,0.3411756157875061,0.3902072310447693,-0.5457615852355957,0.9998993873596191,0.6569560766220093,0.5393406748771667,-0.15160541236400604,0.9650501608848572,0.3422466516494751,0.5767868161201477,-0.5107810497283936,0.9915359020233154,0.663493812084198,0.6773600578308105,-0.2571790814399719,0.9562608599662781,0.3774768114089966,0.7221339344978333,-0.6029832363128662,0.95967036485672,0.6718378067016602,0.7221317291259766,-0.31422701478004456,0.9132497310638428,0.3797348737716675,0.7722122073173523,-0.665249764919281,0.920086681842804,0.652899980545044,0.7222625613212585,-0.37373730540275574,0.9219383001327515,0.4080277681350708,0.7709101438522339,-0.72603440284729,0.9252254962921143,0.6433893442153931,0.7123986482620239,-0.2825777530670166,0.9234686493873596,0.41381391882896423,0.7543213963508606,-0.6263519525527954,0.9259488582611084,0.5755527019500732,0.6630629897117615,0.04444209858775139,0.9984087347984314,0.42516064643859863,0.6748014092445374,-0.04437543451786041,0.9975464940071106,0.5780755281448364,0.8832764029502869,-0.09466882050037384,0.4622611999511719,0.44957950711250305,0.8975298404693604,-0.14408932626247406,0.3907656967639923,0.5584796071052551,1.0472869873046875,0.4318366050720215,0.15848316252231598,0.45178645849227905,1.0527527332305908,0.33588606119155884,0.17350369691848755,0.546571671962738,1.0675489902496338,0.47040143609046936,0.1593496948480606,0.45111212134361267,1.0683095455169678,0.37275534868240356,0.09883911907672882,0.5935831069946289,1.1201328039169312,0.2692699730396271,0.1468176245689392,0.4827656149864197,1.1302475929260254,0.10788683593273163,0.16685718297958374
13610.727980404728,0.5058249831199646,0.2679096460342407,-0.7602124810218811,0.9999507665634155,0.5192896127700806,0.2498129904270172,-0.7243395447731018,0.9998817443847656,0.5287788510322571,0.2501830756664276,-0.7244724035263062,0.9998536109924316,0.5376883149147034,0.25068703293800354,-0.7246949672698975,0.9998610019683838,0.48868778347969055,0.24876420199871063,-0.7483568787574768,0.9998867511749268,0.47590985894203186,0.24849361181259155,-0.7485219240188599,0.9998821020126343,0.4621541202068329,0.24825885891914368,-0.74875807762146,0.9998912811279297,0.5387700200080872,0.2590407729148865,-0.4912370443344116,0.9997946619987488,0.42914503812789917,0.25636789202690125,-0.6097607612609863,0.9998956918716431,0.5167854428291321,0.290759414434433,-0.6692311763763428,0.9999772310256958,0.4771046042442322,0.2891061305999756,-0.7031171917915344,0.9999790191650391,0.6147850155830383,0.37899819016456604,-0.3103552460670471,0.9999202489852905,0.34279119968414307,0.390373170375824,-0.5386548042297363,0.9998897314071655,0.6594862937927246,0.5409342646598816,-0.158150315284729,0.9622735381126404,0.3412962555885315,0.5772731304168701,-0.5119433999061584,0.9909836053848267,0.6628998517990112,0.6778694987297058,-0.25836169719696045,0.9532503485679626,0.3764711916446686,0.7228870391845703,-0.6028445363044739,0.9580317139625549,0.6724940538406372,0.7221423983573914,-0.3153737187385559,0.9097585678100586,0.3788098692893982,0.7726747393608093,-0.665158748626709,0.9184033274650574,0.6541879177093506,0.7212579846382141,-0.3741028308868408,0.9184861779212952,0.40639060735702515,0.7708444595336914,-0.7243826389312744,0.9232202172279358,0.6438664197921753,0.711625337600708,-0.28342220187187195,0.9203321933746338,0.4117299020290375,0.7539411187171936,-0.6260514855384827,0.9240338206291199,0.579261064529419,0.6645823121070862,0.040392421185970306,0.998323380947113,0.4274995028972626,0.6755809187889099,-0.040289632976055145,0.9975953698158264,0.5784983038902283,0.8844352960586548,-0.07820233702659607,0.497659295797348,0.4420184791088104,0.8968966007232666,-0.12341172248125076,0.43620193004608154,0.5541892051696777,1.0444856882095337,0.44345295429229736,0.17410913109779358,0.45356035232543945,1.054063081741333,0.34680694341659546,0.1933182328939438,0.5466095209121704,1.068769097328186,0.48143258690834045,0.17168468236923218,0.4553150534629822,1.0698285102844238,0.382878839969635,0.10657099634408951,0.5949201583862305,1.1209774017333984,0.28142210841178894,0.1527940332889557,0.4790855944156647,1.1320796012878418,0.11946342140436172,0.174765944480896
13627.394647071395,0.5062617063522339,0.26806095242500305,-0.7587697505950928,0.9999496936798096,0.5198385119438171,0.249518021941185,-0.7218917608261108,0.9998788833618164,0.5292698740959167,0.24983370304107666,-0.7220407128334045,0.9998506307601929,0.5381762385368347,0.2502783536911011,-0.7222768068313599,0.9998621940612793,0.48918259143829346,0.248701810836792,-0.744996964931488,0.9998788833618164,0.47636276483535767,0.2484840601682663,-0.7451753616333008,0.9998730421066284,0.46232888102531433,0.24831488728523254,-0.7454136610031128,0.9998831748962402,0.5389404296875,0.2585364878177643,-0.4869665801525116,0.9997822642326355,0.428986132144928,0.25637176632881165,-0.602156937122345,0.9998800754547119,0.5169095396995544,0.290729820728302,-0.6672756671905518,0.9999761581420898,0.4777175188064575,0.28931134939193726,-0.7002784609794617,0.9999768733978271,0.6144238710403442,0.37896543741226196,-0.31383082270622253,0.9999291896820068,0.34192392230033875,0.3888503611087799,-0.5234363079071045,0.9998654127120972,0.6586290597915649,0.5396649837493896,-0.16796238720417023,0.9651871919631958,0.34038418531417847,0.5754970908164978,-0.4923699200153351,0.9886526465415955,0.6645391583442688,0.6773855090141296,-0.2663413882255554,0.9547110795974731,0.3751797676086426,0.7215297222137451,-0.5832865834236145,0.9468202590942383,0.6738160848617554,0.7217026352882385,-0.3237583339214325,0.9119431972503662,0.37975412607192993,0.771683394908905,-0.6449594497680664,0.9000967144966125,0.6545702219009399,0.7216249704360962,-0.38173240423202515,0.9207392930984497,0.4075341820716858,0.7704956531524658,-0.7024233341217041,0.9059975743293762,0.6452526450157166,0.711277425289154,-0.2907666265964508,0.9225680828094482,0.41232869029045105,0.7540588974952698,-0.6059543490409851,0.9077897071838379,0.5803026556968689,0.6618014574050903,0.03324830159544945,0.9983104467391968,0.42632704973220825,0.6732674241065979,-0.033156439661979675,0.9972977042198181,0.5783767700195312,0.8836612701416016,-0.09923161566257477,0.4639799892902374,0.44672316312789917,0.8969818949699402,-0.12401442229747772,0.37239909172058105,0.5506340265274048,1.0410385131835938,0.4252823293209076,0.15243208408355713,0.4516863226890564,1.0520849227905273,0.34527280926704407,0.1674976646900177,0.5481511950492859,1.0673496723175049,0.4637492001056671,0.1462899148464203,0.45363757014274597,1.0671590566635132,0.3812413215637207,0.0898909941315651,0.5889638662338257,1.1199220418930054,0.2643825113773346,0.13589835166931152,0.47608304023742676,1.130340576171875,0.11874307692050934,0.15697067975997925
13644.06131373806,0.505630612373352,0.26792117953300476,-0.752418577671051,0.9999498128890991,0.5199065208435059,0.2493252456188202,-0.7150322198867798,0.9998756647109985,0.5298758745193481,0.24968722462654114,-0.7151870131492615,0.9998476505279541,0.538918673992157,0.25021106004714966,-0.7154114842414856,0.9998538494110107,0.4882919192314148,0.24837584793567657,-0.737266480922699,0.9998757839202881,0.475268691778183,0.2480803281068802,-0.7374392747879028,0.9998719692230225,0.461182564496994,0.24769476056098938,-0.7376791834831238,0.9998812675476074,0.5405551195144653,0.2585955262184143,-0.477642685174942,0.9997758269309998,0.4289073050022125,0.25517669320106506,-0.5885736346244812,0.9998868703842163,0.5173026323318481,0.2902602553367615,-0.66025710105896,0.9999761581420898,0.4767417013645172,0.28900599479675293,-0.6920168399810791,0.9999779462814331,0.615917444229126,0.3797580301761627,-0.2989318072795868,0.9999215602874756,0.3413829207420349,0.3898892402648926,-0.5179675221443176,0.9998904466629028,0.6570721864700317,0.5432347655296326,-0.1555769145488739,0.9555724263191223,0.34123337268829346,0.5757390260696411,-0.49110233783721924,0.9894481897354126,0.6610102653503418,0.6789423227310181,-0.25761306285858154,0.9431006908416748,0.3762141466140747,0.7207807898521423,-0.5909836292266846,0.9491686224937439,0.6720025539398193,0.7214035391807556,-0.3152454197406769,0.895714282989502,0.3793122470378876,0.7718050479888916,-0.6554486155509949,0.904219388961792,0.6528260111808777,0.7211206555366516,-0.37380316853523254,0.9056892395019531,0.4073769748210907,0.7707964777946472,-0.7135851383209229,0.9100052714347839,0.6428218483924866,0.7114313840866089,-0.2829073369503021,0.9083883762359619,0.4130162000656128,0.7534193992614746,-0.6145994067192078,0.9122400283813477,0.5806366205215454,0.6646243929862976,0.03709401190280914,0.9983195662498474,0.4265710711479187,0.6758872866630554,-0.03697347268462181,0.9974693059921265,0.5790582299232483,0.8848879933357239,-0.08041400462388992,0.48993104696273804,0.4453011453151703,0.8999537229537964,-0.12260127812623978,0.41429775953292847,0.5543502569198608,1.0439941883087158,0.44864246249198914,0.16808448731899261,0.45460647344589233,1.0555318593978882,0.3573005199432373,0.181582510471344,0.5505741238594055,1.0701313018798828,0.48716798424720764,0.15951678156852722,0.4557802379131317,1.0706651210784912,0.3941482901573181,0.0999428853392601,0.5931164026260376,1.122572898864746,0.2852151393890381,0.1485302597284317,0.4816742241382599,1.1336394548416138,0.12920984625816345,0.16972945630550385
13660.727980404727,0.5026964545249939,0.26691722869873047,-0.830509603023529,0.9999474287033081,0.5175794959068298,0.2486010193824768,-0.793290376663208,0.9998749494552612,0.5272239446640015,0.24901272356510162,-0.79341721534729,0.9998465776443481,0.5366721749305725,0.24958451092243195,-0.7936270236968994,0.9998506307601929,0.48641133308410645,0.24779869616031647,-0.8141083717346191,0.9998743534088135,0.47334226965904236,0.24770724773406982,-0.8142910599708557,0.9998712539672852,0.45962321758270264,0.24765601754188538,-0.8145384788513184,0.9998812675476074,0.5408936738967896,0.25902628898620605,-0.5465317964553833,0.9997743964195251,0.42854568362236023,0.2568303644657135,-0.6509284973144531,0.999889612197876,0.5150762796401978,0.2900128960609436,-0.7345398664474487,0.999976634979248,0.4747157692909241,0.288990318775177,-0.7643531560897827,0.9999791383743286,0.6160106658935547,0.3793787658214569,-0.34737488627433777,0.9999200105667114,0.34380435943603516,0.3913584053516388,-0.5642582774162292,0.9998927116394043,0.6548976898193359,0.541939377784729,-0.19181396067142487,0.9645913243293762,0.3424084484577179,0.5791342854499817,-0.5332157015800476,0.9916507601737976,0.6584967970848083,0.6811201572418213,-0.29857689142227173,0.9557905793190002,0.3763887286186218,0.7225455641746521,-0.642787754535675,0.95689857006073,0.6677795648574829,0.7241355776786804,-0.3591848611831665,0.9141808152198792,0.3793449103832245,0.7732273936271667,-0.7095236778259277,0.9136109948158264,0.6491831541061401,0.7237319946289062,-0.4205438494682312,0.9223062992095947,0.40690580010414124,0.771389365196228,-0.7722947001457214,0.9190568923950195,0.6391600370407104,0.7142050266265869,-0.32478663325309753,0.9231941103935242,0.4128400683403015,0.753843367099762,-0.6679850220680237,0.9218344688415527,0.5821179747581482,0.6631930470466614,0.04278028756380081,0.9985384941101074,0.4284634590148926,0.6739510297775269,-0.04266614839434624,0.9979107975959778,0.5792742967605591,0.8855718374252319,-0.07140989601612091,0.5871157646179199,0.4473608136177063,0.8955098986625671,-0.1433192789554596,0.5185801386833191,0.5558324456214905,1.0416324138641357,0.48079684376716614,0.21804139018058777,0.4512171745300293,1.049550175666809,0.37773391604423523,0.19563578069210052,0.5461225509643555,1.0651183128356934,0.5212885141372681,0.18579965829849243,0.4515562653541565,1.0633025169372559,0.41905632615089417,0.10302281379699707,0.5919212102890015,1.1194877624511719,0.3119070827960968,0.18093305826187134,0.47951099276542664,1.1276702880859375,0.15360181033611298,0.1739831566810608
13677.394647071393,0.5076144933700562,0.2659958302974701,-0.7418421506881714,0.9999485015869141,0.5207887887954712,0.24819965660572052,-0.7051612138748169,0.9998780488967896,0.5303934812545776,0.24850697815418243,-0.7053003907203674,0.9998481273651123,0.5393972992897034,0.24893446266651154,-0.705535888671875,0.9998608827590942,0.4901624023914337,0.24748948216438293,-0.7286500930786133,0.9998797178268433,0.47736141085624695,0.24732007086277008,-0.7288148403167725,0.9998729228973389,0.4633900821208954,0.24713143706321716,-0.729064404964447,0.9998862743377686,0.5404150485992432,0.25733670592308044,-0.472512811422348,0.9997738003730774,0.4307158291339874,0.2554948925971985,-0.5890852212905884,0.9998857975006104,0.51838618516922,0.288818895816803,-0.6513274312019348,0.9999768733978271,0.4798758924007416,0.2878856658935547,-0.6847023367881775,0.9999796152114868,0.6152626276016235,0.37710005044937134,-0.2976997494697571,0.9999268054962158,0.3441455364227295,0.3893209993839264,-0.522912323474884,0.999874472618103,0.6512768268585205,0.5409730076789856,-0.15513481199741364,0.9682275056838989,0.34170007705688477,0.580360472202301,-0.49921661615371704,0.9913303852081299,0.6524624228477478,0.6802365779876709,-0.25064539909362793,0.9664380550384521,0.3772223889827728,0.7226874828338623,-0.5880240797996521,0.9607460498809814,0.6616195440292358,0.7231553196907043,-0.3110653758049011,0.9326567053794861,0.3799777030944824,0.7722346782684326,-0.6523755788803101,0.9209651947021484,0.6422228813171387,0.7224611043930054,-0.36885011196136475,0.9395509958267212,0.4087023437023163,0.769347071647644,-0.7095111012458801,0.9258684515953064,0.6321899890899658,0.7126081585884094,-0.2751830220222473,0.9387660622596741,0.41447386145591736,0.752722978591919,-0.6103631258010864,0.9266225099563599,0.5792616605758667,0.6618642807006836,0.04499536752700806,0.9984575510025024,0.42619696259498596,0.6731983423233032,-0.04491978883743286,0.9977310299873352,0.5768046379089355,0.8844296932220459,-0.08361287415027618,0.5428804755210876,0.4483582079410553,0.8991620540618896,-0.15474842488765717,0.4630679786205292,0.5543423891067505,1.0427809953689575,0.4577395021915436,0.16816484928131104,0.44636958837509155,1.0474061965942383,0.34738558530807495,0.162659153342247,0.5415787100791931,1.0621002912521362,0.4983642101287842,0.15070019662380219,0.4457278251647949,1.0612568855285645,0.3877692222595215,0.08327069878578186,0.5887364745140076,1.1158243417739868,0.3052561581134796,0.14344990253448486,0.4768192172050476,1.124699592590332,0.1365324705839157,0.14867334067821503
13694.061313738059,0.5107327699661255,0.26737627387046814,-0.7324631810188293,0.9999614953994751,0.521942138671875,0.24840189516544342,-0.694572389125824,0.9999066591262817,0.5310401916503906,0.2486565262079239,-0.6947195529937744,0.9998824596405029,0.5395361185073853,0.2490462064743042,-0.6949269771575928,0.9998922348022461,0.492371141910553,0.2477489560842514,-0.7192061543464661,0.9999090433120728,0.4797147512435913,0.24765975773334503,-0.7193835973739624,0.9999030828475952,0.4653739631175995,0.24764211475849152,-0.7196187973022461,0.9999136924743652,0.5385940670967102,0.25732043385505676,-0.4600686728954315,0.9998219609260559,0.43135866522789,0.25626614689826965,-0.5821622014045715,0.9999144077301025,0.5208953619003296,0.2898251414299011,-0.6419776678085327,0.9999814033508301,0.48396772146224976,0.2886893153190613,-0.6769202947616577,0.9999842643737793,0.6126270294189453,0.37830379605293274,-0.2879643738269806,0.9999388456344604,0.34397822618484497,0.3905341625213623,-0.5157319903373718,0.9999092817306519,0.6463303565979004,0.5414297580718994,-0.15233470499515533,0.9694784283638,0.3413228988647461,0.5784090757369995,-0.4944435954093933,0.9932360053062439,0.6522472500801086,0.6780566573143005,-0.2654931843280792,0.9692636132240295,0.3763066530227661,0.7206957340240479,-0.5923267006874084,0.9695676565170288,0.6617690920829773,0.7217435836791992,-0.3284607231616974,0.9374275803565979,0.37941429018974304,0.7703335285186768,-0.6584301590919495,0.9364528656005859,0.6430259346961975,0.7217198610305786,-0.38833656907081604,0.9437265396118164,0.4079444110393524,0.7687990665435791,-0.7161104679107666,0.9402626752853394,0.6335464715957642,0.7115078568458557,-0.2914975583553314,0.9428479671478271,0.4138340353965759,0.7520068287849426,-0.615085780620575,0.9400285482406616,0.5795891284942627,0.6604297161102295,0.04379770904779434,0.9983919262886047,0.4286307394504547,0.6745033264160156,-0.04369504749774933,0.9977506995201111,0.5772095322608948,0.8823041915893555,-0.07055138051509857,0.5175004601478577,0.44755715131759644,0.897355854511261,-0.13260434567928314,0.44651249051094055,0.5570172071456909,1.0433075428009033,0.42402568459510803,0.17306624352931976,0.4513225853443146,1.0495575666427612,0.3167305886745453,0.18376360833644867,0.5442545413970947,1.063960075378418,0.4591723680496216,0.16390863060951233,0.45156237483024597,1.0650687217712402,0.3504485487937927,0.0946565493941307,0.5933526158332825,1.1141902208328247,0.25904110074043274,0.15999101102352142,0.48232370615005493,1.1262105703353882,0.08872228860855103,0.17340512573719025
13710.727980404725,0.5091465711593628,0.26708897948265076,-0.7259258031845093,0.9999687671661377,0.5219233632087708,0.24876363575458527,-0.6889098882675171,0.9999223947525024,0.5315418243408203,0.24922795593738556,-0.6890408992767334,0.9999008178710938,0.5404475927352905,0.24985213577747345,-0.689245879650116,0.9999071359634399,0.4918663799762726,0.2477036863565445,-0.712888240814209,0.9999245405197144,0.47938182950019836,0.2474200278520584,-0.7130498290061951,0.9999198913574219,0.46520423889160156,0.24714456498622894,-0.7132672071456909,0.9999284744262695,0.5410809516906738,0.2586823105812073,-0.45607489347457886,0.9998466968536377,0.43121397495269775,0.255533903837204,-0.5748689770698547,0.9999322891235352,0.5196293592453003,0.2901196777820587,-0.6355802416801453,0.9999852180480957,0.48254042863845825,0.2884646952152252,-0.6695758700370789,0.9999874830245972,0.612357497215271,0.3790816068649292,-0.27877745032310486,0.9999475479125977,0.3430628776550293,0.3891201317310333,-0.5114412903785706,0.9999266862869263,0.6455396413803101,0.5418989658355713,-0.1334988921880722,0.9702364206314087,0.34164899587631226,0.5762560367584229,-0.48581376671791077,0.9939441084861755,0.6510151624679565,0.6781256198883057,-0.23715625703334808,0.9708684086799622,0.377408504486084,0.7200659513473511,-0.5804760456085205,0.9735499620437622,0.6605494022369385,0.7213173508644104,-0.2979212701320648,0.9409834742546082,0.3803788423538208,0.7691643238067627,-0.6464546322822571,0.9436052441596985,0.6417591571807861,0.7211741805076599,-0.35813120007514954,0.9465523362159729,0.4097556173801422,0.7674348950386047,-0.7040804624557495,0.9468489289283752,0.6320109963417053,0.7108141779899597,-0.2630116641521454,0.9460707902908325,0.4157610535621643,0.7507982850074768,-0.6029154062271118,0.9470297694206238,0.5775032043457031,0.660198450088501,0.04409079626202583,0.9988229870796204,0.4261701703071594,0.6734777092933655,-0.04401009902358055,0.9983235001564026,0.5773171782493591,0.880860447883606,-0.06472493708133698,0.5740670561790466,0.44558796286582947,0.8959731459617615,-0.13704553246498108,0.49127838015556335,0.5543193221092224,1.0399237871170044,0.43122223019599915,0.19212369620800018,0.44839805364608765,1.0431889295578003,0.338422954082489,0.1858692765235901,0.5410037636756897,1.0600587129592896,0.4666888415813446,0.16656580567359924,0.44959452748298645,1.0580028295516968,0.3755299746990204,0.09807746857404709,0.5897299647331238,1.1131837368011475,0.2707407772541046,0.17041879892349243,0.4744711220264435,1.1204551458358765,0.12559543550014496,0.17795899510383606
13727.39464707139,0.5077770948410034,0.2659417688846588,-0.7247856259346008,0.9999679327011108,0.521397590637207,0.24829477071762085,-0.686000406742096,0.9999222755432129,0.5312454700469971,0.2488817572593689,-0.6861363649368286,0.9999001026153564,0.5405170321464539,0.24952830374240875,-0.6863447427749634,0.9999067783355713,0.49092531204223633,0.24668247997760773,-0.7107643485069275,0.9999241828918457,0.4786233603954315,0.24610793590545654,-0.7109127640724182,0.999919056892395,0.4646424949169159,0.24554865062236786,-0.7111309766769409,0.9999271631240845,0.5417081117630005,0.2587224543094635,-0.45002347230911255,0.9998440742492676,0.43123000860214233,0.2541821002960205,-0.5723560452461243,0.9999315738677979,0.5186627507209778,0.28953802585601807,-0.6339027285575867,0.9999852180480957,0.4807237982749939,0.28773465752601624,-0.6688911318778992,0.9999873638153076,0.6120601892471313,0.3792083263397217,-0.2705717980861664,0.9999425411224365,0.34353768825531006,0.3887854218482971,-0.5155046582221985,0.9999159574508667,0.6448311805725098,0.5425447225570679,-0.12715160846710205,0.968963086605072,0.34190481901168823,0.5759957432746887,-0.49421390891075134,0.9935491681098938,0.6503749489784241,0.677726149559021,-0.23048986494541168,0.9697542786598206,0.3792996406555176,0.7207085490226746,-0.5897887945175171,0.9712037444114685,0.6586852073669434,0.7214758396148682,-0.29177290201187134,0.9383484721183777,0.38143831491470337,0.769548237323761,-0.6571579575538635,0.9389680027961731,0.639999270439148,0.7207788825035095,-0.3505348861217499,0.9444048404693604,0.4113219082355499,0.7679292559623718,-0.7136088609695435,0.9424994587898254,0.6303508281707764,0.7104089260101318,-0.25597891211509705,0.9438114166259766,0.41716253757476807,0.7516261339187622,-0.6119038462638855,0.9428421258926392,0.5763635635375977,0.6614146828651428,0.04758496955037117,0.9988564252853394,0.42557817697525024,0.6737827658653259,-0.047473497688770294,0.9983565211296082,0.5762891173362732,0.8830652832984924,-0.06501980125904083,0.5630783438682556,0.44483157992362976,0.8979002833366394,-0.1451903134584427,0.4780924320220947,0.5564128756523132,1.0411012172698975,0.4394593834877014,0.18142372369766235,0.4419388771057129,1.0444307327270508,0.3440808653831482,0.17315484583377838,0.5402615070343018,1.0619194507598877,0.47571083903312683,0.16274410486221313,0.44231072068214417,1.0591137409210205,0.3826233446598053,0.09237023442983627,0.5906069874763489,1.113885521888733,0.28006795048713684,0.15758493542671204,0.46700987219810486,1.12081778049469,0.13248054683208466,0.16321921348571777
13744.061313738057,0.506173849105835,0.266107976436615,-0.7595312595367432,0.9999618530273438,0.5205695033073425,0.2481999695301056,-0.7200204730033875,0.9999059438705444,0.5305882692337036,0.24880939722061157,-0.7201714515686035,0.9998805522918701,0.5403032302856445,0.24940863251686096,-0.7203836441040039,0.9998863935470581,0.4895166754722595,0.24652493000030518,-0.7435266375541687,0.9999066591262817,0.4768369793891907,0.24596908688545227,-0.7436872124671936,0.9999010562896729,0.4630436897277832,0.2454531043767929,-0.7439191341400146,0.9999092817306519,0.5435779094696045,0.2586110532283783,-0.47558149695396423,0.9998118281364441,0.43063968420028687,0.2543644607067108,-0.5922394394874573,0.9999157190322876,0.5178945064544678,0.28998714685440063,-0.6651528477668762,0.999982476234436,0.4791047275066376,0.28813186287879944,-0.6985265016555786,0.999984622001648,0.6150007247924805,0.3788573443889618,-0.2869371473789215,0.9999433755874634,0.34409698843955994,0.38938459753990173,-0.5250421762466431,0.9999114274978638,0.6459182500839233,0.5421298146247864,-0.14064595103263855,0.969856858253479,0.34307655692100525,0.5761128067970276,-0.4987139105796814,0.9932926893234253,0.6504126787185669,0.6778660416603088,-0.2522345781326294,0.9694392085075378,0.3800334632396698,0.7210356593132019,-0.6051083207130432,0.9699291586875916,0.6593883037567139,0.7214442491531372,-0.31502267718315125,0.9384881854057312,0.3827511966228485,0.7702064514160156,-0.674349308013916,0.9364449977874756,0.640271008014679,0.7205767631530762,-0.37479689717292786,0.9446552991867065,0.4112169146537781,0.7683581113815308,-0.7323839068412781,0.9403713345527649,0.6305170655250549,0.7102089524269104,-0.2780705988407135,0.9441099762916565,0.4172539710998535,0.752169668674469,-0.6280014514923096,0.9408796429634094,0.5795363187789917,0.6633458733558655,0.04427618160843849,0.9988419413566589,0.4270969033241272,0.675599992275238,-0.04414055868983269,0.9982119798660278,0.5765928030014038,0.8848797082901001,-0.07345876097679138,0.5274703502655029,0.44520968198776245,0.8993014097213745,-0.14258556067943573,0.4252082109451294,0.5529626607894897,1.0406333208084106,0.4470061957836151,0.163314551115036,0.44108709692955017,1.0449845790863037,0.37276560068130493,0.14617903530597687,0.5393657088279724,1.0646421909332275,0.48476582765579224,0.15469977259635925,0.44185951352119446,1.0595052242279053,0.41397324204444885,0.08545614033937454,0.586127758026123,1.116215705871582,0.28484734892845154,0.14411336183547974,0.46435514092445374,1.121111273765564,0.16209645569324493,0.14291079342365265
13760.727980404723,0.5084586143493652,0.2663443088531494,-0.7675987482070923,0.9999631643295288,0.5220005512237549,0.24827153980731964,-0.7294750809669495,0.9999128580093384,0.5318184494972229,0.24872928857803345,-0.7296205163002014,0.9998899698257446,0.5410522222518921,0.24924367666244507,-0.7298496961593628,0.9998962879180908,0.49144360423088074,0.2469252645969391,-0.7533511519432068,0.9999123811721802,0.47910261154174805,0.24645845592021942,-0.7535226345062256,0.9999079704284668,0.4650009870529175,0.2460172027349472,-0.7537488341331482,0.9999171495437622,0.5432385206222534,0.2580278217792511,-0.488250195980072,0.9998306035995483,0.4317978322505951,0.2545570433139801,-0.6067479848861694,0.9999222755432129,0.5194792151451111,0.28945258259773254,-0.673936128616333,0.9999829530715942,0.481534481048584,0.2881142497062683,-0.7078964114189148,0.9999850988388062,0.6150983572006226,0.37780436873435974,-0.3011555075645447,0.9999353885650635,0.34465640783309937,0.38818931579589844,-0.5364164710044861,0.9999091625213623,0.6467651128768921,0.541839063167572,-0.1560649871826172,0.9650853872299194,0.3415863513946533,0.5773010849952698,-0.5101796984672546,0.993629515171051,0.6523303389549255,0.6780573129653931,-0.2617943584918976,0.9655818343162537,0.3783433139324188,0.7212828993797302,-0.6146735548973083,0.9720384478569031,0.6594943404197693,0.7225997447967529,-0.3229508101940155,0.9318962097167969,0.37993401288986206,0.770329475402832,-0.6833600401878357,0.940679132938385,0.6416852474212646,0.7213214635848999,-0.38410601019859314,0.9386085271835327,0.40752169489860535,0.7689359784126282,-0.7409111261367798,0.9444054961204529,0.6332893371582031,0.7108609676361084,-0.28818830847740173,0.9382595419883728,0.41384202241897583,0.7526407837867737,-0.6375874876976013,0.9445649981498718,0.5820116996765137,0.6608767509460449,0.04271066188812256,0.9986423850059509,0.4284493029117584,0.6730008125305176,-0.04262116551399231,0.9979521632194519,0.574135422706604,0.8831862807273865,-0.07491378486156464,0.5645159482955933,0.4439082145690918,0.8960650563240051,-0.14782467484474182,0.46973544359207153,0.5527960062026978,1.0430412292480469,0.44767051935195923,0.18031099438667297,0.4491803050041199,1.0456016063690186,0.35454070568084717,0.15986591577529907,0.5404230952262878,1.0631933212280273,0.4859999418258667,0.15815596282482147,0.4501268267631531,1.059277892112732,0.3945807218551636,0.08490176498889923,0.5866760611534119,1.1159842014312744,0.2888951599597931,0.1598353385925293,0.4797161817550659,1.1231441497802734,0.14408470690250397,0.15388084948062897
13777.394647071389,0.5078496932983398,0.2666403353214264,-0.7795864343643188,0.9999526739120483,0.5217434763908386,0.24861133098602295,-0.7407919764518738,0.999886155128479,0.531806230545044,0.24897265434265137,-0.7409226894378662,0.999858021736145,0.5412383079528809,0.24937804043293,-0.7411284446716309,0.9998631477355957,0.4902397692203522,0.24756918847560883,-0.7659634947776794,0.9998867511749268,0.4771711230278015,0.24721269309520721,-0.7661355137825012,0.9998832941055298,0.4630224406719208,0.2467968463897705,-0.7663666605949402,0.9998928308486938,0.5439093708992004,0.2580709457397461,-0.49398931860923767,0.9997772574424744,0.43069517612457275,0.25507423281669617,-0.6181062459945679,0.9999022483825684,0.5196781754493713,0.2894432842731476,-0.6838239431381226,0.9999779462814331,0.48039329051971436,0.288369745016098,-0.7193331122398376,0.9999814033508301,0.6146551370620728,0.377551406621933,-0.2929932773113251,0.999927282333374,0.34360790252685547,0.389518678188324,-0.551958441734314,0.999906063079834,0.6462113857269287,0.5423918962478638,-0.14216624200344086,0.9626713991165161,0.34167519211769104,0.5759403109550476,-0.5278912782669067,0.9937684535980225,0.6516256332397461,0.6775217056274414,-0.25406476855278015,0.964024543762207,0.37686461210250854,0.7213245034217834,-0.6313972473144531,0.9702712297439575,0.6594865322113037,0.7215501666069031,-0.315532386302948,0.9285576343536377,0.37937554717063904,0.7705166339874268,-0.7010378241539001,0.9362179040908813,0.6412858963012695,0.7200868725776672,-0.3773289620876312,0.935677170753479,0.4074748456478119,0.76875901222229,-0.7593324184417725,0.939994752407074,0.6321513056755066,0.7100123167037964,-0.2811468541622162,0.9346851706504822,0.4135408103466034,0.7523154020309448,-0.6544848084449768,0.9403793811798096,0.5795405507087708,0.6621416211128235,0.053125910460948944,0.9984568357467651,0.4285335838794708,0.6746146082878113,-0.05299759283661842,0.9978139400482178,0.5747174620628357,0.8819641470909119,-0.045082490891218185,0.5417824387550354,0.4468082785606384,0.8981617093086243,-0.14163364470005035,0.4603014886379242,0.5518017411231995,1.0380537509918213,0.4583985209465027,0.1832539588212967,0.4491342306137085,1.04631507396698,0.3562173545360565,0.16262449324131012,0.5396987199783325,1.063062310218811,0.49392426013946533,0.16135287284851074,0.44798940420150757,1.0608100891113281,0.3947373628616333,0.0889294445514679,0.5877425670623779,1.115424633026123,0.28633254766464233,0.16425782442092896,0.4828276038169861,1.1233090162277222,0.13275782763957977,0.15764397382736206
13794.061313738055,0.5083218216896057,0.2668028473854065,-0.7628902792930603,0.9999572038650513,0.5218566060066223,0.24872860312461853,-0.726227343082428,0.9998995065689087,0.5317389369010925,0.2491542398929596,-0.7263599038124084,0.9998751878738403,0.5411038994789124,0.24966831505298615,-0.7265955805778503,0.999883770942688,0.49101927876472473,0.2475431114435196,-0.7501808404922485,0.9998981952667236,0.47840771079063416,0.24715079367160797,-0.7503539323806763,0.9998939037322998,0.4642130434513092,0.24676482379436493,-0.7505825757980347,0.999903678894043,0.5434946417808533,0.25868943333625793,-0.49009785056114197,0.9998088479042053,0.43107300996780396,0.25544387102127075,-0.6092047095298767,0.9999035596847534,0.5194054841995239,0.2900635898113251,-0.6706485748291016,0.9999796152114868,0.48178279399871826,0.2888813018798828,-0.7048265933990479,0.9999814033508301,0.6143386363983154,0.3783429265022278,-0.30948489904403687,0.9999330043792725,0.3453066647052765,0.38841167092323303,-0.5361220240592957,0.9998846054077148,0.6473751664161682,0.5419380068778992,-0.15747399628162384,0.9658570885658264,0.3408314287662506,0.5765486359596252,-0.5067168474197388,0.9918946623802185,0.6548544764518738,0.6773107051849365,-0.24356135725975037,0.9647518396377563,0.37707650661468506,0.7213120460510254,-0.5967798233032227,0.9644401669502258,0.6627967357635498,0.7214036583900452,-0.2998547852039337,0.9297811985015869,0.3794216215610504,0.7704925537109375,-0.6604067087173462,0.9273843765258789,0.6445823907852173,0.7197142243385315,-0.359102338552475,0.9368254542350769,0.4063255190849304,0.7693586349487305,-0.7171494364738464,0.9319412112236023,0.6357769966125488,0.7093329429626465,-0.2684127986431122,0.9366770386695862,0.4117445945739746,0.7528050541877747,-0.619005024433136,0.9325619339942932,0.5835139751434326,0.6590031981468201,0.039478275924921036,0.9985339641571045,0.4286114275455475,0.6702776551246643,-0.03943267837166786,0.997684121131897,0.5771008133888245,0.8823640942573547,-0.08574723452329636,0.5573824644088745,0.44742149114608765,0.895720362663269,-0.14999856054782867,0.44115790724754333,0.5561692714691162,1.0407501459121704,0.4409007728099823,0.17914892733097076,0.4512947201728821,1.0438380241394043,0.35478144884109497,0.15472504496574402,0.5450721383094788,1.0600028038024902,0.4800911247730255,0.14785093069076538,0.4523782432079315,1.0568504333496094,0.3953898251056671,0.07913046330213547,0.5847718715667725,1.1153881549835205,0.2847239673137665,0.1541178971529007,0.48008787631988525,1.1220148801803589,0.14737468957901,0.14701497554779053
13810.727980404721,0.5097217559814453,0.2672947645187378,-0.7412148118019104,0.9999600648880005,0.5223575234413147,0.24870754778385162,-0.7037332057952881,0.9999016523361206,0.5315134525299072,0.24905051290988922,-0.7038718461990356,0.9998784065246582,0.5403491258621216,0.2494211196899414,-0.7040771245956421,0.9998844861984253,0.49207720160484314,0.24798382818698883,-0.7298063635826111,0.9999022483825684,0.47963806986808777,0.247845858335495,-0.7299579381942749,0.9998985528945923,0.4656062126159668,0.24771957099437714,-0.7301784157752991,0.9999061822891235,0.5416321158409119,0.2583247423171997,-0.4612997770309448,0.9998117089271545,0.4328043758869171,0.25652825832366943,-0.589015543460846,0.9999117851257324,0.520383358001709,0.2902577817440033,-0.6463984251022339,0.9999802112579346,0.48382866382598877,0.2892979681491852,-0.6829683780670166,0.9999828338623047,0.6129351854324341,0.3767012357711792,-0.2691895663738251,0.9999432563781738,0.34383440017700195,0.38923072814941406,-0.5219433903694153,0.9999160766601562,0.6470860242843628,0.5390787720680237,-0.12162013351917267,0.9647773504257202,0.342115581035614,0.5744067430496216,-0.49575433135032654,0.993489146232605,0.6528414487838745,0.676445484161377,-0.24171768128871918,0.9656819701194763,0.378552109003067,0.7198233604431152,-0.5957995057106018,0.9697281122207642,0.6617249250411987,0.7201984524726868,-0.30376940965652466,0.9315888285636902,0.3806504011154175,0.7699673771858215,-0.6620991230010986,0.9360806345939636,0.6429588198661804,0.7182798385620117,-0.36548325419425964,0.9385236501693726,0.4065953195095062,0.7683528065681458,-0.7214300632476807,0.9399607181549072,0.6334589123725891,0.7080860137939453,-0.26885366439819336,0.9374967217445374,0.41230183839797974,0.7512686252593994,-0.6188804507255554,0.9399740695953369,0.5799678564071655,0.6631731986999512,0.049918126314878464,0.9983993172645569,0.4294072985649109,0.6744362711906433,-0.04978124797344208,0.9977593421936035,0.5767051577568054,0.8830100893974304,-0.06778129935264587,0.5357049703598022,0.4458564221858978,0.8923280835151672,-0.15174275636672974,0.44535210728645325,0.5531913638114929,1.0428932905197144,0.4125227928161621,0.1843416541814804,0.4480319023132324,1.051710844039917,0.307407408952713,0.17431999742984772,0.5419079065322876,1.0682928562164307,0.4457304775714874,0.16189202666282654,0.44616857171058655,1.0674293041229248,0.34170278906822205,0.0938672125339508,0.586937427520752,1.119889497756958,0.23656883835792542,0.1631525605916977,0.47919517755508423,1.128008484840393,0.07638105750083923,0.16637904942035675
13827.394647071387,0.5132193565368652,0.2695298492908478,-0.7407026290893555,0.9999535083770752,0.5242934823036194,0.2498825341463089,-0.7051598429679871,0.9998805522918701,0.5332237482070923,0.2499876171350479,-0.705294668674469,0.9998506307601929,0.5414355993270874,0.2502145767211914,-0.7055008411407471,0.9998619556427002,0.49504518508911133,0.24966736137866974,-0.7345957159996033,0.9998847246170044,0.4825327694416046,0.24968679249286652,-0.7347795963287354,0.9998792409896851,0.4679754376411438,0.2496972531080246,-0.735011100769043,0.9998906850814819,0.5390698909759521,0.2585800886154175,-0.469219833612442,0.9997724890708923,0.43285322189331055,0.25814905762672424,-0.6123071312904358,0.9998936653137207,0.5225828886032104,0.2919095456600189,-0.6474365592002869,0.9999756813049316,0.4875562787055969,0.2907986342906952,-0.6884719729423523,0.9999793767929077,0.612388014793396,0.3771512508392334,-0.27931952476501465,0.9999387264251709,0.34232017397880554,0.3897413909435272,-0.5434470176696777,0.9999133348464966,0.6459521651268005,0.5383614301681519,-0.1265753209590912,0.9645109176635742,0.34222832322120667,0.5753492116928101,-0.5138881206512451,0.9938910007476807,0.6556166410446167,0.6749455332756042,-0.2409633994102478,0.9679232835769653,0.37783920764923096,0.7203835248947144,-0.59697425365448,0.9744263291358948,0.6656967401504517,0.7176058292388916,-0.30039429664611816,0.9350830912590027,0.37987497448921204,0.7691648602485657,-0.6605941653251648,0.9455968141555786,0.6491532325744629,0.7172462940216064,-0.3632808327674866,0.9417014718055725,0.4072875678539276,0.7675694227218628,-0.7186223268508911,0.9486727118492126,0.6397424936294556,0.7074833512306213,-0.2684340178966522,0.9407774806022644,0.41290953755378723,0.7512925267219543,-0.6189776062965393,0.9471345543861389,0.5816135406494141,0.6589561700820923,0.05052972212433815,0.9981080293655396,0.43137669563293457,0.6731977462768555,-0.05045900493860245,0.9973806738853455,0.5760721564292908,0.8819929957389832,-0.05660001561045647,0.5070933103561401,0.44715791940689087,0.8921847939491272,-0.12519459426403046,0.41857340931892395,0.5560861229896545,1.0431602001190186,0.4142260253429413,0.1862812638282776,0.45385122299194336,1.0522050857543945,0.30602791905403137,0.19997982680797577,0.5434054732322693,1.0663037300109863,0.4468407928943634,0.17489378154277802,0.4534916281700134,1.068921685218811,0.3369576036930084,0.10564251244068146,0.5936516523361206,1.1166316270828247,0.2391027808189392,0.17922911047935486,0.4886559247970581,1.1293174028396606,0.06500029563903809,0.1938340961933136
13844.061313738053,0.514957070350647,0.2698206305503845,-0.7684746384620667,0.999956488609314,0.5252491235733032,0.2502204179763794,-0.7332542538642883,0.9998922348022461,0.5339459776878357,0.25025099515914917,-0.7333917617797852,0.9998663663864136,0.5418651700019836,0.2503919303417206,-0.7336118221282959,0.9998763799667358,0.496362566947937,0.25015202164649963,-0.7623844742774963,0.9998936653137207,0.4839778542518616,0.25017794966697693,-0.7625913619995117,0.9998892545700073,0.46949487924575806,0.2501402199268341,-0.762816846370697,0.99989914894104,0.5381614565849304,0.2584899365901947,-0.4963199198246002,0.9997996687889099,0.43410760164260864,0.2582460939884186,-0.6384227871894836,0.999901533126831,0.5240198969841003,0.2918677031993866,-0.674568235874176,0.9999781847000122,0.4899722933769226,0.29083457589149475,-0.7153619527816772,0.9999805688858032,0.6117715835571289,0.3770996928215027,-0.3081342875957489,0.9999452829360962,0.3429032564163208,0.3896887004375458,-0.5614959001541138,0.9999107122421265,0.6458215117454529,0.5380744934082031,-0.15413618087768555,0.9657928347587585,0.3417013883590698,0.5761561393737793,-0.5250292420387268,0.9934116005897522,0.6535673141479492,0.6749584674835205,-0.2595088481903076,0.9648560285568237,0.3765519857406616,0.7196258306503296,-0.6040948629379272,0.9713820815086365,0.6622104048728943,0.717884361743927,-0.3171737492084503,0.9294819235801697,0.37833625078201294,0.7677682638168335,-0.6663573384284973,0.9400709867477417,0.6468833088874817,0.717539370059967,-0.37941670417785645,0.9365592002868652,0.40505993366241455,0.7664758563041687,-0.7247802019119263,0.9436272978782654,0.6371684074401855,0.7075605392456055,-0.28624311089515686,0.9365336894989014,0.4109911322593689,0.7503530979156494,-0.626305878162384,0.9423303604125977,0.5793179273605347,0.6571096181869507,0.046117693185806274,0.9984246492385864,0.43038254976272583,0.6706177592277527,-0.04608460143208504,0.997534990310669,0.5741608142852783,0.8803361654281616,-0.07978764921426773,0.5099886059761047,0.44454193115234375,0.8881150484085083,-0.13341790437698364,0.4070255756378174,0.5517205595970154,1.0387202501296997,0.4180748760700226,0.18204276263713837,0.45241454243659973,1.0448815822601318,0.3391120433807373,0.17774535715579987,0.5421653389930725,1.060865879058838,0.4542141258716583,0.17319872975349426,0.4527130126953125,1.0599201917648315,0.37527573108673096,0.096800297498703,0.590681254863739,1.112663745880127,0.2534637451171875,0.17613060772418976,0.48612743616104126,1.1229156255722046,0.11550282686948776,0.1759863942861557
13860.72798040472,0.5133609175682068,0.26942524313926697,-0.7285101413726807,0.9999618530273438,0.5248826742172241,0.24990160763263702,-0.6934944987297058,0.9999094009399414,0.5341367721557617,0.24998725950717926,-0.6936331987380981,0.9998891353607178,0.5425703525543213,0.25020796060562134,-0.6938599944114685,0.9998968839645386,0.49502918124198914,0.24962136149406433,-0.7208595871925354,0.9999071359634399,0.482512891292572,0.24958863854408264,-0.721030592918396,0.9999027252197266,0.4681917726993561,0.24955610930919647,-0.7212475538253784,0.9999098777770996,0.5412424802780151,0.25828343629837036,-0.46239471435546875,0.9998335838317871,0.432809442281723,0.2576799690723419,-0.5970128178596497,0.9999111890792847,0.5228332877159119,0.2914043962955475,-0.6373382210731506,0.9999802112579346,0.48659276962280273,0.29078733921051025,-0.6759192943572998,0.9999816417694092,0.6138927936553955,0.3771721124649048,-0.2855191230773926,0.9999444484710693,0.34614741802215576,0.3885650038719177,-0.5260248780250549,0.999891996383667,0.646147608757019,0.5393898487091064,-0.13167835772037506,0.9630671739578247,0.341797411441803,0.5746934413909912,-0.4961710572242737,0.991917073726654,0.6580266952514648,0.6752560138702393,-0.22577284276485443,0.9648407101631165,0.3763049244880676,0.7196810245513916,-0.5735365152359009,0.9645484089851379,0.6689090132713318,0.7177257537841797,-0.2807566821575165,0.9301283359527588,0.37949419021606445,0.7691696286201477,-0.6329983472824097,0.9286456108093262,0.6522226929664612,0.7171744108200073,-0.341744065284729,0.9372006058692932,0.4059615135192871,0.7684968113899231,-0.6901705265045166,0.9327723979949951,0.6426550149917603,0.7075316309928894,-0.2517160177230835,0.9376859664916992,0.4108518958091736,0.7516973614692688,-0.5953662991523743,0.9326703548431396,0.5815709233283997,0.6568586230278015,0.0419730581343174,0.9985176920890808,0.4292815625667572,0.669583261013031,-0.0419125072658062,0.9976176619529724,0.5778789520263672,0.8817449808120728,-0.07894285023212433,0.49533382058143616,0.44837597012519836,0.892810046672821,-0.13474497199058533,0.39971089363098145,0.5494218468666077,1.0393707752227783,0.42185482382774353,0.16943858563899994,0.45145606994628906,1.0448417663574219,0.3307816684246063,0.16960565745830536,0.5446666479110718,1.0606911182403564,0.4585254192352295,0.15926040709018707,0.45187264680862427,1.059472918510437,0.3668183982372284,0.09058761596679688,0.5898150205612183,1.1142162084579468,0.26361992955207825,0.15441490709781647,0.48116764426231384,1.123172640800476,0.11125772446393967,0.16218352317810059
13877.394647071385,0.5121839046478271,0.26962098479270935,-0.7606201171875,0.9999622106552124,0.5236201882362366,0.2499871701002121,-0.7256559729576111,0.9999094009399414,0.5328707695007324,0.2501286566257477,-0.7257958054542542,0.9998890161514282,0.5415075421333313,0.25036296248435974,-0.7260274887084961,0.9998953342437744,0.4937150776386261,0.2497040033340454,-0.7516917586326599,0.9999061822891235,0.481149286031723,0.24972401559352875,-0.751866340637207,0.9999020099639893,0.46673646569252014,0.2497549206018448,-0.7520813941955566,0.9999086856842041,0.5407686829566956,0.2588115930557251,-0.49123093485832214,0.9998370409011841,0.4318060278892517,0.25860852003097534,-0.6199880838394165,0.9999128580093384,0.5221428871154785,0.2918767035007477,-0.6680938005447388,0.999981164932251,0.4857544004917145,0.2911808490753174,-0.7049688696861267,0.9999823570251465,0.6133309602737427,0.37736567854881287,-0.30790823698043823,0.9999444484710693,0.3453919291496277,0.3890255093574524,-0.5403566360473633,0.9998972415924072,0.6461076736450195,0.5394119620323181,-0.15117385983467102,0.9640024900436401,0.34146103262901306,0.5758766531944275,-0.5051649808883667,0.9922729730606079,0.6573435068130493,0.6759172081947327,-0.2490750402212143,0.9639933109283447,0.37642425298690796,0.7197110652923584,-0.5882784128189087,0.9654502272605896,0.6680014133453369,0.718346118927002,-0.30513477325439453,0.9290168881416321,0.37921440601348877,0.7694374918937683,-0.6490733623504639,0.9302641749382019,0.651887834072113,0.7181587815284729,-0.3672493100166321,0.9360675811767578,0.4060829281806946,0.7685094475746155,-0.7074406147003174,0.9344764351844788,0.6420515775680542,0.7087395191192627,-0.2754371166229248,0.9369238615036011,0.4110304117202759,0.7516154050827026,-0.610794723033905,0.9348694682121277,0.5810052156448364,0.6564910411834717,0.04001602157950401,0.9985912442207336,0.428750216960907,0.6693557500839233,-0.039936363697052,0.9977259039878845,0.5777677297592163,0.8807253241539001,-0.0853344202041626,0.5061604976654053,0.4473293423652649,0.8916686177253723,-0.13317330181598663,0.41648170351982117,0.5550814270973206,1.0382275581359863,0.43126344680786133,0.17035989463329315,0.45075616240501404,1.0422002077102661,0.3408155143260956,0.17409825325012207,0.542977511882782,1.0579851865768433,0.4694635272026062,0.16523277759552002,0.4515123665332794,1.0566703081130981,0.37777772545814514,0.09512286633253098,0.5897397994995117,1.1111881732940674,0.2750389575958252,0.15437768399715424,0.4798952639102936,1.1206785440444946,0.12186247855424881,0.1641308218240738
13894.061313738051,0.513484001159668,0.27118927240371704,-0.7563809156417847,0.9999524354934692,0.5245594382286072,0.25100868940353394,-0.7211623191833496,0.999884843826294,0.5335684418678284,0.2510627508163452,-0.7212997674942017,0.9998576641082764,0.5419384837150574,0.2511952519416809,-0.7215186953544617,0.9998632669448853,0.49510324001312256,0.2508688271045685,-0.7496049404144287,0.9998856782913208,0.48256048560142517,0.2508999705314636,-0.7497884035110474,0.9998823404312134,0.4680887758731842,0.25093820691108704,-0.7500011920928955,0.9998904466629028,0.5404251217842102,0.25941649079322815,-0.4843460023403168,0.9997863173484802,0.43191877007484436,0.25960004329681396,-0.6233735680580139,0.999901294708252,0.5229201316833496,0.29318466782569885,-0.6627445220947266,0.9999761581420898,0.487533301115036,0.29260843992233276,-0.7025120854377747,0.99997878074646,0.6126589179039001,0.37699660658836365,-0.29158690571784973,0.9999340772628784,0.34465354681015015,0.3893698751926422,-0.5526363849639893,0.9999014139175415,0.645653486251831,0.5374780893325806,-0.13450582325458527,0.9593673944473267,0.3418932557106018,0.5754825472831726,-0.521744430065155,0.9933144450187683,0.6564779877662659,0.6707101464271545,-0.2372237592935562,0.96173095703125,0.3748752474784851,0.7209312319755554,-0.6046282649040222,0.9696611166000366,0.6695812344551086,0.7121384143829346,-0.29285457730293274,0.9251794815063477,0.37774378061294556,0.7704062461853027,-0.6672454476356506,0.9370632767677307,0.6526897549629211,0.7124889492988586,-0.35598546266555786,0.9325408935546875,0.40593087673187256,0.7680707573890686,-0.725831925868988,0.9407501816749573,0.6414246559143066,0.7035574913024902,-0.2645542323589325,0.9331502318382263,0.41142576932907104,0.7513543367385864,-0.6272227168083191,0.940847635269165,0.5803093314170837,0.6552682518959045,0.0476793497800827,0.9984739422798157,0.42976969480514526,0.6691692471504211,-0.047582387924194336,0.9977074861526489,0.573102593421936,0.8776171803474426,-0.05546041950583458,0.5187929272651672,0.4439676105976105,0.8896013498306274,-0.1336631178855896,0.4346226453781128,0.5514487028121948,1.0344539880752563,0.440287321805954,0.17892348766326904,0.4504680335521698,1.038159728050232,0.3504296839237213,0.16702811419963837,0.538372278213501,1.0545018911361694,0.4763704538345337,0.1733575463294983,0.4506738483905792,1.0523324012756348,0.38837677240371704,0.09617555141448975,0.5885405540466309,1.1075279712677002,0.2833784222602844,0.1658431887626648,0.48170262575149536,1.1163108348846436,0.13840557634830475,0.16143731772899628
13910.727980404718,0.5103825926780701,0.26877516508102417,-0.8358088731765747,0.9999568462371826,0.522642970085144,0.2500379681587219,-0.7989856004714966,0.9999005794525146,0.5323916673660278,0.2500917315483093,-0.7991448044776917,0.9998773336410522,0.5414712429046631,0.2501646876335144,-0.7993869185447693,0.9998835325241089,0.49157020449638367,0.24964062869548798,-0.8234648704528809,0.9998941421508789,0.47870495915412903,0.24956421554088593,-0.8236483931541443,0.9998869895935059,0.4642460346221924,0.24945466220378876,-0.8238837122917175,0.9998918771743774,0.5431970953941345,0.25816670060157776,-0.5490257740020752,0.9998286962509155,0.4315495789051056,0.2579612135887146,-0.6715363264083862,0.9998962879180908,0.5215767621994019,0.2911137342453003,-0.7374175786972046,0.9999790191650391,0.48416537046432495,0.29072606563568115,-0.7725139260292053,0.9999799728393555,0.6139290928840637,0.3771786391735077,-0.35291504859924316,0.9999427795410156,0.34565937519073486,0.38932883739471436,-0.571754515171051,0.9998799562454224,0.645594596862793,0.5381099581718445,-0.19873584806919098,0.9633885025978088,0.3415471911430359,0.5751690864562988,-0.5429079532623291,0.9898837804794312,0.6583559513092041,0.6728829145431519,-0.316341370344162,0.9619162678718567,0.37278202176094055,0.7204034328460693,-0.6512800455093384,0.9552855491638184,0.6716073751449585,0.714729905128479,-0.37773650884628296,0.9249579906463623,0.3763829469680786,0.7699334621429443,-0.716835081577301,0.9142827987670898,0.6552354693412781,0.7152495384216309,-0.4414381682872772,0.9326367974281311,0.4014921486377716,0.7687161564826965,-0.7787001132965088,0.919476330280304,0.6441641449928284,0.70637047290802,-0.3436678946018219,0.933017373085022,0.4059425890445709,0.7520801424980164,-0.6759425401687622,0.9198017120361328,0.5821958780288696,0.6567074656486511,0.03632247447967529,0.9984044432640076,0.42897889018058777,0.6680529117584229,-0.036210041493177414,0.9972755312919617,0.578615665435791,0.8796008229255676,-0.0895099937915802,0.43504342436790466,0.44435110688209534,0.8876251578330994,-0.0944281592965126,0.3560866415500641,0.5563324093818665,1.0394947528839111,0.44340503215789795,0.14979027211666107,0.45344242453575134,1.0473041534423828,0.35547149181365967,0.1953331083059311,0.5444725751876831,1.0600788593292236,0.4823414385318756,0.16609205305576324,0.4550125002861023,1.0639325380325317,0.3884502947330475,0.10673069953918457,0.5924028754234314,1.1097452640533447,0.2761012613773346,0.14683367311954498,0.48143306374549866,1.1249802112579346,0.10848040878772736,0.18452975153923035
13927.394647071384,0.5091819167137146,0.2678808271884918,-0.764295220375061,0.9999480247497559,0.5215643644332886,0.24902990460395813,-0.726044774055481,0.9998750686645508,0.531185507774353,0.24907365441322327,-0.726222038269043,0.9998501539230347,0.5402132272720337,0.24911606311798096,-0.7264578342437744,0.9998607635498047,0.49064257740974426,0.24877293407917023,-0.7523447871208191,0.9998642206192017,0.47778743505477905,0.24873493611812592,-0.7524980306625366,0.9998544454574585,0.46351319551467896,0.24868302047252655,-0.7527533769607544,0.9998584985733032,0.5409639477729797,0.2574935555458069,-0.4790564775466919,0.9997895359992981,0.4307728707790375,0.25742021203041077,-0.6094843745231628,0.9998605251312256,0.5203255414962769,0.29027512669563293,-0.6677320599555969,0.999975323677063,0.48293960094451904,0.2897743284702301,-0.7050769925117493,0.9999756813049316,0.6141732335090637,0.3784548044204712,-0.29347020387649536,0.9999427795410156,0.3444594442844391,0.39018142223358154,-0.519092857837677,0.9998495578765869,0.6451195478439331,0.5390686988830566,-0.14296624064445496,0.9645398855209351,0.34264320135116577,0.5741362571716309,-0.48686471581459045,0.9887272119522095,0.6583661437034607,0.6712170243263245,-0.27230292558670044,0.9681991338729858,0.3736833333969116,0.7161622047424316,-0.5913554430007935,0.954176664352417,0.6729443073272705,0.7123818397521973,-0.336565762758255,0.9363431334495544,0.3768935799598694,0.7670928239822388,-0.6565382480621338,0.9131989479064941,0.6571242809295654,0.7129406332969666,-0.40069833397865295,0.9433292150497437,0.4028385281562805,0.7665221095085144,-0.7179083824157715,0.91830974817276,0.6458696126937866,0.7040050029754639,-0.30027705430984497,0.9425262212753296,0.40857231616973877,0.7493837475776672,-0.6157493591308594,0.9175744652748108,0.5811379551887512,0.6577762961387634,0.04135424643754959,0.998245358467102,0.4299736022949219,0.6686013340950012,-0.04120862856507301,0.9970189332962036,0.5787888169288635,0.8786385655403137,-0.0847722589969635,0.43258336186408997,0.447458952665329,0.888059675693512,-0.10211045295000076,0.3443310260772705,0.5478413105010986,1.0358433723449707,0.4633900225162506,0.1508937031030655,0.4505867063999176,1.0485382080078125,0.35819387435913086,0.19722478091716766,0.5442060232162476,1.06074059009552,0.503727376461029,0.16806510090827942,0.4508100152015686,1.065502643585205,0.3915696442127228,0.10544979572296143,0.5921677947044373,1.1102161407470703,0.2914779484272003,0.14488692581653595,0.4802968204021454,1.1250123977661133,0.1021871343255043,0.18557630479335785
13944.06131373805,0.5110846757888794,0.2703031599521637,-0.7062188386917114,0.9999467134475708,0.5224900245666504,0.2506350576877594,-0.670488178730011,0.9998699426651001,0.5317593216896057,0.2507466971874237,-0.6706508994102478,0.999839186668396,0.5403371453285217,0.25095033645629883,-0.67088383436203,0.9998520612716675,0.4924171566963196,0.25034913420677185,-0.6977602243423462,0.9998646974563599,0.479958713054657,0.2503404915332794,-0.6979221105575562,0.9998553991317749,0.46582305431365967,0.25030797719955444,-0.6981627345085144,0.9998641014099121,0.5400832891464233,0.25895509123802185,-0.43734025955200195,0.9997674822807312,0.4325771629810333,0.25869476795196533,-0.5716050863265991,0.9998688697814941,0.5215727090835571,0.292158842086792,-0.614453911781311,0.9999724626541138,0.485317200422287,0.2913961708545685,-0.6528958678245544,0.9999740123748779,0.6130520105361938,0.37884706258773804,-0.2573428452014923,0.9999351501464844,0.3472297787666321,0.3888234496116638,-0.5060353875160217,0.9998819828033447,0.6441891193389893,0.5383015871047974,-0.10501737892627716,0.9548412561416626,0.3421955704689026,0.574088990688324,-0.4820558428764343,0.990451455116272,0.6596856713294983,0.671777069568634,-0.20596528053283691,0.9599131345748901,0.3765614926815033,0.7172550559043884,-0.5652769804000854,0.9588738083839417,0.6749894618988037,0.7139101028442383,-0.26130935549736023,0.9223307371139526,0.37861761450767517,0.7672106623649597,-0.625079870223999,0.9204819798469543,0.65912926197052,0.7148855924606323,-0.32299840450286865,0.930452287197113,0.40507447719573975,0.7664290070533752,-0.6831324100494385,0.924921989440918,0.6482962369918823,0.7059583067893982,-0.23264040052890778,0.9315455555915833,0.4106304943561554,0.7492807507514954,-0.587837815284729,0.9246623516082764,0.5805944800376892,0.6583273410797119,0.046939071267843246,0.9983147382736206,0.42934450507164,0.6697340607643127,-0.046829190105199814,0.9973672032356262,0.5797488689422607,0.8793323040008545,-0.09112269431352615,0.3981373906135559,0.4462090730667114,0.8889241218566895,-0.11932177096605301,0.3392719626426697,0.5581870079040527,1.0406968593597412,0.41873791813850403,0.12739375233650208,0.45275717973709106,1.049383282661438,0.31182312965393066,0.18035346269607544,0.545239269733429,1.0614080429077148,0.45615068078041077,0.15159523487091064,0.4527420103549957,1.0662657022476196,0.3430911600589752,0.09909931570291519,0.6005256175994873,1.1093058586120605,0.2621917128562927,0.12659496068954468,0.484350323677063,1.1261390447616577,0.07164116948843002,0.17201395332813263
13960.727980404716,0.5043283700942993,0.2707572877407074,-0.7472534775733948,0.9999381303787231,0.5174633264541626,0.2509884238243103,-0.711895763874054,0.9998495578765869,0.5268955826759338,0.2512800395488739,-0.7120517492294312,0.9998155236244202,0.5362962484359741,0.25168827176094055,-0.7122892737388611,0.9998270869255066,0.4869402050971985,0.2503550052642822,-0.7365917563438416,0.9998451471328735,0.4741191864013672,0.250240296125412,-0.7367676496505737,0.9998369216918945,0.46056243777275085,0.25032439827919006,-0.7370191216468811,0.999846339225769,0.5390985608100891,0.26012173295021057,-0.4752248525619507,0.9997251629829407,0.42892536520957947,0.25923413038253784,-0.5981709361076355,0.999848484992981,0.5163908004760742,0.29321447014808655,-0.6538962125778198,0.9999681711196899,0.47814708948135376,0.29174771904945374,-0.6890968084335327,0.9999698400497437,0.6129049062728882,0.3793146014213562,-0.2902759611606598,0.9999222755432129,0.34589600563049316,0.3899248540401459,-0.51920086145401,0.9998621940612793,0.6462277173995972,0.53900146484375,-0.13244248926639557,0.956876814365387,0.34226512908935547,0.5763403177261353,-0.4888153076171875,0.9895209074020386,0.6604163646697998,0.672676682472229,-0.23066917061805725,0.9589737057685852,0.37424159049987793,0.7200198769569397,-0.5781965255737305,0.9556167125701904,0.6748127341270447,0.7138463258743286,-0.2853058874607086,0.9212818145751953,0.3777279853820801,0.7698255181312561,-0.6376607418060303,0.9149409532546997,0.659392237663269,0.7141802906990051,-0.3472480773925781,0.9293813109397888,0.4037027060985565,0.768684983253479,-0.6963022351264954,0.9199305772781372,0.6482557654380798,0.7052973508834839,-0.2568647861480713,0.9305298328399658,0.4081266522407532,0.7519205808639526,-0.6008603572845459,0.9204626679420471,0.581260085105896,0.6603886485099792,0.040069084614515305,0.9982269406318665,0.42850738763809204,0.6717052459716797,-0.04000343382358551,0.9972161054611206,0.5794090032577515,0.8836307525634766,-0.0964810773730278,0.4130086898803711,0.44710832834243774,0.8970022797584534,-0.12650150060653687,0.33518216013908386,0.5561504364013672,1.04434072971344,0.4285305440425873,0.13089832663536072,0.45134928822517395,1.0509271621704102,0.33285272121429443,0.158646821975708,0.5447534322738647,1.0644288063049316,0.4674966037273407,0.14337703585624695,0.45201775431632996,1.0666459798812866,0.36765778064727783,0.08826591819524765,0.5919212102890015,1.1148011684417725,0.2721576690673828,0.12325788289308548,0.4796540141105652,1.1282222270965576,0.10070235282182693,0.15144428610801697
13977.394647071382,0.5068413615226746,0.2711055278778076,-0.73942631483078,0.9999408721923828,0.5199385285377502,0.25074276328086853,-0.7043507099151611,0.9998557567596436,0.5295606255531311,0.2508586049079895,-0.7045064568519592,0.9998233914375305,0.538754940032959,0.2511062026023865,-0.7047426700592041,0.9998351335525513,0.4891955852508545,0.25072407722473145,-0.7301537990570068,0.9998482465744019,0.47626376152038574,0.25078219175338745,-0.7303247451782227,0.9998395442962646,0.46200689673423767,0.2509966194629669,-0.730565071105957,0.9998471736907959,0.5404452085494995,0.2596544325351715,-0.4668736755847931,0.9997383952140808,0.42936092615127563,0.2599998414516449,-0.5947357416152954,0.9998505115509033,0.5184085965156555,0.2936331331729889,-0.6454055905342102,0.9999690055847168,0.4803368151187897,0.29250383377075195,-0.682022213935852,0.9999698400497437,0.6116883754730225,0.37871503829956055,-0.27781495451927185,0.9999310970306396,0.34709349274635315,0.38899651169776917,-0.5205495357513428,0.9998713731765747,0.6446453928947449,0.5386386513710022,-0.12057670205831528,0.9557867050170898,0.34213101863861084,0.5735379457473755,-0.4918976128101349,0.9896728992462158,0.6604377031326294,0.6708373427391052,-0.21784161031246185,0.9600228071212769,0.3743765652179718,0.7190188765525818,-0.5783801078796387,0.9553034901618958,0.674899697303772,0.7126128077507019,-0.27182966470718384,0.9226669073104858,0.3773188292980194,0.7686216831207275,-0.6381757855415344,0.9138240814208984,0.6587924361228943,0.7131606936454773,-0.3342900574207306,0.9306150674819946,0.4040158987045288,0.7676095366477966,-0.6972357034683228,0.9187046885490417,0.6476035714149475,0.7040089964866638,-0.2443799376487732,0.9313603639602661,0.4089115858078003,0.7508453726768494,-0.6013542413711548,0.9192147850990295,0.5796855092048645,0.659472644329071,0.04482588917016983,0.99835604429245,0.42887598276138306,0.6705361008644104,-0.04476570710539818,0.9973701238632202,0.5803950428962708,0.8824443817138672,-0.09109041094779968,0.41546887159347534,0.44772055745124817,0.896440327167511,-0.13255712389945984,0.3398837447166443,0.5566675662994385,1.0458087921142578,0.4224182665348053,0.13734988868236542,0.4517059028148651,1.0519667863845825,0.3262975215911865,0.16419711709022522,0.5444947481155396,1.0664019584655762,0.46019089221954346,0.15143364667892456,0.45169973373413086,1.0679618120193481,0.3608214855194092,0.09187662601470947,0.5952023863792419,1.116249442100525,0.26386144757270813,0.13217100501060486,0.4811156094074249,1.1289421319961548,0.09430835396051407,0.1597260683774948
13994.061313738048,0.5010610818862915,0.272909551858902,-0.8513074517250061,0.9999463558197021,0.5153982043266296,0.25242742896080017,-0.814238429069519,0.9998689889907837,0.5248327255249023,0.2526490390300751,-0.8143849968910217,0.9998397827148438,0.5342691540718079,0.2529550790786743,-0.8146149516105652,0.9998413324356079,0.48431092500686646,0.25184816122055054,-0.8359639644622803,0.9998595714569092,0.4707058072090149,0.2515154778957367,-0.8361539244651794,0.9998557567596436,0.45695996284484863,0.25185588002204895,-0.8363919854164124,0.9998594522476196,0.5406720638275146,0.261810839176178,-0.5543006062507629,0.9997615218162537,0.4272836148738861,0.26120924949645996,-0.6638196110725403,0.9998736381530762,0.5147912502288818,0.2955414950847626,-0.7488484978675842,0.9999735355377197,0.47423893213272095,0.2940041422843933,-0.78011155128479,0.9999750852584839,0.6115329265594482,0.37749388813972473,-0.3312776982784271,0.9999399185180664,0.34552228450775146,0.38972339034080505,-0.5643526911735535,0.9999058246612549,0.6453005075454712,0.5364096164703369,-0.16610191762447357,0.9653798937797546,0.3427162170410156,0.5774093866348267,-0.5305155515670776,0.9915148019790649,0.6587402820587158,0.6712188720703125,-0.29078343510627747,0.9639331698417664,0.3754759132862091,0.7200679183006287,-0.6537768840789795,0.959693968296051,0.6726593971252441,0.7147344946861267,-0.35264134407043457,0.9275436401367188,0.37930190563201904,0.7693520188331604,-0.7213417291641235,0.9190278649330139,0.6568136811256409,0.7150940299034119,-0.41781318187713623,0.9351514577865601,0.4055077135562897,0.7687253355979919,-0.7870743870735168,0.9240994453430176,0.6459460854530334,0.7054787278175354,-0.31882143020629883,0.9344793558120728,0.40984785556793213,0.7520058751106262,-0.6798461079597473,0.9256425499916077,0.5789077281951904,0.6628268957138062,0.04536517336964607,0.9983094930648804,0.42968249320983887,0.6735401749610901,-0.0452374629676342,0.9974013566970825,0.5778884291648865,0.8848140239715576,-0.06901727616786957,0.4268243610858917,0.44962814450263977,0.8958061933517456,-0.1223536878824234,0.35710951685905457,0.5574193596839905,1.0491514205932617,0.4459427297115326,0.1545732468366623,0.45252883434295654,1.0549224615097046,0.3498796820640564,0.16869410872459412,0.5453425049781799,1.070537805557251,0.4820738434791565,0.16746677458286285,0.4520687162876129,1.0713633298873901,0.38462549448013306,0.10149030387401581,0.5941361784934998,1.1190792322158813,0.2664051949977875,0.14485621452331543,0.4825237989425659,1.131232738494873,0.10193894803524017,0.16353893280029297
14010.727980404714,0.5057603120803833,0.271200954914093,-0.8737361431121826,0.9999592304229736,0.519034206867218,0.2511475086212158,-0.8358571529388428,0.9999020099639893,0.5283845663070679,0.2512897253036499,-0.8360083103179932,0.9998838901519775,0.5372973084449768,0.25155335664749146,-0.8362174034118652,0.9998823404312134,0.4880470633506775,0.2509576976299286,-0.8591633439064026,0.9998905658721924,0.47474128007888794,0.25093182921409607,-0.8593413233757019,0.999887228012085,0.4601822793483734,0.25122249126434326,-0.8595820665359497,0.9998869895935059,0.5396575331687927,0.2601242661476135,-0.5680310130119324,0.9998281002044678,0.42768871784210205,0.2604230046272278,-0.6840085983276367,0.999900221824646,0.5170849561691284,0.2939106822013855,-0.7679603695869446,0.999980092048645,0.4783841371536255,0.29320988059043884,-0.8010820150375366,0.9999810457229614,0.6123867630958557,0.3775109052658081,-0.33834603428840637,0.9999557733535767,0.3429868221282959,0.3900645077228546,-0.5740810036659241,0.999921441078186,0.6441777348518372,0.538480281829834,-0.17488472163677216,0.966489315032959,0.3407910466194153,0.5707276463508606,-0.5350913405418396,0.9931400418281555,0.6559076309204102,0.6727324724197388,-0.334499329328537,0.9682715535163879,0.3770815432071686,0.7182556986808777,-0.6664583683013916,0.9687789082527161,0.6704182624816895,0.7154595255851746,-0.4035729765892029,0.9369086623191833,0.37944191694259644,0.7684939503669739,-0.7363284826278687,0.935612678527832,0.654528021812439,0.7152127027511597,-0.47254815697669983,0.9435799717903137,0.40547749400138855,0.7676869630813599,-0.8053614497184753,0.939751148223877,0.6432914733886719,0.7057116627693176,-0.36512598395347595,0.9420561790466309,0.41116252541542053,0.7500476837158203,-0.6936519145965576,0.9401335716247559,0.5760708451271057,0.6585772037506104,0.04727822542190552,0.9984803795814514,0.42771318554878235,0.6711625456809998,-0.047068119049072266,0.9976536631584167,0.5813950896263123,0.8755713105201721,-0.07465007901191711,0.46480199694633484,0.45010900497436523,0.8853709697723389,-0.12299549579620361,0.3946489691734314,0.5579955577850342,1.0426313877105713,0.44276154041290283,0.17844143509864807,0.4535770118236542,1.048804521560669,0.34462741017341614,0.19022656977176666,0.5450395941734314,1.0639755725860596,0.4786045551300049,0.18724511563777924,0.45192185044288635,1.0661059617996216,0.37843194603919983,0.11572322249412537,0.5935829877853394,1.1135499477386475,0.252237468957901,0.16693834960460663,0.4858527183532715,1.124719500541687,0.08623852580785751,0.1824948936700821
14027.39464707138,0.5042306780815125,0.2708093822002411,-0.863922655582428,0.9999508857727051,0.5181165337562561,0.2511812150478363,-0.8265104293823242,0.9998795986175537,0.5274803042411804,0.2513812184333801,-0.8266609907150269,0.9998576641082764,0.536611795425415,0.25173264741897583,-0.8268691301345825,0.9998573064804077,0.48649123311042786,0.25100043416023254,-0.848846971988678,0.9998680353164673,0.47294479608535767,0.2509833872318268,-0.8490158319473267,0.9998632669448853,0.4588581621646881,0.25130558013916016,-0.849267840385437,0.9998637437820435,0.5397179126739502,0.2603689134120941,-0.5619865655899048,0.9997885823249817,0.4282192289829254,0.2604910433292389,-0.6733496189117432,0.9998766183853149,0.5168070197105408,0.293547660112381,-0.7594257593154907,0.9999758005142212,0.47687602043151855,0.2924175560474396,-0.7912220358848572,0.9999768733978271,0.6133651733398438,0.3771810829639435,-0.3365733027458191,0.9999513626098633,0.34402769804000854,0.38968977332115173,-0.5618756413459778,0.9999103546142578,0.6445616483688354,0.5373234748840332,-0.1732551008462906,0.9675536751747131,0.34004706144332886,0.5699596405029297,-0.5218824148178101,0.9923830628395081,0.6563719511032104,0.671755850315094,-0.3310907185077667,0.9691426753997803,0.37741363048553467,0.7180003523826599,-0.6514938473701477,0.9664955139160156,0.6706483364105225,0.7148217558860779,-0.39986369013786316,0.9386277198791504,0.3797793388366699,0.7685757875442505,-0.7202867865562439,0.9317520260810852,0.6544255018234253,0.7146238088607788,-0.468031644821167,0.9450728297233582,0.40565091371536255,0.7677590847015381,-0.7889634966850281,0.9359919428825378,0.642929196357727,0.705150306224823,-0.3611082434654236,0.9434543251991272,0.4111027717590332,0.7501403093338013,-0.678391695022583,0.936302661895752,0.5759612321853638,0.6594752073287964,0.043698955327272415,0.9983415603637695,0.42782947421073914,0.6708849668502808,-0.04350845515727997,0.9974689483642578,0.5804648995399475,0.8758382201194763,-0.07739520072937012,0.4559515714645386,0.449062317609787,0.8860183954238892,-0.11634492874145508,0.3730507791042328,0.5551536083221436,1.0386475324630737,0.4306161105632782,0.17620228230953217,0.45384636521339417,1.0520938634872437,0.3390820026397705,0.18666447699069977,0.5473788380622864,1.0672978162765503,0.46531182527542114,0.17841121554374695,0.45309415459632874,1.0697702169418335,0.37144702672958374,0.1115378737449646,0.5919198393821716,1.1169408559799194,0.23515208065509796,0.16082672774791718,0.4834497570991516,1.1281561851501465,0.0755845382809639,0.1775101125240326
14044.061313738046,0.5046838521957397,0.2715262174606323,-0.8471348881721497,0.9999616146087646,0.5184959769248962,0.2513425648212433,-0.8077227473258972,0.999908447265625,0.5279654264450073,0.2515377104282379,-0.8078776001930237,0.9998914003372192,0.5371466279029846,0.25189682841300964,-0.8080906271934509,0.999889612197876,0.4872368574142456,0.25106582045555115,-0.8307183384895325,0.9998975992202759,0.47382718324661255,0.2509358823299408,-0.8308948874473572,0.9998946189880371,0.4591718316078186,0.2511657178401947,-0.8311254978179932,0.9998934268951416,0.5406737327575684,0.26045262813568115,-0.5412371754646301,0.9998338222503662,0.4267362356185913,0.26013827323913574,-0.6557527780532837,0.9999077320098877,0.5167280435562134,0.29425549507141113,-0.7428425550460815,0.9999821186065674,0.4773554503917694,0.2933894693851471,-0.7755117416381836,0.9999830722808838,0.6122126579284668,0.377744197845459,-0.3197776675224304,0.9999580383300781,0.3427612781524658,0.3895300328731537,-0.5563408732414246,0.9999197721481323,0.6414979696273804,0.5369935631752014,-0.16316485404968262,0.9703536033630371,0.3408548831939697,0.572407603263855,-0.5194120407104492,0.9929745197296143,0.6537151336669922,0.6706835031509399,-0.31625717878341675,0.9745448231697083,0.3787723183631897,0.7192108631134033,-0.6518675684928894,0.9691486954689026,0.6683361530303955,0.714022159576416,-0.3844124972820282,0.9490450024604797,0.3786667585372925,0.7692705392837524,-0.7222582697868347,0.9362449645996094,0.65273118019104,0.7136631011962891,-0.45371249318122864,0.9544196128845215,0.40716248750686646,0.7689985036849976,-0.7917807102203369,0.9405203461647034,0.6408288478851318,0.7037932276725769,-0.346882700920105,0.9524851441383362,0.413783997297287,0.7511720657348633,-0.6795403957366943,0.9419618248939514,0.5742586255073547,0.6595272421836853,0.050685200840234756,0.9987247586250305,0.4280291795730591,0.6723038554191589,-0.05049228295683861,0.9979830980300903,0.5795483589172363,0.8745925426483154,-0.06766653060913086,0.5426501631736755,0.45031991600990295,0.887872040271759,-0.15271659195423126,0.46651729941368103,0.554885745048523,1.0287904739379883,0.4472710192203522,0.19113236665725708,0.44876620173454285,1.042210578918457,0.3630937933921814,0.1629513055086136,0.5373139977455139,1.0612564086914062,0.48340919613838196,0.17734161019325256,0.4461817443370819,1.0573570728302002,0.4030638039112091,0.10151855647563934,0.5861721634864807,1.1129684448242188,0.2680952250957489,0.1696532666683197,0.48008790612220764,1.1169869899749756,0.13666552305221558,0.15913505852222443
14060.727980404712,0.5051247477531433,0.2690371870994568,-0.8188453912734985,0.9999504089355469,0.518592894077301,0.2496253103017807,-0.7769778966903687,0.999884843826294,0.5278719067573547,0.24993865191936493,-0.7771388292312622,0.9998588562011719,0.5368384122848511,0.25047826766967773,-0.777355968952179,0.9998577833175659,0.4877820611000061,0.24930979311466217,-0.8037571310997009,0.9998784065246582,0.47463086247444153,0.249320387840271,-0.8039535284042358,0.9998766183853149,0.4599624574184418,0.249469593167305,-0.804194450378418,0.9998809099197388,0.5395447611808777,0.2596040964126587,-0.5063161849975586,0.9997718930244446,0.4278807044029236,0.2585754692554474,-0.6371976733207703,0.9999005794525146,0.5173577070236206,0.2923685312271118,-0.7136143445968628,0.9999768733978271,0.4783164858818054,0.2913303077220917,-0.7509719729423523,0.9999796152114868,0.6109084486961365,0.3775430917739868,-0.2740321159362793,0.9999403953552246,0.34457600116729736,0.39110222458839417,-0.5602092742919922,0.9999220371246338,0.6410377025604248,0.5376320481300354,-0.11952917277812958,0.9602651000022888,0.3413030803203583,0.5758362412452698,-0.538102924823761,0.9943178296089172,0.654557466506958,0.6709718108177185,-0.2808278799057007,0.9661109447479248,0.3791193962097168,0.7211238741874695,-0.6720384359359741,0.9734517931938171,0.6687848567962646,0.7133367657661438,-0.34915855526924133,0.9323477745056152,0.3804222643375397,0.7710451483726501,-0.745428740978241,0.9423169493675232,0.6534859538078308,0.7131364345550537,-0.4180867075920105,0.9396651387214661,0.4095945954322815,0.7700982093811035,-0.8116661310195923,0.945851743221283,0.6417871713638306,0.7034786343574524,-0.31227678060531616,0.9373518228530884,0.4159422516822815,0.752997875213623,-0.6980206370353699,0.9457250833511353,0.5759512782096863,0.6630735993385315,0.06373152136802673,0.9985023736953735,0.4305413067340851,0.6757537126541138,-0.0635598748922348,0.9978944659233093,0.5792868137359619,0.8864884376525879,-0.056073643267154694,0.4889918267726898,0.45107442140579224,0.8987303972244263,-0.16932445764541626,0.4312034547328949,0.5529702305793762,1.0497058629989624,0.4518888294696808,0.17056521773338318,0.4503529965877533,1.0536681413650513,0.34155210852622986,0.15323899686336517,0.5379273295402527,1.0714540481567383,0.4868747591972351,0.1736655980348587,0.446994811296463,1.0692455768585205,0.38038527965545654,0.0931464359164238,0.594272255897522,1.1202762126922607,0.2696606516838074,0.16150330007076263,0.48690763115882874,1.1289827823638916,0.10607373714447021,0.155361607670784
14077.394647071378,0.5028736591339111,0.26973721385002136,-0.7775551080703735,0.999948263168335,0.5170525908470154,0.2505665719509125,-0.7356213927268982,0.9998787641525269,0.5261978507041931,0.25096526741981506,-0.7357948422431946,0.9998512268066406,0.5352498292922974,0.25157809257507324,-0.7360115051269531,0.9998499155044556,0.48599570989608765,0.24977591633796692,-0.7622905969619751,0.9998745918273926,0.4724910259246826,0.24959826469421387,-0.7624663710594177,0.9998732805252075,0.45837971568107605,0.249643936753273,-0.7627120018005371,0.9998780488967896,0.539405107498169,0.2602536380290985,-0.4664243459701538,0.9997636675834656,0.4275702238082886,0.2582457363605499,-0.5965248346328735,0.99989914894104,0.515163779258728,0.2927057445049286,-0.6728715300559998,0.9999761581420898,0.47543880343437195,0.29147323966026306,-0.7100102305412292,0.9999794960021973,0.6119502186775208,0.3779468238353729,-0.24012579023838043,0.9999393224716187,0.343406617641449,0.39162907004356384,-0.5222558975219727,0.9999221563339233,0.6414682269096375,0.5386626720428467,-0.08337995409965515,0.9575949907302856,0.34198516607284546,0.5759478807449341,-0.5007907748222351,0.993715226650238,0.6546857357025146,0.6712906360626221,-0.24622303247451782,0.9629886746406555,0.3793683648109436,0.7208184003829956,-0.6406942009925842,0.9707551598548889,0.6688331365585327,0.7137175798416138,-0.31525763869285583,0.9277971386909485,0.3805844485759735,0.7712234854698181,-0.7144109010696411,0.9383000731468201,0.6530609130859375,0.7133681178092957,-0.38363519310951233,0.9356118440628052,0.4095796048641205,0.7702399492263794,-0.7798361778259277,0.9420577883720398,0.6412736773490906,0.7036185264587402,-0.27752572298049927,0.9333832263946533,0.4161757230758667,0.7530232071876526,-0.6663947105407715,0.941474437713623,0.5759350061416626,0.6659129858016968,0.06103069335222244,0.99849534034729,0.4301389157772064,0.6775190830230713,-0.06083129346370697,0.9979204535484314,0.5788488388061523,0.8899423480033875,-0.06800641864538193,0.49851876497268677,0.44932010769844055,0.9041074514389038,-0.16738192737102509,0.4268299639225006,0.5540791153907776,1.0528054237365723,0.4641056954860687,0.1697188913822174,0.4487110674381256,1.057149052619934,0.33933332562446594,0.16365393996238708,0.5394477248191833,1.0741320848464966,0.5017291307449341,0.17423227429389954,0.4460175931453705,1.0731083154678345,0.37769249081611633,0.09585798531770706,0.5934210419654846,1.1237335205078125,0.2828480005264282,0.15770822763442993,0.4829806983470917,1.1327135562896729,0.09701605141162872,0.16336415708065033
14094.061313738044,0.5012860298156738,0.26846957206726074,-0.8271353244781494,0.9999535083770752,0.5163580775260925,0.2495272308588028,-0.7864459753036499,0.99988853931427,0.5255835652351379,0.2500365674495697,-0.7865931987762451,0.9998626708984375,0.5347599387168884,0.25078773498535156,-0.7867993116378784,0.999861478805542,0.4849834144115448,0.24871885776519775,-0.809964656829834,0.9998855590820312,0.4711518883705139,0.24859528243541718,-0.8101527690887451,0.999883770942688,0.4571342170238495,0.24865058064460754,-0.810395359992981,0.9998890161514282,0.5393218398094177,0.25980931520462036,-0.5205523371696472,0.999774158000946,0.42693066596984863,0.25745102763175964,-0.6370123624801636,0.9999043941497803,0.5141762495040894,0.29194217920303345,-0.7239668369293213,0.9999778270721436,0.4732920229434967,0.2905040681362152,-0.7571189999580383,0.999981164932251,0.6117795705795288,0.3775210380554199,-0.2951575517654419,0.9999393224716187,0.3439826965332031,0.3906468152999878,-0.554924488067627,0.9999270439147949,0.6415783166885376,0.5369864702224731,-0.14146815240383148,0.9623069763183594,0.3419676721096039,0.5747799873352051,-0.5297139883041382,0.9939844012260437,0.6531751155853271,0.6702550649642944,-0.2948608100414276,0.9655668139457703,0.3793654441833496,0.7211304903030396,-0.6632634401321411,0.9710032939910889,0.6673332452774048,0.7128134369850159,-0.3632928729057312,0.9320841431617737,0.38018494844436646,0.7715718150138855,-0.7356093525886536,0.9375917315483093,0.6513834595680237,0.7125033140182495,-0.43056726455688477,0.9391811490058899,0.40930619835853577,0.7703688144683838,-0.802363932132721,0.9413662552833557,0.6393319368362427,0.7026437520980835,-0.325310617685318,0.937173068523407,0.41579338908195496,0.753122866153717,-0.6896585822105408,0.9423315525054932,0.5752015113830566,0.6615858674049377,0.05807379260659218,0.9985141158103943,0.43008074164390564,0.6738125085830688,-0.05792096629738808,0.9979846477508545,0.5777738690376282,0.8836418390274048,-0.055699802935123444,0.5131232142448425,0.4495711326599121,0.8967409133911133,-0.1616917848587036,0.4504585862159729,0.5529909729957581,1.042056679725647,0.4511626660823822,0.18514274060726166,0.44683969020843506,1.0515575408935547,0.3475418984889984,0.16086752712726593,0.5349383354187012,1.0693035125732422,0.48606055974960327,0.17588400840759277,0.4438883364200592,1.0670037269592285,0.38619911670684814,0.0954127088189125,0.5882291197776794,1.1190482378005981,0.2669435441493988,0.16882017254829407,0.48021626472473145,1.1268714666366577,0.11176116019487381,0.1589091569185257
14110.72798040471,0.5018826127052307,0.2678249776363373,-0.6934119462966919,0.999941349029541,0.5167579054832458,0.2490510791540146,-0.6553637981414795,0.9998502731323242,0.5260322093963623,0.24956531822681427,-0.6555158495903015,0.9998144507408142,0.535186767578125,0.2503121793270111,-0.6557115316390991,0.9998214840888977,0.485895574092865,0.24814820289611816,-0.6796931624412537,0.9998544454574585,0.47261035442352295,0.24793130159378052,-0.6798486113548279,0.9998509883880615,0.45865127444267273,0.247759610414505,-0.6800823211669922,0.9998599290847778,0.539110004901886,0.25923773646354675,-0.41630303859710693,0.9996919631958008,0.4282394051551819,0.25638794898986816,-0.5364580750465393,0.9998681545257568,0.5142127275466919,0.291352778673172,-0.6007437705993652,0.9999686479568481,0.4742409288883209,0.2895818054676056,-0.6350488066673279,0.9999737739562988,0.6108205914497375,0.3784199357032776,-0.22542180120944977,0.9999202489852905,0.3460136651992798,0.3897608816623688,-0.4875253438949585,0.9998987913131714,0.6420440673828125,0.5384671688079834,-0.0745130106806755,0.9597154855728149,0.3431587815284729,0.5737510919570923,-0.4690800607204437,0.9920044541358948,0.6572045087814331,0.6710048913955688,-0.17545130848884583,0.9644250869750977,0.38270458579063416,0.7203413248062134,-0.5667451620101929,0.9636609554290771,0.6707225441932678,0.7126837968826294,-0.23236189782619476,0.929705798625946,0.3838103115558624,0.7696129083633423,-0.6311355233192444,0.9255517721176147,0.6543050408363342,0.7121179103851318,-0.29262951016426086,0.9368632435798645,0.4125252068042755,0.7695289850234985,-0.6891486644744873,0.9297538995742798,0.642708420753479,0.7029524445533752,-0.20169766247272491,0.9361139535903931,0.4188005328178406,0.752138614654541,-0.5893208980560303,0.9306618571281433,0.5758900046348572,0.6656273007392883,0.0576477013528347,0.9982428550720215,0.42847561836242676,0.6769814491271973,-0.05754508823156357,0.9975919723510742,0.5768730640411377,0.8849563598632812,-0.04459773004055023,0.46663033962249756,0.45046237111091614,0.9017270803451538,-0.14215561747550964,0.40319594740867615,0.5541946291923523,1.0511894226074219,0.4207237660884857,0.15635159611701965,0.4497426748275757,1.055915117263794,0.30894601345062256,0.15923671424388885,0.5403066277503967,1.072856068611145,0.4526459872722626,0.1533471941947937,0.4470491111278534,1.0722332000732422,0.34238389134407043,0.08946947753429413,0.5927170515060425,1.1218820810317993,0.2494746893644333,0.14259327948093414,0.48343053460121155,1.1312179565429688,0.07831919193267822,0.15566693246364594
14127.394647071376,0.4976452589035034,0.26995161175727844,-0.7963710427284241,0.9999594688415527,0.5126901268959045,0.2500164210796356,-0.7567905187606812,0.9998984336853027,0.5220252275466919,0.25025826692581177,-0.7569289207458496,0.9998724460601807,0.5312276482582092,0.25079604983329773,-0.7571341395378113,0.9998736381530762,0.48109549283981323,0.24960584938526154,-0.7781757712364197,0.9998981952667236,0.4668183922767639,0.24958108365535736,-0.7783619165420532,0.999895453453064,0.45375916361808777,0.25004884600639343,-0.7785857319831848,0.9999011754989624,0.5382559895515442,0.26005327701568604,-0.501391589641571,0.9997873902320862,0.42605236172676086,0.259700745344162,-0.6081201434135437,0.9999109506607056,0.5120257139205933,0.29323071241378784,-0.6975714564323425,0.9999803304672241,0.47088590264320374,0.29190748929977417,-0.7279276251792908,0.9999825954437256,0.6103357672691345,0.3780229687690735,-0.2860821485519409,0.9999394416809082,0.3458534777164459,0.3909178674221039,-0.5395911335945129,0.9999277591705322,0.6429094076156616,0.5381729602813721,-0.1337258368730545,0.9641920924186707,0.3429233431816101,0.574201226234436,-0.5149052739143372,0.9936518669128418,0.6559641361236572,0.6720200181007385,-0.2585650086402893,0.9648715853691101,0.38349610567092896,0.7204297780990601,-0.6335398554801941,0.968393862247467,0.6694019436836243,0.7140849828720093,-0.32036375999450684,0.9302997589111328,0.3849122226238251,0.7693364024162292,-0.7031383514404297,0.9317187070846558,0.652777910232544,0.7137426733970642,-0.38416528701782227,0.937326192855835,0.41323423385620117,0.7689954042434692,-0.7638993263244629,0.9357988834381104,0.6413363814353943,0.7045194506645203,-0.2865550220012665,0.9363879561424255,0.4191773235797882,0.7519932985305786,-0.6574828624725342,0.9376077651977539,0.5779021382331848,0.6631701588630676,0.05344581976532936,0.9987170696258545,0.4308081269264221,0.6754557490348816,-0.05331353098154068,0.998201847076416,0.574015200138092,0.8846502304077148,-0.06557487696409225,0.4900830090045929,0.4484543800354004,0.9004007577896118,-0.15162323415279388,0.4182923436164856,0.5505560636520386,1.043628454208374,0.4291858375072479,0.1658971607685089,0.44725579023361206,1.0468249320983887,0.3625512421131134,0.1438746303319931,0.5369940400123596,1.0646370649337769,0.4638790190219879,0.16496187448501587,0.44622278213500977,1.0614509582519531,0.40276017785072327,0.0890902578830719,0.588624119758606,1.1143457889556885,0.25720852613449097,0.15261618793010712,0.476826548576355,1.1227816343307495,0.14546538889408112,0.14601413905620575
14144.061313738042,0.5007816553115845,0.2692851722240448,-0.7899425029754639,0.9999420642852783,0.514914870262146,0.24927407503128052,-0.7513036131858826,0.9998549222946167,0.5240216255187988,0.24943768978118896,-0.751444399356842,0.9998207688331604,0.5331087708473206,0.2498985081911087,-0.7516433596611023,0.9998241066932678,0.4836905300617218,0.24924050271511078,-0.7736039161682129,0.9998525381088257,0.46957987546920776,0.24930569529533386,-0.7737775444984436,0.9998488426208496,0.4559587836265564,0.24984322488307953,-0.7740113735198975,0.9998548030853271,0.5388231873512268,0.2590179145336151,-0.49678894877433777,0.9997081160545349,0.4266122281551361,0.2593151926994324,-0.6078803539276123,0.9998685121536255,0.5144209861755371,0.2924506962299347,-0.6910006999969482,0.9999697208404541,0.4742545783519745,0.2915056347846985,-0.722612738609314,0.9999734163284302,0.6101884245872498,0.37694066762924194,-0.2795092463493347,0.9999299049377441,0.3464840054512024,0.38888317346572876,-0.5406562685966492,0.9999157190322876,0.6424707770347595,0.5359839797019958,-0.13176198303699493,0.9605353474617004,0.343080073595047,0.5725859999656677,-0.5217734575271606,0.992382824420929,0.6560453176498413,0.6692546606063843,-0.26108428835868835,0.9626515507698059,0.3817491829395294,0.7199877500534058,-0.6378154754638672,0.9616801738739014,0.6696293950080872,0.7117525339126587,-0.32405221462249756,0.9256467819213867,0.38344988226890564,0.7687872648239136,-0.7061085104942322,0.9202498197555542,0.6521859169006348,0.7113638520240784,-0.3868665099143982,0.9332605600357056,0.4120229184627533,0.768298327922821,-0.768487274646759,0.9247483611106873,0.6402043104171753,0.7022353410720825,-0.28906774520874023,0.931728184223175,0.41809555888175964,0.7511733174324036,-0.6624859571456909,0.9267218112945557,0.5751541256904602,0.6622700095176697,0.058512624353170395,0.998180627822876,0.42889267206192017,0.6741522550582886,-0.05836505442857742,0.9976046085357666,0.5762012600898743,0.8810669183731079,-0.043765950947999954,0.4336317181587219,0.4499589204788208,0.896220326423645,-0.13945218920707703,0.3935341536998749,0.5504447221755981,1.0445902347564697,0.4132409691810608,0.15931396186351776,0.44699716567993164,1.055187702178955,0.30423301458358765,0.16553418338298798,0.537728488445282,1.0718967914581299,0.4431004524230957,0.16616293787956238,0.4440048933029175,1.0723463296890259,0.33575859665870667,0.09873218834400177,0.5933418273925781,1.117863416671753,0.22797995805740356,0.1493218094110489,0.47993069887161255,1.129856824874878,0.05979242920875549,0.16336746513843536
