0,1
19139.60741752333,-998.0
19139.607480020568,-1324.0
19139.607542517806,-1660.0
19139.60760501504,-1283.0
19139.60766751228,-1308.0
19139.607730009517,-1420.0
19139.607792506755,-1139.0
19139.60785500399,-567.0
19139.607917501227,-386.0
19139.607979998465,-659.0
19139.608042495704,-920.0
19139.608104992938,-809.0
19139.608167490176,-704.0
19139.608229987414,-958.0
19139.608292484652,-1090.0
19139.608354981887,-599.0
19139.608417479125,-15.0
19139.608479976363,-156.0
19139.6085424736,-273.0
19139.608604970836,-122.0
19139.608667468074,-370.0
19139.60872996531,-460.0
19139.608792462546,-618.0
19139.608854959784,-456.0
19139.608917457022,-147.0
19139.60897995426,-86.0
19139.609042451495,380.0
19139.609104948733,1070.0
19139.60916744597,952.0
19139.60922994321,52.0
19139.609292440444,-394.0
19139.609354937682,-98.0
19139.60941743492,10.0
19139.609479932158,-39.0
19139.609542429393,-158.0
19139.60960492663,-5.0
19139.60966742387,126.0
19139.609729921107,-347.0
19139.60979241834,-802.0
19139.60985491558,-769.0
19139.609917412818,-321.0
19139.609979910056,270.0
19139.61004240729,545.0
19139.61010490453,483.0
19139.610167401766,-12.0
19139.610229899004,227.0
19139.61029239624,878.0
19139.610354893477,460.0
19139.610417390715,211.0
19139.610479887953,49.0
19139.610542385188,-99.0
19139.610604882426,413.0
19139.610667379664,767.0
19139.6107298769,584.0
19139.610792374137,343.0
19139.610854871375,684.0
19139.610917368613,1392.0
19139.610979865847,1252.0
19139.611042363085,320.0
19139.611104860323,-165.0
19139.61116735756,-35.0
19139.611229854796,223.0
19139.611292352034,294.0
19139.611354849272,85.0
19139.61141734651,100.0
19139.611479843745,324.0
19139.611542340983,300.0
19139.61160483822,-23.0
19139.61166733546,-392.0
19139.611729832694,-398.0
19139.61179232993,462.0
19139.61185482717,543.0
19139.611917324408,-45.0
19139.611979821642,-175.0
19139.61204231888,78.0
19139.61210481612,632.0
19139.612167313353,269.0
19139.61222981059,-254.0
19139.61229230783,-238.0
19139.612354805067,17.0
19139.612417302305,567.0
19139.61247979954,878.0
19139.612542296778,499.0
19139.612604794016,26.0
19139.61266729125,252.0
19139.61272978849,113.0
19139.612792285727,-181.0
19139.612854782965,-404.0
19139.6129172802,-593.0
19139.612979777437,-326.0
19139.613042274676,40.0
19139.613104771914,-78.0
19139.613167269148,-284.0
19139.613229766386,-437.0
19139.613292263624,-47.0
19139.613354760862,439.0
19139.613417258097,-159.0
19139.613479755335,-577.0
19139.613542252573,-181.0
19139.61360474981,107.0
19139.613667247046,437.0
19139.613729744284,101.0
19139.613792241522,-510.0
19139.61385473876,-253.0
19139.613917235994,-216.0
19139.613979733233,45.0
19139.61404223047,62.0
19139.614104727705,-228.0
19139.614167224943,-626.0
19139.61422972218,-356.0
19139.61429221942,-105.0
19139.614354716658,-595.0
19139.614417213892,-667.0
19139.61447971113,-1072.0
19139.61454220837,-860.0
19139.614604705603,-644.0
19139.61466720284,-1377.0
19139.61472970008,-1208.0
19139.614792197317,-646.0
19139.61485469455,-358.0
19139.61491719179,-476.0
19139.614979689028,-991.0
19139.615042186266,-452.0
19139.6151046835,62.0
19139.61516718074,-1.0
19139.615229677976,-303.0
19139.615292175215,-471.0
19139.61535467245,-135.0
19139.615417169687,-134.0
19139.615479666925,74.0
19139.615542164163,135.0
19139.615604661398,278.0
19139.615667158636,107.0
19139.615729655874,157.0
19139.615792153112,884.0
19139.615854650347,553.0
19139.615917147585,-91.0
19139.615979644823,-449.0
19139.616042142057,-398.0
19139.616104639295,144.0
19139.616167136533,362.0
19139.61622963377,158.0
19139.616292131006,-601.0
19139.616354628244,-1072.0
19139.616417125482,-655.0
19139.61647962272,-405.0
19139.616542119955,-315.0
19139.616604617193,-29.0
19139.61666711443,106.0
19139.61672961167,197.0
19139.616792108904,168.0
19139.61685460614,150.0
19139.61691710338,163.0
19139.616979600618,329.0
19139.617042097852,444.0
19139.61710459509,223.0
19139.61716709233,-229.0
19139.617229589567,-285.0
19139.6172920868,408.0
19139.61735458404,414.0
19139.617417081277,-192.0
19139.617479578515,-245.0
19139.61754207575,-505.0
19139.617604572988,-445.0
19139.617667070226,-60.0
19139.617729567464,-444.0
19139.6177920647,-475.0
19139.617854561937,-95.0
19139.617917059175,270.0
19139.61797955641,620.0
19139.618042053648,325.0
19139.618104550886,-208.0
19139.618167048124,-295.0
19139.61822954536,-286.0
19139.618292042596,-10.0
19139.618354539834,682.0
19139.618417037073,785.0
19139.618479534307,602.0
19139.618542031545,748.0
19139.618604528783,454.0
19139.61866702602,173.0
19139.618729523256,15.0
19139.618792020494,-380.0
19139.618854517732,-786.0
19139.61891701497,-1261.0
19139.618979512205,-1241.0
19139.619042009443,-948.0
19139.61910450668,-336.0
19139.61916700392,-19.0
19139.619229501153,-1.0
19139.61929199839,155.0
19139.61935449563,95.0
19139.619416992864,-200.0
19139.619479490102,-828.0
19139.61954198734,-1389.0
19139.61960448458,-1071.0
19139.619666981816,-808.0
19139.61972947905,-840.0
19139.61979197629,-1043.0
19139.619854473527,-1470.0
19139.61991697076,-1239.0
19139.619979468,-453.0
19139.620041965238,-115.0
19139.620104462476,-415.0
19139.62016695971,-133.0
19139.62022945695,738.0
19139.620291954187,1114.0
19139.620354451425,668.0
19139.62041694866,-200.0
19139.620479445897,-1042.0
19139.620541943135,-1162.0
19139.620604440373,-509.0
19139.620666937608,-635.0
19139.620729434846,-1220.0
19139.620791932084,-1270.0
19139.620854429322,-567.0
19139.620916926557,15.0
19139.620979423795,-179.0
19139.621041921033,-495.0
19139.62110441827,-893.0
19139.621166915505,-1093.0
19139.621229412744,-1022.0
19139.62129190998,-639.0
19139.621354407216,-544.0
19139.621416904454,-251.0
19139.621479401692,332.0
19139.62154189893,302.0
19139.621604396165,459.0
19139.621666893403,510.0
19139.62172939064,569.0
19139.62179188788,1287.0
19139.621854385114,1540.0
19139.62191688235,1657.0
19139.62197937959,1716.0
19139.622041876828,855.0
19139.622104374062,101.0
19139.6221668713,97.0
19139.62222936854,-23.0
19139.622291865777,-496.0
19139.62235436301,-1077.0
19139.62241686025,-774.0
19139.622479357487,494.0
19139.622541854726,646.0
19139.62260435196,214.0
19139.622666849198,-261.0
19139.622729346436,-791.0
19139.622791843674,-519.0
19139.62285434091,-73.0
19139.622916838147,279.0
19139.622979335385,496.0
19139.623041832623,-124.0
19139.623104329858,-561.0
19139.623166827096,-45.0
19139.623229324334,638.0
19139.62329182157,780.0
19139.623354318806,410.0
19139.623416816044,-233.0
19139.623479313283,185.0
19139.623541810517,592.0
19139.623604307755,357.0
19139.623666804993,484.0
19139.62372930223,-26.0
19139.623791799466,-452.0
19139.623854296704,333.0
19139.623916793942,403.0
19139.62397929118,-381.0
19139.624041788415,-484.0
19139.624104285653,-406.0
19139.62416678289,-137.0
19139.62422928013,372.0
19139.624291777363,-4.0
19139.6243542746,88.0
19139.62441677184,1295.0
19139.624479269078,1949.0
19139.624541766312,1456.0
19139.62460426355,944.0
19139.62466676079,996.0
19139.624729258023,1486.0
19139.62479175526,1778.0
19139.6248542525,1171.0
19139.624916749737,305.0
19139.624979246975,-267.0
19139.62504174421,-591.0
19139.625104241448,126.0
19139.625166738686,1139.0
19139.62522923592,306.0
19139.62529173316,-452.0
19139.625354230397,-387.0
19139.625416727635,102.0
19139.62547922487,461.0
19139.625541722107,404.0
19139.625604219345,377.0
19139.625666716584,438.0
19139.625729213818,721.0
19139.625791711056,700.0
19139.625854208294,1093.0
19139.625916705532,617.0
19139.625979202767,400.0
19139.626041700005,966.0
19139.626104197243,1100.0
19139.62616669448,1058.0
19139.626229191716,766.0
19139.626291688954,893.0
19139.62635418619,1249.0
19139.62641668343,1113.0
19139.626479180664,641.0
19139.626541677902,245.0
19139.62660417514,589.0
19139.626666672375,1188.0
19139.626729169613,960.0
19139.62679166685,824.0
19139.62685416409,1090.0
19139.626916661324,812.0
19139.626979158562,364.0
19139.6270416558,366.0
19139.627104153038,494.0
19139.627166650273,323.0
19139.62722914751,-126.0
19139.62729164475,-273.0
19139.627354141987,-137.0
19139.62741663922,106.0
19139.62747913646,-38.0
19139.627541633698,-98.0
19139.627604130936,-99.0
19139.62766662817,-188.0
19139.62772912541,-235.0
19139.627791622646,-403.0
19139.627854119884,-763.0
19139.62791661712,-730.0
19139.627979114357,-308.0
19139.628041611595,-163.0
19139.628104108833,-213.0
19139.628166606068,-772.0
19139.628229103306,-1275.0
19139.628291600544,-808.0
19139.628354097782,-975.0
19139.628416595016,-819.0
19139.628479092255,-417.0
19139.628541589493,-1271.0
19139.628604086727,-1557.0
19139.628666583965,-1469.0
19139.628729081203,-961.0
19139.62879157844,-125.0
19139.628854075676,-228.0
19139.628916572914,-1180.0
19139.628979070152,-1141.0
19139.62904156739,-443.0
19139.629104064625,-271.0
19139.629166561863,-685.0
19139.6292290591,-621.0
19139.62929155634,-459.0
19139.629354053573,-415.0
19139.62941655081,-154.0
19139.62947904805,-686.0
19139.629541545288,-873.0
19139.629604042522,-620.0
19139.62966653976,-837.0
19139.629729037,-834.0
19139.629791534237,-761.0
19139.62985403147,-283.0
19139.62991652871,-163.0
19139.629979025947,-497.0
19139.63004152318,-341.0
19139.63010402042,-561.0
19139.630166517658,-516.0
19139.630229014896,-263.0
19139.630291512134,-124.0
19139.63035400937,-285.0
19139.630416506607,-122.0
19139.630479003845,-166.0
19139.63054150108,-592.0
19139.630603998317,-286.0
19139.630666495555,-334.0
19139.630728992794,-731.0
19139.630791490028,-985.0
19139.630853987266,-933.0
19139.630916484504,-933.0
19139.630978981742,-878.0
19139.631041478977,-594.0
19139.631103976215,-408.0
19139.631166473453,-328.0
19139.63122897069,-446.0
19139.631291467926,-55.0
19139.631353965164,393.0
19139.631416462402,140.0
19139.63147895964,76.0
19139.631541456874,266.0
19139.631603954113,23.0
19139.63166645135,-367.0
19139.63172894859,-577.0
19139.631791445823,-447.0
19139.63185394306,98.0
19139.6319164403,212.0
19139.631978937534,242.0
19139.632041434772,234.0
19139.63210393201,-118.0
19139.632166429248,-387.0
19139.632228926486,-291.0
19139.63229142372,-290.0
19139.63235392096,-720.0
19139.632416418197,-1060.0
19139.63247891543,-697.0
19139.63254141267,-356.0
19139.632603909908,-427.0
19139.632666407146,-419.0
19139.63272890438,-272.0
19139.63279140162,-374.0
19139.632853898856,-712.0
19139.632916396095,-480.0
19139.63297889333,-361.0
19139.633041390567,-477.0
19139.633103887805,-671.0
19139.633166385043,-528.0
19139.633228882278,-132.0
19139.633291379516,63.0
19139.633353876754,402.0
19139.633416373992,44.0
19139.633478871227,-312.0
19139.633541368465,-519.0
19139.633603865703,-634.0
19139.63366636294,-569.0
19139.633728860175,-1010.0
19139.633791357413,-1197.0
19139.63385385465,-946.0
19139.633916351886,-740.0
19139.633978849124,-763.0
19139.634041346362,-959.0
19139.6341038436,-657.0
19139.634166340835,-60.0
19139.634228838073,294.0
19139.63429133531,58.0
19139.63435383255,33.0
19139.634416329784,122.0
19139.63447882702,115.0
19139.63454132426,627.0
19139.634603821498,647.0
19139.634666318732,-84.0
19139.63472881597,-303.0
19139.63479131321,295.0
19139.634853810447,663.0
19139.63491630768,592.0
19139.63497880492,-276.0
19139.635041302157,-1185.0
19139.635103799395,-642.0
19139.63516629663,171.0
19139.635228793868,-44.0
19139.635291291106,-807.0
19139.635353788344,-825.0
19139.63541628558,-189.0
19139.635478782817,197.0
19139.635541280055,42.0
19139.635603777293,-481.0
19139.635666274527,-452.0
19139.635728771766,-229.0
19139.635791269004,100.0
19139.635853766238,131.0
19139.635916263476,-321.0
19139.635978760714,-140.0
19139.636041257952,432.0
19139.636103755187,940.0
19139.636166252425,508.0
19139.636228749663,-315.0
19139.6362912469,-841.0
19139.636353744136,-620.0
19139.636416241374,147.0
19139.636478738612,272.0
19139.63654123585,189.0
19139.636603733084,-86.0
19139.636666230323,-209.0
19139.63672872756,413.0
19139.6367912248,1192.0
19139.636853722033,764.0
19139.63691621927,314.0
19139.63697871651,421.0
19139.637041213748,405.0
19139.637103710982,723.0
19139.63716620822,541.0
19139.63722870546,253.0
19139.637291202693,68.0
19139.63735369993,126.0
19139.63741619717,302.0
19139.637478694407,135.0
19139.637541191645,-147.0
19139.63760368888,-263.0
19139.637666186118,241.0
19139.637728683356,549.0
19139.63779118059,271.0
19139.63785367783,-292.0
19139.637916175066,-761.0
19139.637978672305,179.0
19139.63804116954,838.0
19139.638103666777,-122.0
19139.638166164015,-654.0
19139.638228661253,-454.0
19139.638291158488,-206.0
19139.638353655726,-235.0
19139.638416152964,-263.0
19139.638478650202,-576.0
19139.638541147437,-652.0
19139.638603644675,109.0
19139.638666141913,390.0
19139.63872863915,-38.0
19139.638791136385,-217.0
19139.638853633624,-427.0
19139.63891613086,-444.0
19139.6389786281,-540.0
19139.639041125334,-881.0
19139.639103622572,-597.0
19139.63916611981,-354.0
19139.639228617045,-218.0
19139.639291114283,255.0
19139.63935361152,308.0
19139.63941610876,-253.0
19139.639478605994,-87.0
19139.63954110323,505.0
19139.63960360047,-111.0
19139.639666097708,-753.0
19139.639728594942,-704.0
19139.63979109218,-994.0
19139.63985358942,-503.0
19139.639916086657,-116.0
19139.63997858389,-212.0
19139.64004108113,86.0
19139.640103578367,176.0
19139.640166075606,428.0
19139.64022857284,768.0
19139.640291070078,1365.0
19139.640353567316,1529.0
19139.640416064554,1450.0
19139.64047856179,1764.0
19139.640541059027,1707.0
19139.640603556265,1434.0
19139.640666053503,903.0
19139.640728550738,409.0
19139.640791047976,-15.0
19139.640853545214,-12.0
19139.640916042452,-63.0
19139.640978539686,-101.0
19139.641041036924,-175.0
19139.641103534163,-373.0
19139.641166031397,-254.0
19139.641228528635,53.0
19139.641291025873,38.0
19139.64135352311,-347.0
19139.641416020346,-339.0
19139.641478517584,-327.0
19139.641541014822,-493.0
19139.64160351206,-852.0
19139.641666009295,-956.0
19139.641728506533,-846.0
19139.64179100377,-538.0
19139.64185350101,-60.0
19139.641915998243,182.0
19139.64197849548,391.0
19139.64204099272,730.0
19139.642103489958,640.0
19139.642165987192,707.0
19139.64222848443,334.0
19139.64229098167,-300.0
19139.642353478906,60.0
19139.64241597614,70.0
19139.64247847338,56.0
19139.642540970617,-35.0
19139.64260346785,-86.0
19139.64266596509,245.0
19139.642728462328,406.0
19139.642790959566,698.0
19139.642853456804,923.0
19139.64291595404,1017.0
19139.642978451277,686.0
19139.643040948515,289.0
19139.64310344575,233.0
19139.643165942987,604.0
19139.643228440225,1277.0
19139.643290937463,1194.0
19139.643353434698,573.0
19139.643415931936,253.0
19139.643478429174,252.0
19139.643540926412,277.0
19139.643603423647,-102.0
19139.643665920885,-276.0
19139.643728418123,-438.0
19139.64379091536,-904.0
19139.643853412595,-966.0
19139.643915909834,-1088.0
19139.64397840707,-1398.0
19139.64404090431,-1460.0
19139.644103401544,-1416.0
19139.644165898782,-1074.0
19139.64422839602,-911.0
19139.64429089326,-872.0
19139.644353390493,-730.0
19139.64441588773,-353.0
19139.64447838497,-65.0
19139.644540882204,-187.0
19139.644603379442,-4.0
19139.64466587668,275.0
19139.644728373918,565.0
19139.644790871153,669.0
19139.64485336839,113.0
19139.64491586563,-498.0
19139.644978362867,-74.0
19139.6450408601,-78.0
19139.64510335734,139.0
19139.645165854577,181.0
19139.645228351816,-171.0
19139.64529084905,345.0
19139.645353346288,311.0
19139.645415843526,305.0
19139.645478340764,128.0
19139.645540838,-278.0
19139.645603335237,-310.0
19139.645665832475,-146.0
19139.645728329713,-254.0
19139.645790826948,-985.0
19139.645853324186,-716.0
19139.645915821424,-560.0
19139.645978318662,-426.0
19139.646040815896,-441.0
19139.646103313135,-894.0
19139.646165810373,-814.0
19139.64622830761,-948.0
19139.646290804845,-725.0
19139.646353302083,-491.0
19139.64641579932,-881.0
19139.646478296556,-1086.0
19139.646540793794,-809.0
19139.646603291032,-550.0
19139.64666578827,-230.0
19139.646728285505,290.0
19139.646790782743,514.0
19139.64685327998,272.0
19139.64691577722,255.0
19139.646978274453,547.0
19139.64704077169,588.0
19139.64710326893,320.0
19139.647165766168,-383.0
19139.647228263402,-836.0
19139.64729076064,-1129.0
19139.64735325788,-1423.0
19139.647415755117,-1214.0
19139.64747825235,-646.0
19139.64754074959,-6.0
19139.647603246827,-346.0
19139.647665744065,-838.0
19139.6477282413,-675.0
19139.647790738538,-247.0
19139.647853235776,-367.0
19139.64791573301,-194.0
19139.64797823025,-261.0
19139.648040727487,-757.0
19139.648103224725,-598.0
19139.648165721963,-679.0
19139.648228219197,-491.0
19139.648290716435,40.0
19139.648353213674,189.0
19139.648415710908,413.0
19139.648478208146,534.0
19139.648540705384,-192.0
19139.648603202622,-1065.0
19139.648665699857,-1610.0
19139.648728197095,-1675.0
19139.648790694333,-1686.0
19139.64885319157,-1285.0
19139.648915688806,-933.0
19139.648978186044,-878.0
19139.64904068328,-810.0
19139.64910318052,-609.0
19139.649165677754,-357.0
19139.649228174992,-276.0
19139.64929067223,-159.0
19139.64935316947,64.0
19139.649415666703,175.0
19139.64947816394,74.0
19139.64954066118,-397.0
19139.649603158417,97.0
19139.649665655652,1053.0
19139.64972815289,1146.0
19139.649790650128,1062.0
19139.649853147363,929.0
19139.6499156446,1084.0
19139.64997814184,1557.0
19139.650040639077,1797.0
19139.65010313631,871.0
19139.65016563355,216.0
19139.650228130788,218.0
19139.650290628026,232.0
19139.65035312526,539.0
19139.6504156225,565.0
19139.650478119736,363.0
19139.650540616974,453.0
19139.65060311421,442.0
19139.650665611447,205.0
19139.650728108685,165.0
19139.650790605923,-57.0
19139.650853103158,-210.0
19139.650915600396,-376.0
19139.650978097634,-580.0
19139.651040594872,-112.0
19139.651103092106,151.0
19139.651165589345,482.0
19139.651228086583,353.0
19139.65129058382,460.0
19139.651353081055,823.0
19139.651415578293,819.0
19139.65147807553,1178.0
19139.65154057277,748.0
19139.651603070004,496.0
19139.651665567242,673.0
19139.65172806448,740.0
19139.651790561715,872.0
19139.651853058953,587.0
19139.65191555619,339.0
19139.65197805343,281.0
19139.652040550664,263.0
19139.6521030479,25.0
19139.65216554514,289.0
19139.652228042378,694.0
19139.652290539612,368.0
19139.65235303685,171.0
19139.65241553409,286.0
19139.652478031327,93.0
19139.65254052856,-230.0
19139.6526030258,-398.0
19139.652665523037,-248.0
19139.652728020275,-473.0
19139.65279051751,-796.0
19139.652853014748,-923.0
19139.652915511986,-825.0
19139.652978009224,-487.0
19139.65304050646,-723.0
19139.653103003697,-1017.0
19139.653165500935,-711.0
19139.65322799817,-688.0
19139.653290495407,-990.0
19139.653352992646,-1191.0
19139.653415489884,-705.0
19139.65347798712,-299.0
19139.653540484356,-621.0
19139.653602981594,-952.0
19139.653665478832,-962.0
19139.653727976067,-768.0
19139.653790473305,-545.0
19139.653852970543,-988.0
19139.65391546778,-1340.0
19139.653977965016,-712.0
19139.654040462254,-316.0
19139.654102959492,-402.0
19139.65416545673,-657.0
19139.654227953964,-597.0
19139.654290451203,-335.0
19139.65435294844,-582.0
19139.65441544568,-459.0
19139.654477942913,-98.0
19139.65454044015,156.0
19139.65460293739,472.0
19139.654665434628,544.0
19139.654727931862,-181.0
19139.6547904291,-190.0
19139.65485292634,744.0
19139.654915423576,1008.0
19139.65497792081,841.0
19139.65504041805,529.0
19139.655102915287,477.0
19139.65516541252,410.0
19139.65522790976,73.0
19139.655290406998,-182.0
19139.655352904236,-477.0
19139.655415401474,-1054.0
19139.65547789871,-1393.0
19139.655540395946,-1413.0
19139.655602893185,-471.0
19139.65566539042,-155.0
19139.655727887657,-262.0
19139.655790384895,-24.0
19139.655852882133,-221.0
19139.655915379368,-882.0
19139.655977876606,-1470.0
19139.656040373844,-1443.0
19139.656102871082,-1216.0
19139.656165368317,-1193.0
19139.656227865555,-1375.0
19139.656290362793,-1388.0
19139.65635286003,-1020.0
19139.656415357265,-940.0
19139.656477854503,-1160.0
19139.65654035174,-1297.0
19139.65660284898,-1297.0
19139.656665346214,-973.0
19139.656727843452,-679.0
19139.65679034069,-610.0
19139.65685283793,-679.0
19139.656915335163,-554.0
19139.6569778324,-507.0
19139.65704032964,-661.0
19139.657102826874,-712.0
19139.65716532411,-629.0
19139.65722782135,-231.0
19139.657290318588,-26.0
19139.657352815822,-104.0
19139.65741531306,-260.0
19139.6574778103,-26.0
19139.657540307537,166.0
19139.65760280477,-309.0
19139.65766530201,-257.0
19139.657727799247,40.0
19139.657790296485,419.0
19139.65785279372,519.0
19139.657915290958,59.0
19139.657977788196,52.0
19139.658040285434,284.0
19139.65810278267,614.0
19139.658165279907,571.0
19139.658227777145,331.0
19139.658290274383,562.0
19139.658352771618,281.0
19139.658415268856,-35.0
19139.658477766094,141.0
19139.65854026333,5.0
19139.658602760566,-235.0
19139.658665257804,-446.0
19139.658727755042,-718.0
19139.65879025228,-425.0
19139.658852749515,-553.0
19139.658915246753,-551.0
19139.65897774399,-424.0
19139.659040241226,171.0
19139.659102738464,869.0
19139.659165235702,474.0
19139.65922773294,359.0
19139.659290230175,253.0
19139.659352727413,-80.0
19139.65941522465,-179.0
19139.65947772189,60.0
19139.659540219123,172.0
19139.65960271636,662.0
19139.6596652136,619.0
19139.659727710838,5.0
19139.659790208072,-308.0
19139.65985270531,-222.0
19139.65991520255,244.0
19139.659977699786,1015.0
19139.66004019702,1003.0
19139.66010269426,581.0
19139.660165191497,242.0
19139.660227688735,215.0
19139.66029018597,975.0
19139.660352683208,985.0
19139.660415180446,539.0
19139.66047767768,361.0
19139.66054017492,272.0
19139.660602672157,381.0
19139.660665169395,501.0
19139.660727666633,-91.0
19139.660790163867,-622.0
19139.660852661105,-307.0
19139.660915158343,646.0
19139.660977655578,1079.0
19139.661040152816,274.0
19139.661102650054,-543.0
19139.661165147292,-719.0
19139.661227644527,-569.0
19139.661290141765,-836.0
19139.661352639003,-1008.0
19139.66141513624,-1089.0
19139.661477633475,-1008.0
19139.661540130714,-774.0
19139.66160262795,-662.0
19139.66166512519,-665.0
19139.661727622424,-493.0
19139.661790119662,68.0
19139.6618526169,514.0
19139.66191511414,872.0
19139.661977611373,588.0
19139.66204010861,-143.0
19139.66210260585,-347.0
19139.662165103087,269.0
19139.66222760032,577.0
19139.66229009756,367.0
19139.662352594798,444.0
19139.662415092032,898.0
19139.66247758927,1130.0
19139.66254008651,878.0
19139.662602583747,367.0
19139.66266508098,-360.0
19139.66272757822,-137.0
19139.662790075457,-94.0
19139.662852572696,-272.0
19139.66291506993,289.0
19139.662977567168,470.0
19139.663040064406,625.0
19139.663102561644,1110.0
19139.66316505888,881.0
19139.663227556117,408.0
19139.663290053355,491.0
19139.663352550593,546.0
19139.663415047828,527.0
19139.663477545066,303.0
19139.663540042304,-263.0
19139.663602539542,-452.0
19139.663665036776,-542.0
19139.663727534014,-453.0
19139.663790031253,226.0
19139.66385252849,119.0
19139.663915025725,-505.0
19139.663977522963,-803.0
19139.6640400202,-782.0
19139.66410251744,-917.0
19139.664165014674,-649.0
19139.664227511912,-249.0
19139.66429000915,-374.0
19139.664352506385,-304.0
19139.664415003623,38.0
19139.66447750086,309.0
19139.6645399981,549.0
19139.664602495333,472.0
19139.66466499257,-7.0
19139.66472748981,334.0
19139.664789987048,1178.0
19139.664852484282,1242.0
19139.66491498152,849.0
19139.66497747876,896.0
19139.665039975996,1108.0
19139.66510247323,1065.0
19139.66516497047,1012.0
19139.665227467707,607.0
19139.665289964945,203.0
19139.66535246218,-55.0
19139.665414959418,389.0
19139.665477456656,900.0
19139.665539953894,298.0
19139.66560245113,-435.0
19139.665664948367,-145.0
19139.665727445605,-56.0
19139.66578994284,-515.0
19139.665852440077,-698.0
19139.665914937315,-1189.0
19139.665977434553,-1157.0
19139.66603993179,-748.0
19139.666102429026,-1062.0
19139.666164926264,-1180.0
19139.666227423502,-700.0
19139.666289920737,-696.0
19139.666352417975,-644.0
19139.666414915213,11.0
19139.66647741245,562.0
19139.666539909686,322.0
19139.666602406924,307.0
19139.66666490416,624.0
19139.6667274014,227.0
19139.666789898634,82.0
19139.666852395872,19.0
19139.66691489311,-356.0
19139.66697739035,-82.0
19139.667039887583,472.0
19139.66710238482,704.0
19139.66716488206,945.0
19139.667227379297,1151.0
19139.667289876532,1365.0
19139.66735237377,1646.0
19139.667414871008,2069.0
19139.667477368246,2116.0
19139.66753986548,1532.0
19139.66760236272,1251.0
19139.667664859957,990.0
19139.66772735719,192.0
19139.66778985443,-276.0
19139.667852351668,-814.0
19139.667914848906,-858.0
19139.66797734614,-699.0
19139.66803984338,-202.0
19139.668102340616,107.0
19139.668164837854,-735.0
19139.66822733509,-1193.0
19139.668289832327,-1101.0
19139.668352329565,-847.0
19139.668414826803,-1282.0
19139.668477324038,-1777.0
19139.668539821276,-1374.0
19139.668602318514,-713.0
19139.668664815752,298.0
19139.668727312986,672.0
19139.668789810225,519.0
19139.668852307463,230.0
19139.6689148047,154.0
19139.668977301935,224.0
19139.669039799173,-168.0
19139.66910229641,-432.0
19139.66916479365,-518.0
19139.669227290884,-359.0
19139.669289788122,-4.0
19139.66935228536,315.0
19139.6694147826,537.0
19139.669477279833,669.0
19139.66953977707,772.0
19139.66960227431,537.0
19139.669664771543,120.0
19139.66972726878,-33.0
19139.66978976602,-23.0
19139.669852263258,209.0
19139.669914760492,481.0
19139.66997725773,373.0
19139.67003975497,341.0
19139.670102252207,400.0
19139.67016474944,316.0
19139.67022724668,245.0
19139.670289743917,125.0
19139.670352241155,425.0
19139.67041473839,564.0
19139.670477235628,373.0
19139.670539732866,313.0
19139.670602230104,347.0
19139.67066472734,675.0
19139.670727224577,670.0
19139.670789721815,52.0
19139.670852219053,-41.0
19139.670914716287,470.0
19139.670977213525,985.0
19139.671039710764,1165.0
19139.671102207998,1037.0
19139.671164705236,912.0
19139.671227202474,1022.0
19139.671289699712,886.0
19139.67135219695,277.0
19139.671414694185,-54.0
19139.671477191423,-239.0
19139.67153968866,-384.0
19139.671602185896,-358.0
19139.671664683134,-471.0
19139.67172718037,-510.0
19139.67178967761,-707.0
19139.671852174844,-532.0
19139.671914672082,-124.0
19139.67197716932,-313.0
19139.67203966656,-665.0
19139.672102163793,-811.0
19139.67216466103,-789.0
19139.67222715827,-493.0
19139.672289655507,-502.0
19139.672352152742,-905.0
19139.67241464998,-736.0
19139.672477147218,21.0
19139.672539644456,666.0
19139.67260214169,646.0
19139.67266463893,303.0
19139.672727136167,6.0
19139.672789633405,-500.0
19139.67285213064,-788.0
19139.672914627878,-1045.0
19139.672977125116,-1303.0
19139.67303962235,-1837.0
19139.67310211959,-2124.0
19139.673164616826,-2054.0
19139.673227114065,-1719.0
19139.6732896113,-1374.0
19139.673352108537,-1360.0
19139.673414605775,-1544.0
19139.673477103013,-1179.0
19139.673539600248,-649.0
19139.673602097486,-852.0
19139.673664594724,-1047.0
19139.673727091962,-1215.0
19139.673789589197,-731.0
19139.673852086435,-75.0
19139.673914583673,-760.0
19139.67397708091,-933.0
19139.674039578145,-425.0
19139.674102075383,344.0
19139.67416457262,997.0
19139.67422706986,259.0
19139.674289567094,-681.0
19139.674352064332,-925.0
19139.67441456157,-489.0
19139.67447705881,-657.0
19139.674539556043,-1123.0
19139.67460205328,-1128.0
19139.67466455052,-983.0
19139.674727047757,-564.0
19139.67478954499,0.0
19139.67485204223,43.0
19139.674914539468,81.0
19139.674977036702,191.0
19139.67503953394,-96.0
19139.67510203118,-277.0
19139.675164528417,-119.0
19139.67522702565,-420.0
19139.67528952289,-719.0
19139.675352020127,53.0
19139.675414517365,62.0
19139.6754770146,-129.0
19139.675539511838,92.0
19139.675602009076,-391.0
19139.675664506314,-412.0
19139.67572700355,-179.0
19139.675789500787,36.0
19139.675851998025,181.0
19139.675914495263,23.0
19139.675976992497,522.0
19139.676039489736,882.0
19139.676101986974,185.0
19139.67616448421,-407.0
19139.676226981446,-281.0
19139.676289478684,-309.0
19139.676351975922,-323.0
19139.676414473157,-237.0
19139.676476970395,-43.0
19139.676539467633,165.0
19139.67660196487,305.0
19139.67666446211,159.0
19139.676726959344,-165.0
19139.676789456582,-60.0
19139.67685195382,-433.0
19139.676914451054,-697.0
19139.676976948293,-587.0
19139.67703944553,-38.0
19139.67710194277,205.0
19139.677164440003,40.0
19139.67722693724,515.0
19139.67728943448,702.0
19139.677351931718,251.0
19139.677414428952,82.0
19139.67747692619,166.0
19139.67753942343,600.0
19139.677601920666,1148.0
19139.6776644179,1260.0
19139.67772691514,557.0
19139.677789412377,98.0
19139.677851909615,36.0
19139.67791440685,-98.0
19139.677976904088,-523.0
19139.678039401326,-1624.0
19139.678101898564,-1530.0
19139.6781643958,-375.0
19139.678226893036,-66.0
19139.678289390275,-287.0
19139.67835188751,-578.0
19139.678414384747,-619.0
19139.678476881985,-529.0
19139.678539379223,-391.0
19139.67860187646,-400.0
19139.678664373696,-952.0
19139.678726870934,-1016.0
19139.678789368172,-766.0
19139.678851865407,-674.0
19139.678914362645,-481.0
19139.678976859883,-188.0
19139.67903935712,-67.0
19139.679101854355,329.0
19139.679164351593,581.0
19139.67922684883,526.0
19139.67928934607,1249.0
19139.679351843304,1937.0
19139.679414340542,1774.0
19139.67947683778,954.0
19139.67953933502,681.0
19139.679601832253,767.0
19139.67966432949,417.0
19139.67972682673,86.0
19139.679789323967,-100.0
19139.6798518212,44.0
19139.67991431844,128.0
19139.679976815678,164.0
19139.680039312916,28.0
19139.68010181015,-57.0
19139.68016430739,70.0
19139.680226804627,-697.0
19139.68028930186,-1008.0
19139.6803517991,-466.0
19139.680414296337,236.0
19139.680476793576,475.0
19139.68053929081,244.0
19139.680601788048,456.0
19139.680664285286,386.0
19139.680726782524,283.0
19139.68078927976,384.0
19139.680851776997,188.0
19139.680914274235,-26.0
19139.680976771473,-348.0
19139.681039268708,-308.0
19139.681101765946,512.0
19139.681164263184,789.0
19139.681226760422,984.0
19139.681289257656,1275.0
19139.681351754894,1284.0
19139.681414252133,1302.0
19139.68147674937,1279.0
19139.681539246605,1239.0
19139.681601743843,1149.0
19139.68166424108,1124.0
19139.68172673832,978.0
19139.681789235554,867.0
19139.681851732792,1090.0
19139.68191423003,1374.0
19139.68197672727,1038.0
19139.682039224503,375.0
19139.68210172174,680.0
19139.68216421898,1416.0
19139.682226716213,1598.0
19139.68228921345,1114.0
19139.68235171069,594.0
19139.682414207928,576.0
19139.682476705162,826.0
19139.6825392024,304.0
19139.68260169964,-19.0
19139.682664196876,276.0
19139.68272669411,512.0
19139.68278919135,761.0
19139.682851688587,742.0
19139.682914185825,339.0
19139.68297668306,334.0
19139.683039180298,421.0
19139.683101677536,514.0
19139.683164174774,533.0
19139.68322667201,577.0
19139.683289169247,625.0
19139.683351666485,638.0
19139.683414163723,702.0
19139.683476660957,536.0
19139.683539158195,-23.0
19139.683601655433,-413.0
19139.683664152668,-385.0
19139.683726649906,-155.0
19139.683789147144,-349.0
19139.683851644382,-785.0
19139.68391414162,-976.0
19139.683976638855,-678.0
19139.684039136093,-373.0
19139.68410163333,-394.0
19139.684164130565,-297.0
19139.684226627804,-472.0
19139.68428912504,-455.0
19139.68435162228,-307.0
19139.684414119514,-191.0
19139.684476616752,69.0
19139.68453911399,475.0
19139.68460161123,616.0
19139.684664108463,474.0
19139.6847266057,313.0
19139.68478910294,57.0
19139.684851600177,277.0
19139.684914097412,878.0
19139.68497659465,847.0
19139.685039091888,617.0
19139.685101589126,663.0
19139.68516408636,286.0
19139.6852265836,179.0
19139.685289080837,112.0
19139.685351578075,88.0
19139.68541407531,569.0
19139.685476572547,772.0
19139.685539069786,995.0
19139.68560156702,1155.0
19139.685664064258,1374.0
19139.685726561496,1194.0
19139.685789058734,693.0
19139.68585155597,415.0
19139.685914053207,42.0
19139.685976550445,-336.0
19139.686039047683,-580.0
19139.686101544918,-566.0
19139.686164042156,-433.0
19139.686226539394,-834.0
19139.686289036632,-1442.0
19139.686351533866,-898.0
19139.686414031105,-272.0
19139.686476528343,-209.0
19139.68653902558,-429.0
19139.686601522815,-579.0
19139.686664020053,-436.0
19139.68672651729,5.0
19139.68678901453,339.0
19139.686851511764,548.0
19139.686914009002,964.0
19139.68697650624,672.0
19139.68703900348,104.0
19139.687101500713,294.0
19139.68716399795,295.0
19139.68722649519,185.0
19139.687288992427,194.0
19139.68735148966,-203.0
19139.6874139869,-354.0
19139.687476484138,-204.0
19139.687538981372,-350.0
19139.68760147861,-576.0
19139.68766397585,-409.0
19139.687726473087,-308.0
19139.68778897032,-19.0
19139.68785146756,64.0
19139.687913964797,-105.0
19139.687976462035,153.0
19139.68803895927,-58.0
19139.688101456508,-42.0
19139.688163953746,267.0
19139.688226450984,568.0
19139.68828894822,1281.0
19139.688351445457,1424.0
19139.688413942695,937.0
19139.688476439933,260.0
19139.688538937167,-342.0
19139.688601434405,-649.0
19139.688663931644,-747.0
19139.68872642888,-816.0
19139.688788926116,-692.0
19139.688851423354,-334.0
19139.688913920592,-210.0
19139.688976417827,-476.0
19139.689038915065,-907.0
19139.689101412303,-996.0
19139.68916390954,-864.0
19139.68922640678,-902.0
19139.689288904014,-597.0
19139.68935140125,-536.0
19139.68941389849,-352.0
19139.689476395724,-485.0
19139.689538892962,-882.0
19139.6896013902,-874.0
19139.68966388744,-1007.0
19139.689726384673,-1112.0
19139.68978888191,-1274.0
19139.68985137915,-1480.0
19139.689913876387,-1597.0
19139.689976373622,-952.0
19139.69003887086,-380.0
19139.690101368098,-273.0
19139.690163865336,-444.0
19139.69022636257,-26.0
19139.69028885981,241.0
19139.690351357047,8.0
19139.690413854285,-230.0
19139.69047635152,-382.0
19139.690538848758,-94.0
19139.690601345996,-18.0
19139.690663843234,-171.0
19139.69072634047,-414.0
19139.690788837706,-230.0
19139.690851334944,-157.0
19139.69091383218,-699.0
19139.690976329417,-932.0
19139.691038826655,-758.0
19139.691101323893,-532.0
19139.691163821128,-202.0
19139.691226318366,61.0
19139.691288815604,263.0
19139.691351312842,449.0
19139.691413810076,756.0
19139.691476307315,820.0
19139.691538804553,383.0
19139.69160130179,100.0
19139.691663799025,153.0
19139.691726296263,-103.0
19139.6917887935,81.0
19139.69185129074,379.0
19139.691913787974,-71.0
19139.691976285212,82.0
19139.69203878245,786.0
19139.69210127969,809.0
19139.692163776923,628.0
19139.69222627416,203.0
19139.6922887714,94.0
19139.692351268637,200.0
19139.69241376587,295.0
19139.69247626311,370.0
19139.692538760348,429.0
19139.692601257586,751.0
19139.69266375482,880.0
19139.69272625206,1086.0
19139.692788749297,623.0
19139.69285124653,155.0
19139.69291374377,932.0
19139.692976241007,1257.0
19139.693038738245,302.0
19139.69310123548,217.0
19139.693163732718,495.0
19139.693226229956,92.0
19139.693288727194,439.0
19139.69335122443,46.0
19139.693413721667,-568.0
19139.693476218905,79.0
19139.693538716143,524.0
19139.693601213377,324.0
19139.693663710616,-231.0
19139.693726207854,-566.0
19139.69378870509,-560.0
19139.693851202326,-305.0
19139.693913699564,63.0
19139.693976196802,281.0
19139.69403869404,85.0
19139.694101191275,20.0
19139.694163688513,488.0
19139.69422618575,245.0
19139.694288682986,-153.0
19139.694351180224,-138.0
19139.694413677462,78.0
19139.6944761747,111.0
19139.694538671938,-309.0
19139.694601169173,-122.0
19139.69466366641,-454.0
19139.69472616365,-498.0
19139.694788660883,7.0
19139.69485115812,56.0
19139.69491365536,-22.0
19139.694976152598,-279.0
19139.695038649832,-253.0
19139.69510114707,-99.0
19139.69516364431,120.0
19139.695226141546,388.0
19139.69528863878,395.0
19139.69535113602,580.0
19139.695413633257,607.0
19139.695476130495,369.0
19139.69553862773,32.0
19139.695601124968,368.0
19139.695663622206,644.0
19139.695726119444,253.0
19139.69578861668,473.0
19139.695851113916,617.0
19139.695913611155,456.0
19139.695976108393,-19.0
19139.696038605627,-593.0
19139.696101102865,-493.0
19139.696163600103,192.0
19139.696226097338,621.0
19139.696288594576,357.0
19139.696351091814,-269.0
19139.696413589052,-344.0
19139.696476086287,442.0
19139.696538583525,720.0
19139.696601080763,408.0
19139.696663578,199.0
19139.696726075235,253.0
19139.696788572473,294.0
19139.69685106971,315.0
19139.69691356695,261.0
19139.696976064184,-4.0
19139.697038561422,102.0
19139.69710105866,668.0
19139.6971635559,896.0
19139.697226053133,632.0
19139.69728855037,161.0
19139.69735104761,134.0
19139.697413544847,305.0
19139.69747604208,98.0
19139.69753853932,-248.0
19139.697601036558,193.0
19139.697663533796,762.0
19139.69772603103,57.0
19139.69778852827,-436.0
19139.697851025507,279.0
19139.697913522745,201.0
19139.69797601998,-291.0
19139.698038517217,-259.0
19139.698101014455,-904.0
19139.69816351169,-818.0
19139.698226008928,-638.0
19139.698288506166,-1117.0
19139.698351003404,-750.0
19139.69841350064,-465.0
19139.698475997877,-61.0
19139.698538495115,479.0
19139.698600992353,399.0
19139.698663489587,150.0
19139.698725986826,205.0
19139.698788484064,430.0
19139.6988509813,426.0
19139.698913478536,242.0
19139.698975975774,547.0
19139.699038473012,1011.0
19139.69910097025,959.0
19139.699163467485,560.0
19139.699225964723,54.0
19139.69928846196,-444.0
19139.6993509592,-797.0
19139.699413456434,-833.0
19139.699475953672,-666.0
19139.69953845091,-687.0
19139.699600948145,-815.0
19139.699663445383,-794.0
19139.69972594262,-698.0
19139.69978843986,-429.0
19139.699850937097,-356.0
19139.69991343433,-623.0
19139.69997593157,-615.0
19139.700038428808,-400.0
19139.700100926042,-442.0
19139.70016342328,-440.0
19139.70022592052,-261.0
19139.700288417756,421.0
19139.70035091499,920.0
19139.70041341223,1128.0
19139.700475909467,1121.0
19139.700538406705,1252.0
19139.70060090394,1207.0
19139.700663401178,1024.0
19139.700725898416,938.0
19139.700788395654,327.0
19139.70085089289,620.0
19139.700913390127,1026.0
19139.700975887365,914.0
19139.701038384603,756.0
19139.701100881837,442.0
19139.701163379075,721.0
19139.701225876313,883.0
19139.70128837355,1090.0
19139.701350870786,1174.0
19139.701413368024,708.0
19139.701475865262,591.0
19139.701538362497,537.0
19139.701600859735,399.0
19139.701663356973,563.0
19139.70172585421,638.0
19139.70178835145,723.0
19139.701850848684,920.0
19139.70191334592,1054.0
19139.70197584316,963.0
19139.702038340394,729.0
19139.702100837632,356.0
19139.70216333487,377.0
19139.70222583211,889.0
19139.702288329343,566.0
19139.70235082658,166.0
19139.70241332382,779.0
19139.702475821057,1166.0
19139.70253831829,1149.0
19139.70260081553,914.0
19139.702663312768,331.0
19139.702725810006,42.0
19139.70278830724,-41.0
19139.70285080448,-220.0
19139.702913301717,-811.0
19139.702975798955,-684.0
19139.70303829619,-388.0
19139.703100793427,-62.0
19139.703163290666,-433.0
19139.703225787904,-1116.0
19139.703288285138,-463.0
19139.703350782376,-445.0
19139.703413279614,-654.0
19139.70347577685,-695.0
19139.703538274087,-1054.0
19139.703600771325,-840.0
19139.703663268563,-474.0
19139.703725765798,-57.0
19139.703788263036,102.0
19139.703850760274,-278.0
19139.703913257512,-375.0
19139.703975754746,-815.0
19139.704038251984,-1451.0
19139.704100749223,-1003.0
19139.70416324646,-605.0
19139.704225743695,-1069.0
19139.704288240933,-1609.0
19139.70435073817,-1819.0
19139.70441323541,-1586.0
19139.704475732644,-1592.0
19139.704538229882,-1731.0
19139.70460072712,-1572.0
19139.70466322436,-1194.0
19139.704725721593,-656.0
19139.70478821883,-263.0
19139.70485071607,-438.0
19139.704913213307,-1028.0
19139.70497571054,-662.0
19139.70503820778,-513.0
19139.705100705018,-595.0
19139.705163202256,-615.0
19139.70522569949,-1150.0
19139.70528819673,-1421.0
19139.705350693966,-1001.0
19139.7054131912,-805.0
19139.70547568844,-778.0
19139.705538185677,-527.0
19139.705600682915,-641.0
19139.70566318015,-291.0
19139.705725677388,368.0
19139.705788174626,657.0
19139.705850671864,560.0
19139.7059131691,-309.0
19139.705975666337,-899.0
19139.706038163575,-675.0
19139.706100660813,-225.0
19139.706163158047,-148.0
19139.706225655285,-465.0
19139.706288152523,-771.0
19139.70635064976,-772.0
19139.706413146996,-370.0
19139.706475644234,-451.0
19139.706538141472,-984.0
19139.70660063871,-985.0
19139.706663135945,-418.0
19139.706725633183,-261.0
19139.70678813042,-853.0
19139.706850627656,-1064.0
19139.706913124894,-511.0
19139.70697562213,410.0
19139.70703811937,1138.0
19139.707100616608,1089.0
19139.707163113842,120.0
19139.70722561108,-49.0
19139.70728810832,648.0
19139.707350605553,609.0
19139.70741310279,320.0
19139.70747560003,-14.0
19139.707538097267,-350.0
19139.707600594502,-152.0
19139.70766309174,13.0
19139.707725588978,-351.0
19139.707788086216,-866.0
19139.70785058345,-927.0
19139.70791308069,-797.0
19139.707975577927,-167.0
19139.708038075165,95.0
19139.7081005724,-242.0
19139.708163069638,-446.0
19139.708225566876,-164.0
19139.708288064114,373.0
19139.70835056135,830.0
19139.708413058586,329.0
19139.708475555824,-280.0
19139.708538053063,-135.0
19139.708600550297,-280.0
19139.708663047535,-515.0
19139.708725544773,-367.0
19139.708788042008,-427.0
19139.708850539246,-308.0
19139.708913036484,386.0
19139.708975533722,522.0
19139.709038030956,309.0
19139.709100528195,-208.0
19139.709163025433,-850.0
19139.70922552267,-742.0
19139.709288019905,-470.0
19139.709350517143,-378.0
19139.70941301438,-150.0
19139.70947551162,-262.0
19139.709538008854,-126.0
19139.709600506092,119.0
19139.70966300333,214.0
19139.70972550057,204.0
19139.709787997803,12.0
19139.70985049504,-267.0
19139.70991299228,-349.0
19139.709975489517,-958.0
19139.71003798675,-1382.0
19139.71010048399,-1123.0
19139.710162981228,-673.0
19139.710225478466,292.0
19139.7102879757,593.0
19139.71035047294,600.0
19139.710412970177,873.0
19139.710475467415,263.0
19139.71053796465,-277.0
19139.710600461887,-406.0
19139.710662959125,-772.0
19139.71072545636,-942.0
19139.710787953598,-790.0
19139.710850450836,-292.0
19139.710912948074,332.0
19139.71097544531,613.0
19139.711037942547,-57.0
19139.711100439785,-3.0
19139.711162937023,778.0
19139.711225434257,1012.0
19139.711287931495,1444.0
19139.711350428734,715.0
19139.71141292597,440.0
19139.711475423206,764.0
19139.711537920444,638.0
19139.711600417682,783.0
19139.71166291492,288.0
19139.711725412155,551.0
19139.711787909393,1108.0
19139.71185040663,775.0
19139.71191290387,339.0
19139.711975401104,-180.0
19139.71203789834,448.0
19139.71210039558,908.0
19139.712162892814,601.0
19139.712225390052,392.0
19139.71228788729,644.0
19139.71235038453,582.0
19139.712412881767,12.0
19139.712475379,308.0
19139.71253787624,721.0
19139.712600373477,980.0
19139.712662870712,887.0
19139.71272536795,672.0
19139.712787865188,1002.0
19139.712850362426,1174.0
19139.71291285966,556.0
19139.7129753569,226.0
19139.713037854137,484.0
19139.713100351375,996.0
19139.71316284861,1642.0
19139.713225345848,1514.0
19139.713287843086,609.0
19139.713350340324,490.0
19139.71341283756,629.0
19139.713475334796,690.0
19139.713537832034,911.0
19139.713600329273,606.0
19139.713662826507,565.0
19139.713725323745,219.0
19139.713787820983,-134.0
19139.71385031822,-338.0
19139.713912815456,-482.0
19139.713975312694,-316.0
19139.714037809932,-131.0
19139.714100307167,531.0
19139.714162804405,573.0
19139.714225301643,-332.0
19139.71428779888,-635.0
19139.714350296115,-657.0
19139.714412793353,-687.0
19139.71447529059,-717.0
19139.71453778783,-981.0
19139.714600285064,-176.0
19139.714662782302,568.0
19139.71472527954,566.0
19139.71478777678,429.0
19139.714850274013,-88.0
19139.71491277125,-254.0
19139.71497526849,-204.0
19139.715037765727,-2.0
19139.71510026296,-28.0
19139.7151627602,-195.0
19139.715225257438,223.0
19139.715287754676,533.0
19139.71535025191,705.0
19139.71541274915,550.0
19139.715475246387,611.0
19139.715537743625,852.0
19139.71560024086,599.0
19139.715662738097,103.0
19139.715725235335,-162.0
19139.715787732574,172.0
19139.715850229808,717.0
19139.715912727046,856.0
19139.715975224284,680.0
19139.71603772152,763.0
19139.716100218757,590.0
19139.716162715995,-142.0
19139.716225213233,-803.0
19139.716287710467,-546.0
19139.716350207706,-17.0
19139.716412704944,165.0
19139.71647520218,262.0
19139.716537699416,-118.0
19139.716600196654,-746.0
19139.716662693892,-624.0
19139.71672519113,-679.0
19139.716787688365,-976.0
19139.716850185603,-871.0
19139.71691268284,-908.0
19139.71697518008,-565.0
19139.717037677314,-322.0
19139.717100174552,-519.0
19139.71716267179,-550.0
19139.717225169028,-479.0
19139.717287666263,-639.0
19139.7173501635,-441.0
19139.71741266074,43.0
19139.717475157973,177.0
19139.71753765521,465.0
19139.71760015245,659.0
19139.717662649688,592.0
19139.717725146926,704.0
19139.71778764416,628.0
19139.7178501414,632.0
19139.717912638636,876.0
19139.71797513587,1200.0
19139.71803763311,1257.0
19139.718100130347,1384.0
19139.718162627585,1671.0
19139.71822512482,1633.0
19139.718287622058,1254.0
19139.718350119296,589.0
19139.718412616534,-178.0
19139.71847511377,-703.0
19139.718537611006,-899.0
19139.718600108245,-1238.0
19139.718662605483,-1363.0
19139.718725102717,-1212.0
19139.718787599955,-1311.0
19139.718850097193,-1541.0
19139.71891259443,-1441.0
19139.718975091666,-906.0
19139.719037588904,-782.0
19139.719100086142,-1051.0
19139.71916258338,-832.0
19139.719225080615,-642.0
19139.719287577853,-406.0
19139.71935007509,-124.0
19139.719412572325,-288.0
19139.719475069563,-473.0
19139.7195375668,-598.0
19139.71960006404,-596.0
19139.719662561274,156.0
19139.719725058512,426.0
19139.71978755575,157.0
19139.71985005299,81.0
19139.719912550223,-29.0
19139.71997504746,75.0
19139.7200375447,-246.0
19139.720100041937,-520.0
19139.72016253917,-467.0
19139.72022503641,-414.0
19139.720287533648,-73.0
19139.720350030886,85.0
19139.72041252812,-142.0
19139.72047502536,-259.0
19139.720537522597,-433.0
19139.720600019835,-426.0
19139.72066251707,-625.0
19139.720725014307,-1102.0
19139.720787511545,-1233.0
19139.720850008784,-1241.0
19139.720912506018,-1050.0
19139.720975003256,-483.0
19139.721037500494,-241.0
19139.721099997732,-403.0
19139.721162494967,-476.0
19139.721224992205,-565.0
19139.721287489443,-171.0
19139.721349986678,0.0
19139.721412483916,122.0
19139.721474981154,33.0
19139.721537478392,-300.0
19139.721599975626,-98.0
19139.721662472864,48.0
19139.721724970103,-194.0
19139.72178746734,-393.0
19139.721849964575,4.0
19139.721912461813,422.0
19139.72197495905,7.0
19139.72203745629,-445.0
19139.722099953524,-243.0
19139.722162450762,254.0
19139.722224948,330.0
19139.722287445238,198.0
19139.722349942473,502.0
19139.72241243971,658.0
19139.72247493695,749.0
19139.722537434187,622.0
19139.72259993142,311.0
19139.72266242866,434.0
19139.722724925898,909.0
19139.722787423132,1406.0
19139.72284992037,895.0
19139.72291241761,362.0
19139.722974914846,327.0
19139.723037412085,506.0
19139.72309990932,740.0
19139.723162406557,548.0
19139.723224903795,624.0
19139.72328740103,709.0
19139.723349898268,713.0
19139.723412395506,387.0
19139.723474892744,-12.0
19139.72353738998,-42.0
19139.723599887217,-482.0
19139.723662384455,-828.0
19139.723724881693,-83.0
19139.723787378927,307.0
19139.723849876165,-446.0
19139.723912373403,-1043.0
19139.72397487064,-1133.0
19139.724037367876,-678.0
19139.724099865114,-225.0
19139.724162362352,-799.0
19139.72422485959,-1156.0
19139.724287356825,-682.0
19139.724349854063,-473.0
19139.7244123513,-552.0
19139.72447484854,-681.0
19139.724537345774,-822.0
19139.72459984301,-710.0
19139.72466234025,-632.0
19139.724724837484,-1048.0
19139.724787334722,-1639.0
19139.72484983196,-1665.0
19139.7249123292,-1273.0
19139.724974826437,-1183.0
19139.72503732367,-901.0
19139.72509982091,-218.0
19139.725162318147,-146.0
19139.72522481538,38.0
19139.72528731262,147.0
19139.725349809858,36.0
19139.725412307096,-216.0
19139.72547480433,-549.0
19139.72553730157,-610.0
19139.725599798807,-525.0
19139.725662296045,-43.0
19139.72572479328,115.0
19139.725787290517,341.0
19139.725849787756,241.0
19139.725912284994,49.0
19139.725974782228,-40.0
19139.726037279466,-509.0
19139.726099776704,-965.0
19139.726162273942,-889.0
19139.726224771177,-1037.0
19139.726287268415,-1107.0
19139.726349765653,-483.0
19139.72641226289,-11.0
19139.726474760126,214.0
19139.726537257364,283.0
19139.726599754602,67.0
19139.726662251836,-106.0
19139.726724749074,577.0
19139.726787246313,218.0
19139.72684974355,-176.0
19139.726912240785,464.0
19139.726974738023,619.0
19139.72703723526,792.0
19139.7270997325,561.0
19139.727162229734,430.0
19139.727224726972,1009.0
19139.72728722421,1718.0
19139.72734972145,2098.0
19139.727412218683,1581.0
19139.72747471592,903.0
19139.72753721316,685.0
19139.727599710397,820.0
19139.72766220763,930.0
19139.72772470487,1086.0
19139.727787202108,990.0
19139.727849699346,537.0
19139.72791219658,468.0
19139.72797469382,555.0
19139.728037191057,367.0
19139.728099688295,596.0
19139.72816218553,987.0
19139.728224682767,1101.0
19139.728287180005,1624.0
19139.728349677243,1692.0
19139.728412174478,724.0
19139.728474671716,-70.0
19139.728537168954,138.0
19139.72859966619,243.0
19139.728662163427,-452.0
19139.728724660665,-838.0
19139.728787157903,-557.0
19139.728849655137,-167.0
19139.728912152375,208.0
19139.728974649614,8.0
19139.72903714685,-555.0
19139.729099644086,-477.0
19139.729162141324,372.0
19139.729224638562,248.0
19139.7292871358,-610.0
19139.729349633035,-286.0
19139.729412130273,-190.0
19139.72947462751,-522.0
19139.72953712475,-942.0
19139.729599621984,-1352.0
19139.72966211922,-1001.0
19139.72972461646,-940.0
19139.729787113698,-1144.0
19139.729849610932,-1030.0
19139.72991210817,-922.0
19139.72997460541,-555.0
19139.730037102643,263.0
19139.73009959988,530.0
19139.73016209712,61.0
19139.730224594357,-301.0
19139.730287091596,-260.0
19139.73034958883,-288.0
19139.730412086068,-239.0
19139.730474583306,-176.0
19139.73053708054,400.0
19139.73059957778,956.0
19139.730662075017,789.0
19139.730724572255,548.0
19139.73078706949,217.0
19139.730849566728,-126.0
19139.730912063966,-595.0
19139.730974561204,-890.0
19139.73103705844,-758.0
19139.731099555676,107.0
19139.731162052914,607.0
19139.731224550153,488.0
19139.731287047387,377.0
19139.731349544625,337.0
19139.731412041863,296.0
19139.7314745391,32.0
19139.731537036336,148.0
19139.731599533574,239.0
19139.731662030812,101.0
19139.73172452805,-375.0
19139.731787025285,-1132.0
19139.731849522523,-1002.0
19139.73191201976,-914.0
19139.731974516995,-1213.0
19139.732037014233,-729.0
19139.73209951147,-292.0
19139.73216200871,-479.0
19139.732224505944,-466.0
19139.732287003182,-257.0
19139.73234950042,50.0
19139.73241199766,584.0
19139.732474494893,719.0
19139.73253699213,527.0
19139.73259948937,876.0
19139.732661986607,802.0
19139.73272448384,465.0
19139.73278698108,23.0
19139.732849478318,-495.0
19139.732911975556,-46.0
19139.73297447279,530.0
19139.73303697003,649.0
19139.733099467267,-22.0
19139.733161964505,-749.0
19139.73322446174,-846.0
19139.733286958977,-219.0
19139.733349456215,679.0
19139.733411953453,659.0
19139.733474450688,345.0
19139.733536947926,166.0
19139.733599445164,-267.0
19139.733661942402,-772.0
19139.733724439637,-1184.0
19139.733786936875,-1200.0
19139.733849434113,-468.0
19139.733911931347,403.0
19139.733974428585,440.0
19139.734036925824,55.0
19139.73409942306,0.0
19139.734161920296,-204.0
19139.734224417534,-191.0
19139.734286914772,-59.0
19139.73434941201,-119.0
19139.734411909245,796.0
19139.734474406483,1297.0
19139.73453690372,766.0
19139.73459940096,304.0
19139.734661898194,45.0
19139.734724395432,404.0
19139.73478689267,586.0
19139.734849389908,523.0
19139.734911887143,446.0
19139.73497438438,159.0
19139.73503688162,57.0
19139.735099378857,-17.0
19139.73516187609,-85.0
19139.73522437333,-549.0
19139.735286870568,-516.0
19139.735349367802,211.0
19139.73541186504,106.0
19139.73547436228,-306.0
19139.735536859516,-735.0
19139.735599356754,-848.0
19139.73566185399,-478.0
19139.735724351227,77.0
19139.735786848465,276.0
19139.7358493457,201.0
19139.735911842938,406.0
19139.735974340176,81.0
19139.736036837414,-255.0
19139.73609933465,-955.0
19139.736161831886,-1604.0
19139.736224329125,-1313.0
19139.736286826363,-798.0
19139.736349323597,-582.0
19139.736411820835,-898.0
19139.736474318073,-599.0
19139.73653681531,-214.0
19139.736599312546,-90.0
19139.736661809784,118.0
19139.736724307022,8.0
19139.73678680426,247.0
19139.736849301495,654.0
19139.736911798733,368.0
19139.73697429597,-49.0
19139.73703679321,-351.0
19139.737099290443,-47.0
19139.73716178768,341.0
19139.73722428492,237.0
19139.737286782154,435.0
19139.737349279392,344.0
19139.73741177663,715.0
19139.73747427387,1161.0
19139.737536771103,819.0
19139.73759926834,735.0
19139.73766176558,1003.0
19139.737724262817,905.0
19139.73778676005,572.0
19139.73784925729,403.0
19139.737911754528,119.0
19139.737974251766,-184.0
19139.738036749,66.0
19139.73809924624,162.0
19139.738161743477,-6.0
19139.738224240715,174.0
19139.73828673795,43.0
19139.738349235187,-99.0
19139.738411732425,-209.0
19139.738474229664,-519.0
19139.738536726898,-935.0
19139.738599224136,-871.0
19139.738661721374,-226.0
19139.738724218612,-441.0
19139.738786715847,-609.0
19139.738849213085,-203.0
19139.738911710323,321.0
19139.73897420756,999.0
19139.739036704796,1126.0
19139.739099202034,675.0
19139.73916169927,709.0
19139.739224196506,723.0
19139.739286693744,170.0
19139.739349190982,-356.0
19139.73941168822,-589.0
19139.739474185455,-772.0
19139.739536682693,-889.0
19139.73959917993,-664.0
19139.73966167717,-299.0
19139.739724174404,118.0
19139.739786671642,139.0
19139.73984916888,-246.0
19139.739911666118,-110.0
19139.739974163353,151.0
19139.74003666059,237.0
19139.74009915783,633.0
19139.740161655067,706.0
19139.7402241523,357.0
19139.74028664954,324.0
19139.740349146778,956.0
19139.740411644016,1194.0
19139.74047414125,596.0
19139.74053663849,-81.0
19139.740599135726,67.0
19139.74066163296,412.0
19139.7407241302,308.0
19139.740786627437,123.0
19139.740849124675,-208.0
19139.740911621913,-168.0
19139.740974119148,203.0
19139.741036616386,-3.0
19139.741099113624,-181.0
19139.74116161086,-213.0
19139.741224108097,-183.0
19139.741286605335,-6.0
19139.741349102573,322.0
19139.741411599807,482.0
19139.741474097045,644.0
19139.741536594283,667.0
19139.74159909152,314.0
19139.741661588756,146.0
19139.741724085994,-86.0
19139.741786583232,-230.0
19139.74184908047,-285.0
19139.741911577705,-210.0
19139.741974074943,-211.0
19139.74203657218,-766.0
19139.74209906942,-903.0
19139.742161566654,-715.0
19139.74222406389,-719.0
19139.74228656113,-267.0
19139.742349058368,13.0
19139.742411555602,-200.0
19139.74247405284,-440.0
19139.74253655008,-413.0
19139.742599047313,-316.0
19139.74266154455,-626.0
19139.74272404179,-1185.0
19139.742786539027,-1379.0
19139.742849036265,-1294.0
19139.7429115335,-1219.0
19139.742974030738,-1209.0
19139.743036527976,-1463.0
19139.74309902521,-1896.0
19139.74316152245,-1775.0
19139.743224019687,-1578.0
19139.743286516925,-1459.0
19139.74334901416,-1317.0
19139.743411511397,-1498.0
19139.743474008636,-1445.0
19139.743536505874,-898.0
19139.743599003108,-958.0
19139.743661500346,-1281.0
19139.743723997584,-898.0
19139.743786494822,-1028.0
19139.743848992057,-1040.0
19139.743911489295,-491.0
19139.743973986533,-177.0
19139.74403648377,-137.0
19139.744098981006,-536.0
19139.744161478244,-509.0
19139.744223975482,-295.0
19139.74428647272,-59.0
19139.744348969954,-44.0
19139.744411467193,29.0
19139.74447396443,406.0
19139.744536461665,162.0
19139.744598958903,-74.0
19139.74466145614,129.0
19139.74472395338,258.0
19139.744786450614,400.0
19139.744848947852,252.0
19139.74491144509,341.0
19139.74497394233,521.0
19139.745036439563,572.0
19139.7450989368,322.0
19139.74516143404,391.0
19139.745223931277,-119.0
19139.74528642851,-1243.0
19139.74534892575,-1684.0
19139.745411422988,-1808.0
19139.745473920226,-1845.0
19139.74553641746,-1720.0
19139.7455989147,-1483.0
19139.745661411936,-1404.0
19139.745723909175,-1033.0
19139.74578640641,-717.0
19139.745848903647,-660.0
19139.745911400885,-595.0
19139.745973898123,-641.0
19139.746036395358,-463.0
19139.746098892596,17.0
19139.746161389834,470.0
19139.746223887072,816.0
19139.746286384307,296.0
19139.746348881545,-102.0
19139.746411378783,63.0
19139.746473876017,-301.0
19139.746536373255,-266.0
19139.746598870493,276.0
19139.74666136773,591.0
19139.746723864966,515.0
19139.746786362204,645.0
19139.746848859442,791.0
19139.74691135668,304.0
19139.746973853915,77.0
19139.747036351153,168.0
19139.74709884839,495.0
19139.74716134563,471.0
19139.747223842864,117.0
19139.7472863401,351.0
19139.74734883734,351.0
19139.747411334578,86.0
19139.747473831812,327.0
19139.74753632905,1031.0
19139.74759882629,1054.0
19139.747661323527,657.0
19139.74772382076,859.0
19139.747786318,725.0
19139.747848815237,672.0
19139.747911312472,694.0
19139.74797380971,582.0
19139.748036306948,664.0
19139.748098804186,742.0
19139.748161301424,941.0
19139.74822379866,1147.0
19139.748286295897,1013.0
19139.748348793135,582.0
19139.74841129037,842.0
19139.748473787608,1548.0
19139.748536284846,2195.0
19139.748598782084,1953.0
19139.74866127932,1315.0
19139.748723776556,1349.0
19139.748786273794,1047.0
19139.748848771032,395.0
19139.748911268267,-472.0
19139.748973765505,-753.0
19139.749036262743,-199.0
19139.74909875998,416.0
19139.749161257216,481.0
19139.749223754454,-297.0
19139.749286251692,-698.0
19139.74934874893,-454.0
19139.749411246165,94.0
19139.749473743403,251.0
19139.74953624064,-129.0
19139.74959873788,-612.0
19139.749661235113,-588.0
19139.74972373235,-324.0
19139.74978622959,-378.0
19139.749848726824,-177.0
19139.749911224062,247.0
19139.7499737213,963.0
19139.75003621854,1389.0
19139.750098715773,1046.0
19139.75016121301,746.0
19139.75022371025,762.0
19139.750286207487,781.0
19139.75034870472,661.0
19139.75041120196,605.0
19139.750473699198,279.0
19139.750536196436,89.0
19139.75059869367,89.0
19139.75066119091,-201.0
19139.750723688147,-321.0
19139.750786185385,-352.0
19139.75084868262,-157.0
19139.750911179857,-145.0
19139.750973677095,-608.0
19139.751036174333,-1022.0
19139.751098671568,-1178.0
19139.751161168806,-974.0
19139.751223666044,-791.0
19139.751286163282,-639.0
19139.751348660517,-369.0
19139.751411157755,-317.0
19139.751473654993,-253.0
19139.75153615223,-230.0
19139.751598649465,-150.0
19139.751661146704,66.0
19139.75172364394,-193.0
19139.751786141176,-119.0
19139.751848638414,93.0
19139.751911135652,7.0
19139.75197363289,87.0
19139.752036130125,-21.0
19139.752098627363,-45.0
19139.7521611246,83.0
19139.75222362184,317.0
19139.752286119074,1208.0
19139.75234861631,1479.0
19139.75241111355,1012.0
19139.752473610788,644.0
19139.752536108022,111.0
19139.75259860526,-298.0
19139.7526611025,-494.0
19139.752723599737,-835.0
19139.75278609697,-602.0
19139.75284859421,-563.0
19139.752911091447,-705.0
19139.752973588686,-49.0
19139.75303608592,561.0
19139.753098583158,744.0
19139.753161080396,604.0
19139.75322357763,827.0
19139.75328607487,1748.0
19139.753348572107,1760.0
19139.753411069345,1327.0
19139.753473566583,808.0
19139.753536063818,316.0
19139.753598561056,94.0
19139.753661058294,32.0
19139.75372355553,556.0
19139.753786052766,736.0
19139.753848550004,776.0
19139.753911047243,1155.0
19139.753973544477,985.0
19139.754036041715,287.0
19139.754098538953,241.0
19139.75416103619,883.0
19139.754223533426,772.0
19139.754286030664,313.0
19139.754348527902,199.0
19139.75441102514,594.0
19139.754473522375,695.0
19139.754536019613,623.0
19139.75459851685,449.0
19139.75466101409,304.0
19139.754723511323,357.0
19139.75478600856,314.0
19139.7548485058,468.0
19139.754911003038,267.0
19139.754973500272,-105.0
19139.75503599751,-93.0
19139.75509849475,-161.0
19139.755160991983,219.0
19139.75522348922,507.0
19139.75528598646,488.0
19139.755348483697,329.0
19139.75541098093,-154.0
19139.75547347817,-76.0
19139.755535975408,543.0
19139.755598472646,1097.0
19139.75566096988,1094.0
19139.75572346712,1166.0
19139.755785964357,1237.0
19139.755848461595,1274.0
19139.75591095883,1019.0
19139.755973456067,253.0
19139.756035953305,-65.0
19139.756098450544,73.0
19139.756160947778,125.0
19139.756223445016,18.0
19139.756285942254,35.0
19139.756348439492,-233.0
19139.756410936727,-156.0
19139.756473433965,280.0
19139.756535931203,375.0
19139.75659842844,718.0
19139.756660925676,820.0
19139.756723422914,534.0
19139.75678592015,-21.0
19139.75684841739,-508.0
19139.756910914624,-277.0
19139.756973411862,212.0
19139.7570359091,554.0
19139.757098406335,218.0
19139.757160903573,64.0
19139.75722340081,290.0
19139.75728589805,272.0
19139.757348395284,-103.0
19139.757410892522,-482.0
19139.75747338976,-228.0
19139.757535886998,145.0
19139.757598384233,214.0
19139.75766088147,208.0
19139.75772337871,-73.0
19139.757785875947,-215.0
19139.75784837318,-240.0
19139.75791087042,-303.0
19139.757973367658,-637.0
19139.758035864896,-616.0
19139.75809836213,0.0
19139.75816085937,68.0
19139.758223356606,-582.0
19139.758285853844,-881.0
19139.75834835108,-951.0
19139.758410848317,-574.0
19139.758473345555,42.0
19139.75853584279,-433.0
19139.758598340028,-1034.0
19139.758660837266,-1145.0
19139.758723334504,-1269.0
19139.758785831742,-1564.0
19139.758848328976,-1527.0
19139.758910826215,-1128.0
19139.758973323453,-373.0
19139.759035820687,508.0
19139.759098317925,10.0
19139.759160815163,-588.0
19139.7592233124,-465.0
19139.759285809636,-543.0
19139.759348306874,-621.0
19139.759410804112,-536.0
19139.75947330135,-780.0
19139.759535798585,-1106.0
19139.759598295823,-1368.0
19139.75966079306,-1108.0
19139.7597232903,-854.0
19139.759785787533,-1057.0
19139.75984828477,-573.0
19139.75991078201,340.0
19139.759973279248,616.0
19139.760035776482,125.0
19139.76009827372,-220.0
19139.76016077096,-284.0
19139.760223268197,-126.0
19139.76028576543,307.0
19139.76034826267,485.0
19139.760410759907,884.0
19139.76047325714,915.0
19139.76053575438,404.0
19139.760598251618,153.0
19139.760660748856,560.0
19139.76072324609,738.0
19139.76078574333,813.0
19139.760848240567,702.0
19139.760910737805,205.0
19139.76097323504,-153.0
19139.761035732277,-423.0
19139.761098229515,-566.0
19139.761160726754,-437.0
19139.761223223988,-464.0
19139.761285721226,-449.0
19139.761348218464,-162.0
19139.761410715702,28.0
19139.761473212937,-87.0
19139.761535710175,-380.0
19139.761598207413,-766.0
19139.76166070465,-777.0
19139.761723201886,-313.0
19139.761785699124,157.0
19139.761848196362,115.0
19139.7619106936,-333.0
19139.761973190834,-987.0
19139.762035688073,-1332.0
19139.76209818531,-1266.0
19139.76216068255,-1414.0
19139.762223179783,-1782.0
19139.76228567702,-1922.0
19139.76234817426,-1612.0
19139.762410671494,-1115.0
19139.762473168732,-958.0
19139.76253566597,-1114.0
19139.762598163208,-868.0
19139.762660660443,-710.0
19139.76272315768,-712.0
19139.76278565492,-722.0
19139.762848152157,-740.0
19139.76291064939,-705.0
19139.76297314663,-591.0
19139.763035643868,-256.0
19139.763098141106,-159.0
19139.76316063834,-63.0
19139.76322313558,64.0
19139.763285632816,16.0
19139.763348130055,-7.0
19139.76341062729,-490.0
19139.763473124527,-937.0
19139.763535621765,-870.0
19139.763598119003,-736.0
19139.763660616238,-97.0
19139.763723113476,85.0
19139.763785610714,-379.0
19139.76384810795,-441.0
19139.763910605187,-527.0
19139.763973102425,-696.0
19139.764035599663,-618.0
19139.7640980969,-615.0
19139.764160594135,-675.0
19139.764223091373,-724.0
19139.76428558861,-1129.0
19139.764348085846,-1284.0
19139.764410583084,-1410.0
19139.764473080322,-1609.0
19139.76453557756,-1441.0
19139.764598074795,-1377.0
19139.764660572033,-1206.0
19139.76472306927,-802.0
19139.76478556651,-423.0
19139.764848063744,-52.0
19139.76491056098,47.0
19139.76497305822,-325.0
19139.765035555458,-274.0
19139.765098052692,-186.0
19139.76516054993,173.0
19139.76522304717,682.0
19139.765285544407,365.0
19139.76534804164,228.0
19139.76541053888,528.0
19139.765473036117,903.0
19139.765535533355,794.0
19139.76559803059,411.0
19139.765660527828,654.0
19139.765723025066,419.0
19139.7657855223,-5.0
19139.76584801954,166.0
19139.765910516777,222.0
19139.765973014015,422.0
19139.766035511253,755.0
19139.766098008487,794.0
19139.766160505726,744.0
19139.766223002964,705.0
19139.766285500198,1026.0
19139.766347997436,1025.0
19139.766410494674,847.0
19139.766472991912,835.0
19139.766535489147,1284.0
19139.766597986385,1674.0
19139.766660483623,1377.0
19139.76672298086,1460.0
19139.766785478096,1278.0
19139.766847975334,840.0
19139.766910472572,695.0
19139.76697296981,626.0
19139.767035467044,554.0
19139.767097964283,570.0
19139.76716046152,559.0
19139.76722295876,423.0
19139.767285455993,651.0
19139.76734795323,876.0
19139.76741045047,789.0
19139.767472947708,619.0
19139.767535444942,340.0
19139.76759794218,121.0
19139.76766043942,-305.0
19139.767722936653,-381.0
19139.76778543389,-520.0
19139.76784793113,-1187.0
19139.767910428367,-812.0
19139.7679729256,-120.0
19139.76803542284,-12.0
19139.768097920078,490.0
19139.768160417316,466.0
19139.76822291455,251.0
19139.76828541179,126.0
19139.768347909026,79.0
19139.768410406265,375.0
19139.7684729035,425.0
19139.768535400737,496.0
19139.768597897975,670.0
19139.768660395213,746.0
19139.768722892448,846.0
19139.768785389686,653.0
19139.768847886924,186.0
19139.768910384162,202.0
19139.768972881397,319.0
19139.769035378635,729.0
19139.769097875873,955.0
19139.76916037311,324.0
19139.769222870345,-91.0
19139.769285367584,-27.0
19139.76934786482,-217.0
19139.76941036206,-146.0
19139.769472859294,-92.0
19139.769535356532,-35.0
19139.76959785377,164.0
19139.769660351005,47.0
19139.769722848243,323.0
19139.76978534548,-87.0
19139.76984784272,-302.0
19139.769910339954,547.0
19139.76997283719,850.0
19139.77003533443,430.0
19139.770097831668,29.0
19139.770160328902,564.0
19139.77022282614,1086.0
19139.77028532338,950.0
19139.770347820617,472.0
19139.77041031785,-419.0
19139.77047281509,-736.0
19139.770535312327,-698.0
19139.770597809566,-876.0
19139.7706603068,-1249.0
19139.770722804038,-1236.0
19139.770785301276,-1048.0
19139.770847798514,-735.0
19139.77091029575,-364.0
19139.770972792987,144.0
19139.771035290225,-25.0
19139.77109778746,-581.0
19139.771160284698,-548.0
19139.771222781936,-377.0
19139.771285279174,-329.0
19139.771347776412,-789.0
19139.771410273646,-941.0
19139.771472770884,-625.0
19139.771535268123,-322.0
19139.771597765357,187.0
19139.771660262595,-313.0
19139.771722759833,-934.0
19139.77178525707,-485.0
19139.771847754306,215.0
19139.771910251544,779.0
19139.771972748782,387.0
19139.77203524602,59.0
19139.772097743255,91.0
19139.772160240493,474.0
19139.77222273773,870.0
19139.77228523497,349.0
19139.772347732203,-266.0
19139.77241022944,76.0
19139.77247272668,1014.0
19139.772535223918,881.0
19139.772597721152,924.0
19139.77266021839,1426.0
19139.77272271563,1318.0
19139.772785212866,1423.0
19139.7728477101,1291.0
19139.77291020734,535.0
19139.772972704577,-338.0
19139.77303520181,-214.0
19139.77309769905,646.0
19139.773160196288,949.0
19139.773222693526,505.0
19139.77328519076,236.0
19139.773347688,526.0
19139.773410185237,755.0
19139.773472682475,932.0
19139.77353517971,367.0
19139.773597676947,-228.0
19139.773660174185,-76.0
19139.773722671423,209.0
19139.773785168658,362.0
19139.773847665896,200.0
19139.773910163134,-42.0
19139.773972660372,-168.0
19139.774035157607,10.0
19139.774097654845,620.0
19139.774160152083,855.0
19139.77422264932,171.0
19139.774285146555,103.0
19139.774347643794,393.0
19139.77441014103,589.0
19139.77447263827,224.0
19139.774535135504,-57.0
19139.774597632742,491.0
19139.77466012998,508.0
19139.77472262722,308.0
19139.774785124453,69.0
19139.77484762169,-200.0
19139.77491011893,-18.0
19139.774972616164,446.0
19139.775035113402,414.0
19139.77509761064,-22.0
19139.775160107878,-137.0
19139.775222605113,32.0
19139.77528510235,46.0
19139.77534759959,-216.0
19139.775410096827,283.0
19139.77547259406,591.0
19139.7755350913,667.0
19139.775597588537,883.0
19139.775660085776,416.0
19139.77572258301,10.0
19139.775785080248,-38.0
19139.775847577486,-14.0
19139.775910074724,193.0
19139.77597257196,13.0
19139.776035069197,-9.0
19139.776097566435,200.0
19139.776160063673,44.0
19139.776222560908,129.0
19139.776285058146,383.0
19139.776347555384,575.0
19139.77641005262,462.0
19139.776472549856,357.0
19139.776535047095,168.0
19139.776597544333,-358.0
19139.77666004157,-775.0
19139.776722538805,-881.0
19139.776785036043,-834.0
19139.77684753328,-821.0
19139.776910030516,-659.0
19139.776972527754,-372.0
19139.777035024992,90.0
19139.77709752223,499.0
19139.777160019465,353.0
19139.777222516703,-252.0
19139.77728501394,-404.0
19139.77734751118,-142.0
19139.777410008413,-565.0
19139.77747250565,-1080.0
19139.77753500289,-963.0
19139.777597500128,-453.0
19139.777659997362,-372.0
19139.7777224946,-446.0
19139.77778499184,-35.0
19139.777847489077,178.0
19139.77790998631,430.0
19139.77797248355,412.0
19139.778034980787,11.0
19139.778097478025,201.0
19139.77815997526,742.0
19139.778222472498,489.0
19139.778284969736,447.0
19139.77834746697,1118.0
19139.77840996421,1396.0
19139.778472461447,1365.0
19139.778534958685,1229.0
19139.77859745592,451.0
19139.778659953157,74.0
19139.778722450395,379.0
19139.778784947634,774.0
19139.778847444868,385.0
19139.778909942106,87.0
19139.778972439344,533.0
19139.779034936582,486.0
19139.779097433817,359.0
19139.779159931055,398.0
19139.779222428293,424.0
19139.77928492553,356.0
19139.779347422766,365.0
19139.779409920004,418.0
19139.77947241724,499.0
19139.77953491448,417.0
19139.779597411714,571.0
19139.779659908952,881.0
19139.77972240619,1099.0
19139.77978490343,1197.0
19139.779847400663,689.0
19139.7799098979,706.0
19139.77997239514,673.0
19139.780034892377,564.0
19139.780097389612,740.0
19139.78015988685,349.0
19139.780222384088,457.0
19139.780284881323,1136.0
19139.78034737856,1151.0
19139.7804098758,909.0
19139.780472373037,457.0
19139.78053487027,13.0
19139.78059736751,-338.0
19139.780659864748,-586.0
19139.780722361986,44.0
19139.78078485922,155.0
19139.78084735646,-183.0
19139.780909853696,-167.0
19139.780972350934,114.0
19139.78103484817,392.0
19139.781097345407,327.0
19139.781159842645,46.0
19139.781222339883,-157.0
19139.781284837118,434.0
19139.781347334356,914.0
19139.781409831594,1111.0
19139.781472328832,639.0
19139.781534826066,745.0
19139.781597323305,1142.0
19139.781659820543,955.0
19139.781722317777,1025.0
19139.781784815015,849.0
19139.781847312253,819.0
19139.78190980949,1015.0
19139.78197230673,853.0
19139.782034803964,608.0
19139.782097301202,755.0
19139.78215979844,1160.0
19139.782222295675,1522.0
19139.782284792913,1624.0
19139.78234729015,889.0
19139.78240978739,429.0
19139.782472284624,630.0
19139.78253478186,378.0
19139.7825972791,206.0
19139.782659776338,397.0
19139.782722273572,414.0
19139.78278477081,2.0
19139.78284726805,-168.0
19139.782909765287,-315.0
19139.78297226252,-1025.0
19139.78303475976,-1175.0
19139.783097256997,-1196.0
19139.783159754235,-1535.0
19139.78322225147,-1564.0
19139.783284748708,-1695.0
19139.783347245946,-1822.0
19139.783409743184,-1493.0
19139.78347224042,-1277.0
19139.783534737657,-820.0
19139.783597234895,-436.0
19139.78365973213,-435.0
19139.783722229367,-81.0
19139.783784726606,-84.0
19139.783847223844,-345.0
19139.783909721078,-555.0
19139.783972218316,-201.0
19139.784034715554,520.0
19139.784097212792,223.0
19139.784159710027,-250.0
19139.784222207265,85.0
19139.784284704503,-91.0
19139.78434720174,-601.0
19139.784409698976,-880.0
19139.784472196214,-912.0
19139.784534693452,-64.0
19139.78459719069,98.0
19139.784659687924,-439.0
19139.784722185163,-785.0
19139.7847846824,-1213.0
19139.78484717964,-1233.0
19139.784909676873,-914.0
19139.78497217411,-768.0
19139.78503467135,-816.0
19139.785097168588,-288.0
19139.785159665822,345.0
19139.78522216306,351.0
19139.7852846603,-219.0
19139.785347157536,-601.0
19139.78540965477,-430.0
19139.78547215201,-206.0
19139.785534649247,-157.0
19139.78559714648,-675.0
19139.78565964372,-1038.0
19139.785722140958,-965.0
19139.785784638196,-815.0
19139.78584713543,-433.0
19139.78590963267,-292.0
19139.785972129906,-268.0
19139.786034627145,-209.0
19139.78609712438,130.0
19139.786159621617,265.0
19139.786222118855,-517.0
19139.786284616093,-1119.0
19139.786347113328,-1285.0
19139.786409610566,-822.0
19139.786472107804,35.0
19139.786534605042,20.0
19139.786597102277,-385.0
19139.786659599515,-349.0
19139.786722096753,372.0
19139.78678459399,1164.0
19139.786847091225,798.0
19139.786909588463,-176.0
19139.7869720857,-487.0
19139.787034582936,-240.0
19139.787097080174,-45.0
19139.787159577412,-109.0
19139.78722207465,-468.0
19139.78728457189,-656.0
19139.787347069123,-387.0
19139.78740956636,105.0
19139.7874720636,276.0
19139.787534560834,-202.0
19139.78759705807,-249.0
19139.78765955531,116.0
19139.787722052548,696.0
19139.787784549782,807.0
19139.78784704702,106.0
19139.78790954426,-87.0
19139.787972041497,-187.0
19139.78803453873,-71.0
19139.78809703597,53.0
19139.788159533207,-190.0
19139.788222030445,-202.0
19139.78828452768,-444.0
19139.788347024918,156.0
19139.788409522156,554.0
19139.788472019394,-97.0
19139.78853451663,-475.0
19139.788597013867,-67.0
19139.788659511105,275.0
19139.788722008343,296.0
19139.788784505577,209.0
19139.788847002816,-361.0
19139.788909500054,-707.0
19139.788971997288,-207.0
19139.789034494526,234.0
19139.789096991764,-110.0
19139.789159489002,-521.0
19139.78922198624,-322.0
19139.789284483475,-42.0
19139.789346980713,235.0
19139.78940947795,176.0
19139.789471975186,-386.0
19139.789534472424,-313.0
19139.789596969662,155.0
19139.7896594669,356.0
19139.789721964135,548.0
19139.789784461373,390.0
19139.78984695861,-39.0
19139.78990945585,-65.0
19139.789971953083,-450.0
19139.79003445032,-849.0
19139.79009694756,-834.0
19139.790159444798,-957.0
19139.790221942032,-569.0
19139.79028443927,-7.0
19139.79034693651,-149.0
19139.790409433746,-345.0
19139.79047193098,-321.0
19139.79053442822,-355.0
19139.790596925457,-271.0
19139.790659422695,-96.0
19139.79072191993,-418.0
19139.790784417168,-871.0
19139.790846914406,-360.0
19139.79090941164,-4.0
19139.79097190888,5.0
19139.791034406117,191.0
19139.791096903355,48.0
19139.79115940059,73.0
19139.791221897827,219.0
19139.791284395065,757.0
19139.791346892303,1082.0
19139.791409389538,749.0
19139.791471886776,700.0
19139.791534384014,772.0
19139.791596881252,1256.0
19139.791659378487,1074.0
19139.791721875725,702.0
19139.791784372963,862.0
19139.7918468702,835.0
19139.791909367435,904.0
19139.791971864674,1162.0
19139.79203436191,1127.0
19139.79209685915,740.0
19139.792159356384,231.0
19139.792221853622,132.0
19139.79228435086,68.0
19139.7923468481,-309.0
19139.792409345333,76.0
19139.79247184257,678.0
19139.79253433981,510.0
19139.792596837047,168.0
19139.79265933428,187.0
19139.79272183152,255.0
19139.792784328758,620.0
19139.792846825992,795.0
19139.79290932323,685.0
19139.79297182047,1043.0
19139.793034317707,744.0
19139.79309681494,508.0
19139.79315931218,614.0
19139.793221809417,831.0
19139.793284306656,1366.0
19139.79334680389,1510.0
19139.793409301128,1002.0
19139.793471798366,804.0
19139.793534295604,1131.0
19139.79359679284,902.0
19139.793659290077,624.0
19139.793721787315,557.0
19139.793784284553,302.0
19139.793846781788,356.0
19139.793909279026,619.0
19139.793971776264,619.0
19139.794034273502,235.0
19139.794096770736,212.0
19139.794159267974,92.0
19139.794221765213,93.0
19139.794284262447,546.0
19139.794346759685,838.0
19139.794409256923,722.0
19139.79447175416,-254.0
19139.7945342514,-610.0
19139.794596748634,-43.0
19139.794659245872,177.0
19139.79472174311,-162.0
19139.794784240345,-185.0
19139.794846737583,-36.0
19139.79490923482,107.0
19139.79497173206,629.0
19139.795034229293,176.0
19139.79509672653,49.0
19139.79515922377,519.0
19139.795221721008,409.0
19139.795284218242,210.0
19139.79534671548,-418.0
19139.79540921272,-834.0
19139.795471709956,-112.0
19139.79553420719,415.0
19139.79559670443,397.0
19139.795659201667,327.0
19139.795721698905,551.0
19139.79578419614,530.0
19139.795846693378,449.0
19139.795909190616,375.0
19139.795971687854,78.0
19139.79603418509,-431.0
19139.796096682327,-1084.0
19139.796159179565,-520.0
19139.7962216768,-337.0
19139.796284174037,-608.0
19139.796346671275,-710.0
19139.796409168513,-805.0
19139.796471665748,-304.0
19139.796534162986,-237.0
19139.796596660224,-363.0
19139.796659157462,-510.0
19139.796721654697,-143.0
19139.796784151935,609.0
19139.796846649173,590.0
19139.79690914641,457.0
19139.796971643646,-69.0
19139.797034140884,-726.0
19139.79709663812,-251.0
19139.79715913536,498.0
19139.797221632594,412.0
19139.797284129832,-225.0
19139.79734662707,-279.0
19139.79740912431,495.0
19139.797471621543,914.0
19139.79753411878,282.0
19139.79759661602,-240.0
19139.797659113257,-179.0
19139.797721610492,403.0
19139.79778410773,740.0
19139.797846604968,134.0
19139.797909102206,-122.0
19139.79797159944,-47.0
19139.79803409668,2.0
19139.798096593917,463.0
19139.79815909115,1031.0
19139.79822158839,838.0
19139.798284085628,-1.0
19139.798346582866,-151.0
19139.7984090801,302.0
19139.79847157734,288.0
19139.798534074576,-501.0
19139.798596571814,-455.0
19139.79865906905,270.0
19139.798721566287,811.0
19139.798784063525,1280.0
19139.798846560763,577.0
19139.798909057998,-262.0
19139.798971555236,-313.0
19139.799034052474,624.0
19139.799096549712,951.0
19139.799159046946,282.0
19139.799221544185,-381.0
19139.799284041423,-835.0
19139.79934653866,-767.0
19139.799409035895,-391.0
19139.799471533133,-681.0
19139.79953403037,-1209.0
19139.799596527606,-1235.0
19139.799659024844,-625.0
19139.799721522082,-151.0
19139.79978401932,-443.0
19139.79984651656,-967.0
19139.799909013793,-1315.0
19139.79997151103,-75.0
19139.80003400827,1141.0
19139.800096505503,427.0
19139.80015900274,-162.0
19139.80022149998,-3.0
19139.800283997218,637.0
19139.800346494452,1180.0
19139.80040899169,941.0
19139.80047148893,159.0
19139.800533986167,-196.0
19139.8005964834,205.0
19139.80065898064,658.0
19139.800721477877,511.0
19139.800783975115,-284.0
19139.80084647235,-448.0
19139.800908969588,390.0
19139.800971466826,585.0
19139.801033964064,260.0
19139.8010964613,273.0
19139.801158958537,660.0
19139.801221455775,915.0
19139.801283953013,1031.0
19139.801346450247,563.0
19139.801408947485,-324.0
19139.801471444724,-968.0
19139.801533941958,-1151.0
19139.801596439196,-975.0
19139.801658936434,-993.0
19139.801721433672,-1605.0
19139.801783930907,-2185.0
19139.801846428145,-1585.0
19139.801908925383,-1065.0
19139.80197142262,-1288.0
19139.802033919856,-1445.0
19139.802096417094,-1407.0
19139.80215891433,-1153.0
19139.80222141157,-727.0
19139.802283908804,-774.0
19139.802346406042,-1268.0
19139.80240890328,-1176.0
19139.80247140052,-615.0
19139.802533897753,280.0
19139.80259639499,767.0
19139.80265889223,57.0
19139.802721389467,-308.0
19139.802783886702,-381.0
19139.80284638394,133.0
19139.802908881178,404.0
19139.802971378416,136.0
19139.80303387565,-26.0
19139.80309637289,-271.0
19139.803158870127,-276.0
19139.803221367365,222.0
19139.8032838646,287.0
19139.803346361838,-297.0
19139.803408859076,-208.0
19139.80347135631,351.0
19139.80353385355,393.0
19139.803596350786,-29.0
19139.803658848024,-697.0
19139.80372134526,-1123.0
19139.803783842497,-989.0
19139.803846339735,-765.0
19139.803908836973,-472.0
19139.803971334208,54.0
19139.804033831446,295.0
19139.804096328684,-59.0
19139.804158825922,-185.0
19139.804221323157,346.0
19139.804283820395,744.0
19139.804346317633,953.0
19139.80440881487,852.0
19139.804471312105,1094.0
19139.804533809343,1419.0
19139.80459630658,980.0
19139.80465880382,587.0
19139.804721301054,252.0
19139.804783798292,77.0
19139.80484629553,-39.0
19139.804908792765,-205.0
19139.804971290003,48.0
19139.80503378724,451.0
19139.80509628448,454.0
19139.805158781717,2.0
19139.80522127895,-140.0
19139.80528377619,-162.0
19139.805346273428,-492.0
19139.805408770662,-176.0
19139.8054712679,-345.0
19139.80553376514,-647.0
19139.805596262377,-315.0
19139.80565875961,-676.0
19139.80572125685,-879.0
19139.805783754087,-244.0
19139.805846251325,552.0
19139.80590874856,753.0
19139.805971245798,550.0
19139.806033743036,555.0
19139.806096240274,1151.0
19139.80615873751,1376.0
19139.806221234747,894.0
19139.806283731985,637.0
19139.806346229223,703.0
19139.806408726457,1158.0
19139.806471223696,1029.0
19139.806533720934,490.0
19139.80659621817,246.0
19139.806658715406,165.0
19139.806721212644,116.0
19139.806783709882,189.0
19139.806846207117,286.0
19139.806908704355,193.0
19139.806971201593,133.0
19139.80703369883,113.0
19139.807096196066,77.0
19139.807158693304,-199.0
19139.807221190542,-676.0
19139.80728368778,-796.0
19139.807346185014,-667.0
19139.807408682253,-80.0
19139.80747117949,-478.0
19139.80753367673,-1462.0
19139.807596173963,-1028.0
19139.8076586712,-473.0
19139.80772116844,172.0
19139.807783665678,510.0
19139.807846162912,329.0
19139.80790866015,243.0
19139.80797115739,169.0
19139.808033654626,459.0
19139.80809615186,1055.0
19139.8081586491,1012.0
19139.808221146337,773.0
19139.808283643575,989.0
19139.80834614081,660.0
19139.808408638048,383.0
19139.808471135286,-7.0
19139.808533632524,61.0
19139.80859612976,453.0
19139.808658626996,-33.0
19139.808721124235,-306.0
19139.80878362147,-739.0
19139.808846118707,-1093.0
19139.808908615945,-1078.0
19139.808971113183,-856.0
19139.809033610418,-932.0
19139.809096107656,-1334.0
19139.809158604894,-789.0
19139.809221102132,-199.0
19139.809283599367,14.0
19139.809346096605,67.0
19139.809408593843,235.0
19139.80947109108,669.0
19139.809533588315,792.0
19139.809596085553,1410.0
19139.80965858279,2303.0
19139.80972108003,1946.0
19139.809783577264,1187.0
19139.809846074502,686.0
19139.80990857174,564.0
19139.80997106898,912.0
19139.810033566213,761.0
19139.81009606345,695.0
19139.81015856069,506.0
19139.810221057924,507.0
19139.81028355516,1051.0
19139.8103460524,859.0
19139.810408549638,-76.0
19139.810471046876,-442.0
19139.81053354411,-382.0
19139.81059604135,-66.0
19139.810658538587,197.0
19139.81072103582,164.0
19139.81078353306,137.0
19139.810846030297,113.0
19139.810908527536,8.0
19139.81097102477,-343.0
19139.811033522008,-537.0
19139.811096019246,-354.0
19139.811158516484,44.0
19139.81122101372,-216.0
19139.811283510957,-236.0
19139.811346008195,-199.0
19139.811408505433,-830.0
19139.811471002668,-649.0
19139.811533499906,-679.0
19139.811595997144,-975.0
19139.811658494382,-1119.0
19139.811720991616,-1313.0
19139.811783488854,-1378.0
19139.811845986093,-1346.0
19139.81190848333,-928.0
19139.811970980565,-973.0
19139.812033477803,-1086.0
19139.81209597504,-655.0
19139.812158472276,-465.0
19139.812220969514,-646.0
19139.812283466752,-668.0
19139.81234596399,-344.0
19139.81240846123,2.0
19139.812470958463,98.0
19139.8125334557,-49.0
19139.81259595294,112.0
19139.812658450173,544.0
19139.81272094741,727.0
19139.81278344465,20.0
19139.812845941888,-857.0
19139.812908439122,-636.0
19139.81297093636,298.0
19139.8130334336,453.0
19139.813095930836,-265.0
19139.81315842807,-569.0
19139.81322092531,-780.0
19139.813283422547,-454.0
19139.813345919785,-646.0
19139.81340841702,-1273.0
19139.813470914258,-910.0
19139.813533411496,-638.0
19139.813595908734,-98.0
19139.81365840597,-5.0
19139.813720903207,-788.0
19139.813783400445,-1223.0
19139.813845897683,-1283.0
19139.813908394917,-1162.0
19139.813970892155,-955.0
19139.814033389393,-490.0
19139.814095886628,-532.0
19139.814158383866,-825.0
19139.814220881104,-763.0
19139.814283378342,-636.0
19139.814345875577,-543.0
19139.814408372815,-971.0
19139.814470870053,-1188.0
19139.81453336729,-940.0
19139.814595864525,-649.0
19139.814658361764,-1103.0
19139.814720859,-1666.0
19139.81478335624,-1145.0
19139.814845853474,-559.0
19139.814908350712,128.0
19139.81497084795,722.0
19139.81503334519,132.0
19139.815095842423,-438.0
19139.81515833966,-384.0
19139.8152208369,-179.0
19139.815283334137,-562.0
19139.81534583137,-767.0
19139.81540832861,-213.0
19139.815470825848,317.0
19139.815533323086,950.0
19139.81559582032,790.0
19139.81565831756,498.0
19139.815720814797,546.0
19139.815783312035,965.0
19139.81584580927,990.0
19139.815908306507,687.0
19139.815970803746,600.0
19139.81603330098,491.0
19139.816095798218,678.0
19139.816158295456,903.0
19139.816220792694,548.0
19139.81628328993,412.0
19139.816345787167,576.0
19139.816408284405,392.0
19139.816470781643,443.0
19139.816533278878,365.0
19139.816595776116,556.0
19139.816658273354,409.0
19139.816720770592,220.0
19139.816783267826,807.0
19139.816845765064,875.0
19139.816908262303,583.0
19139.81697075954,415.0
19139.817033256775,830.0
19139.817095754013,808.0
19139.81715825125,-79.0
19139.81722074849,-623.0
19139.817283245724,-204.0
19139.817345742962,848.0
19139.8174082402,1076.0
19139.817470737435,568.0
19139.817533234673,665.0
19139.81759573191,1071.0
19139.81765822915,1046.0
19139.817720726387,798.0
19139.81778322362,507.0
19139.81784572086,376.0
19139.817908218098,279.0
19139.817970715332,49.0
19139.81803321257,-42.0
19139.81809570981,-374.0
19139.818158207047,-160.0
19139.81822070428,-136.0
19139.81828320152,-292.0
19139.818345698757,202.0
19139.818408195995,411.0
19139.81847069323,447.0
19139.818533190468,349.0
19139.818595687706,-297.0
19139.818658184944,-373.0
19139.81872068218,657.0
19139.818783179417,1189.0
19139.818845676655,904.0
19139.818908173893,255.0
19139.818970671127,-469.0
19139.819033168365,-396.0
19139.819095665604,-282.0
19139.81915816284,-855.0
19139.819220660076,-807.0
19139.819283157314,-735.0
19139.819345654552,-780.0
19139.819408151787,-249.0
19139.819470649025,70.0
19139.819533146263,-214.0
19139.8195956435,-430.0
19139.819658140736,-826.0
19139.819720637974,-955.0
19139.81978313521,-667.0
19139.81984563245,-1190.0
19139.819908129684,-1607.0
19139.819970626922,-929.0
19139.82003312416,-327.0
19139.8200956214,-464.0
19139.820158118633,-604.0
19139.82022061587,-253.0
19139.82028311311,-88.0
19139.820345610347,-223.0
19139.820408107582,-474.0
19139.82047060482,-974.0
19139.820533102058,-757.0
19139.820595599296,-559.0
19139.82065809653,-1026.0
19139.82072059377,-478.0
19139.820783091007,165.0
19139.820845588245,-2.0
19139.82090808548,205.0
19139.820970582718,456.0
19139.821033079956,293.0
19139.821095577194,-239.0
19139.82115807443,-439.0
19139.821220571666,-177.0
19139.821283068904,-120.0
19139.82134556614,-348.0
19139.821408063377,-254.0
19139.821470560615,204.0
19139.821533057853,-298.0
19139.821595555088,-743.0
19139.821658052326,-767.0
19139.821720549564,-398.0
19139.821783046802,120.0
19139.821845544036,-300.0
19139.821908041275,-497.0
19139.821970538513,-289.0
19139.82203303575,-287.0
19139.822095532985,-886.0
19139.822158030223,-1827.0
19139.82222052746,-1476.0
19139.8222830247,-716.0
19139.822345521934,-610.0
19139.822408019172,-612.0
19139.82247051641,-618.0
19139.82253301365,-1097.0
19139.822595510883,-1310.0
19139.82265800812,-777.0
19139.82272050536,-572.0
19139.822783002593,-1204.0
19139.82284549983,-1724.0
19139.82290799707,-1131.0
19139.822970494308,-473.0
19139.823032991546,-793.0
19139.82309548878,-1690.0
19139.82315798602,-2219.0
19139.823220483257,-2344.0
19139.82328298049,-1994.0
19139.82334547773,-1111.0
19139.823407974967,-1044.0
19139.823470472205,-1637.0
19139.82353296944,-1671.0
19139.823595466678,-1428.0
19139.823657963916,-1232.0
19139.823720461154,-1707.0
19139.82378295839,-2332.0
19139.823845455627,-2066.0
19139.823907952865,-934.0
19139.823970450103,-492.0
19139.824032947337,-1168.0
19139.824095444576,-1134.0
19139.824157941814,-761.0
19139.82422043905,-704.0
19139.824282936286,-815.0
19139.824345433524,-978.0
19139.824407930762,-1605.0
19139.824470428,-1563.0
19139.824532925235,-1207.0
19139.824595422473,-1300.0
19139.82465791971,-690.0
19139.824720416946,-701.0
19139.824782914184,-773.0
19139.824845411422,-28.0
19139.82490790866,301.0
19139.824970405894,571.0
19139.825032903133,726.0
19139.82509540037,897.0
19139.82515789761,802.0
19139.825220394843,1104.0
19139.82528289208,1301.0
19139.82534538932,876.0
19139.825407886558,662.0
19139.825470383792,1.0
19139.82553288103,-950.0
19139.82559537827,-962.0
19139.825657875506,-47.0
19139.82572037274,-46.0
19139.82578286998,-826.0
19139.825845367217,-900.0
19139.825907864455,-362.0
19139.82597036169,-173.0
19139.826032858928,-825.0
19139.826095356166,-1268.0
19139.826157853404,-999.0
19139.82622035064,-1136.0
19139.826282847876,-1103.0
19139.826345345115,-829.0
19139.826407842353,-997.0
19139.826470339587,-857.0
19139.826532836825,-548.0
19139.826595334063,-402.0
19139.826657831298,-468.0
19139.826720328536,-877.0
19139.826782825774,-630.0
19139.826845323012,296.0
19139.826907820247,605.0
19139.826970317485,-102.0
19139.827032814723,-340.0
19139.82709531196,159.0
19139.827157809195,578.0
19139.827220306433,564.0
19139.82728280367,179.0
19139.82734530091,67.0
19139.827407798144,361.0
19139.827470295382,738.0
19139.82753279262,340.0
19139.82759528986,70.0
19139.827657787093,105.0
19139.82772028433,-284.0
19139.82778278157,-469.0
19139.827845278807,-647.0
19139.82790777604,-442.0
19139.82797027328,-428.0
19139.828032770518,-546.0
19139.828095267752,-320.0
19139.82815776499,-124.0
19139.82822026223,16.0
19139.828282759467,286.0
19139.828345256705,573.0
19139.82840775394,222.0
19139.828470251177,-344.0
19139.828532748415,-371.0
19139.82859524565,-259.0
19139.828657742888,-117.0
19139.828720240126,229.0
19139.828782737364,84.0
19139.8288452346,137.0
19139.828907731837,710.0
19139.828970229075,1117.0
19139.829032726313,967.0
19139.829095223547,785.0
19139.829157720786,505.0
19139.829220218024,657.0
19139.82928271526,1418.0
19139.829345212496,1464.0
19139.829407709734,1061.0
19139.829470206972,1193.0
19139.82953270421,1266.0
19139.829595201445,1656.0
19139.829657698683,1242.0
19139.82972019592,869.0
19139.82978269316,1827.0
19139.829845190394,1478.0
19139.829907687632,715.0
19139.82997018487,-9.0
19139.830032682105,-163.0
19139.830095179343,253.0
19139.83015767658,331.0
19139.83022017382,107.0
19139.830282671053,-237.0
19139.83034516829,-579.0
19139.83040766553,-226.0
19139.830470162768,472.0
19139.830532660002,-99.0
19139.83059515724,-717.0
19139.83065765448,-426.0
19139.830720151716,5.0
19139.83078264895,102.0
19139.83084514619,-96.0
19139.830907643427,-750.0
19139.830970140665,-943.0
19139.8310326379,-572.0
19139.831095135138,-321.0
19139.831157632376,-373.0
19139.831220129614,-750.0
19139.83128262685,-964.0
19139.831345124087,-1310.0
19139.831407621325,-1799.0
19139.831470118563,-2270.0
19139.831532615797,-2670.0
19139.831595113035,-2666.0
19139.831657610273,-2155.0
19139.83172010751,-2226.0
19139.831782604746,-2292.0
19139.831845101984,-2313.0
19139.831907599222,-2695.0
19139.831970096457,-1933.0
19139.832032593695,-1311.0
19139.832095090933,-1149.0
19139.83215758817,-541.0
19139.832220085405,-747.0
19139.832282582644,-1198.0
19139.83234507988,-634.0
19139.83240757712,-474.0
19139.832470074354,-534.0
19139.832532571592,-66.0
19139.83259506883,-204.0
19139.83265756607,198.0
19139.832720063303,75.0
19139.83278256054,-601.0
19139.83284505778,-425.0
19139.832907555017,-119.0
19139.83297005225,102.0
19139.83303254949,111.0
19139.833095046728,-401.0
19139.833157543966,-962.0
19139.8332200412,-508.0
19139.83328253844,323.0
19139.833345035677,385.0
19139.83340753291,82.0
19139.83347003015,237.0
19139.833532527387,246.0
19139.833595024626,763.0
19139.833657521864,730.0
19139.833720019098,234.0
19139.833782516336,233.0
19139.833845013574,-58.0
19139.83390751081,179.0
19139.833970008047,395.0
19139.834032505285,360.0
19139.834095002523,376.0
19139.834157499758,473.0
19139.834219996996,231.0
19139.834282494234,3.0
19139.834344991472,-73.0
19139.834407488706,-147.0
19139.834469985944,561.0
19139.834532483183,534.0
19139.83459498042,-144.0
19139.834657477655,-661.0
19139.834719974893,-606.0
19139.83478247213,-144.0
19139.83484496937,311.0
19139.834907466604,643.0
19139.834969963842,202.0
19139.83503246108,353.0
19139.83509495832,751.0
19139.835157455553,640.0
19139.83521995279,431.0
19139.83528245003,-88.0
19139.835344947263,-38.0
19139.8354074445,376.0
19139.83546994174,790.0
19139.835532438978,1043.0
19139.835594936216,894.0
19139.83565743345,672.0
19139.83571993069,282.0
19139.835782427926,250.0
19139.83584492516,714.0
19139.8359074224,1035.0
19139.835969919637,563.0
19139.836032416875,324.0
19139.83609491411,593.0
19139.836157411348,838.0
19139.836219908586,300.0
19139.836282405824,-52.0
19139.83634490306,-176.0
19139.836407400297,-765.0
19139.836469897535,-712.0
19139.836532394773,-823.0
19139.836594892007,-969.0
19139.836657389245,-1252.0
19139.836719886483,-1174.0
19139.83678238372,-810.0
19139.836844880956,-685.0
19139.836907378194,-545.0
19139.836969875432,-368.0
19139.83703237267,-132.0
19139.837094869905,-231.0
19139.837157367143,-414.0
19139.83721986438,15.0
19139.837282361616,-79.0
19139.837344858854,-459.0
19139.83740735609,-619.0
19139.83746985333,-478.0
19139.837532350564,-205.0
19139.837594847802,-446.0
19139.83765734504,-522.0
19139.83771984228,-655.0
19139.837782339513,-1295.0
19139.83784483675,-1514.0
19139.83790733399,-813.0
19139.837969831227,-1120.0
19139.838032328462,-2136.0
19139.8380948257,-1858.0
19139.838157322938,-1077.0
19139.838219820176,-677.0
19139.83828231741,-929.0
19139.83834481465,-1450.0
19139.838407311887,-1762.0
19139.838469809125,-1110.0
19139.83853230636,-620.0
19139.838594803598,-1236.0
19139.838657300836,-1524.0
19139.838719798074,-1328.0
19139.83878229531,-1109.0
19139.838844792546,-780.0
19139.838907289784,-1331.0
19139.838969787023,-2126.0
19139.839032284257,-1767.0
19139.839094781495,-1270.0
19139.839157278733,-1143.0
19139.839219775968,-1200.0
19139.839282273206,-1411.0
19139.839344770444,-1042.0
19139.839407267682,-440.0
19139.839469764916,-1199.0
19139.839532262155,-1694.0
19139.839594759393,-1658.0
19139.83965725663,-1188.0
19139.839719753865,-586.0
19139.839782251103,-848.0
19139.83984474834,-774.0
19139.83990724558,-500.0
19139.839969742814,-460.0
19139.840032240052,-751.0
19139.84009473729,-1025.0
19139.84015723453,-1085.0
19139.840219731763,-879.0
19139.840282229,-657.0
19139.84034472624,-1169.0
19139.840407223477,-1484.0
19139.84046972071,-701.0
19139.84053221795,270.0
19139.840594715188,9.0
19139.840657212422,-662.0
19139.84071970966,-290.0
19139.8407822069,-149.0
19139.840844704137,149.0
19139.840907201375,95.0
19139.84096969861,-698.0
19139.841032195847,-513.0
19139.841094693085,-398.0
19139.84115719032,-442.0
19139.841219687558,-38.0
19139.841282184796,-240.0
19139.841344682034,-428.0
19139.84140717927,-303.0
19139.841469676507,-246.0
19139.841532173745,212.0
19139.841594670983,1040.0
19139.841657168217,780.0
19139.841719665455,519.0
19139.841782162694,276.0
19139.84184465993,-173.0
19139.841907157166,-340.0
19139.841969654404,-667.0
19139.842032151642,39.0
19139.84209464888,377.0
19139.842157146115,-102.0
19139.842219643353,-76.0
19139.84228214059,-100.0
19139.84234463783,197.0
19139.842407135064,111.0
19139.8424696323,-67.0
19139.84253212954,-366.0
19139.842594626774,-776.0
19139.842657124012,-38.0
19139.84271962125,633.0
19139.84278211849,122.0
19139.842844615723,-472.0
19139.84290711296,-344.0
19139.8429696102,54.0
19139.843032107437,117.0
19139.843094604672,-349.0
19139.84315710191,-47.0
19139.843219599148,664.0
19139.843282096386,191.0
19139.84334459362,-380.0
19139.84340709086,-173.0
19139.843469588097,401.0
19139.843532085335,454.0
19139.84359458257,440.0
19139.843657079808,287.0
19139.843719577046,262.0
19139.843782074284,408.0
19139.84384457152,260.0
19139.843907068756,-213.0
19139.843969565994,-380.0
19139.844032063233,320.0
19139.844094560467,422.0
19139.844157057705,-101.0
19139.844219554943,-458.0
19139.84428205218,-724.0
19139.844344549416,-212.0
19139.844407046654,268.0
19139.844469543892,90.0
19139.844532041127,-25.0
19139.844594538365,258.0
19139.844657035603,505.0
19139.84471953284,90.0
19139.844782030075,-397.0
19139.844844527313,-405.0
19139.84490702455,269.0
19139.84496952179,873.0
19139.845032019024,475.0
19139.845094516262,-47.0
19139.8451570135,-410.0
19139.84521951074,-464.0
19139.845282007973,133.0
19139.84534450521,97.0
19139.84540700245,-885.0
19139.845469499687,-1156.0
19139.84553199692,-681.0
19139.84559449416,-453.0
19139.845656991398,-708.0
19139.845719488636,-1211.0
19139.84578198587,-967.0
19139.84584448311,-632.0
19139.845906980347,-556.0
19139.84596947758,-724.0
19139.84603197482,-1244.0
19139.846094472057,-1767.0
19139.846156969295,-1483.0
19139.846219466534,-677.0
19139.846281963768,-520.0
19139.846344461006,-623.0
19139.846406958244,-1194.0
19139.84646945548,-1520.0
19139.846531952717,-929.0
19139.846594449955,-1007.0
19139.846656947193,-1162.0
19139.846719444427,-870.0
19139.846781941666,-774.0
19139.846844438904,-601.0
19139.84690693614,-587.0
19139.846969433376,-563.0
19139.847031930614,-309.0
19139.847094427852,-604.0
19139.84715692509,-802.0
19139.847219422325,-354.0
19139.847281919563,-609.0
19139.8473444168,-1549.0
19139.84740691404,-1923.0
19139.847469411274,-1061.0
19139.847531908512,-796.0
19139.84759440575,-484.0
19139.847656902988,-477.0
19139.847719400223,-1721.0
19139.84778189746,-1587.0
19139.8478443947,-966.0
19139.847906891933,-1316.0
19139.84796938917,-1755.0
19139.84803188641,-1746.0
19139.848094383648,-1399.0
19139.848156880882,-1527.0
19139.84821937812,-1980.0
19139.84828187536,-2006.0
19139.848344372596,-1436.0
19139.84840686983,-997.0
19139.84846936707,-1139.0
19139.848531864307,-1254.0
19139.848594361545,-1206.0
19139.84865685878,-841.0
19139.848719356018,-841.0
19139.848781853256,-880.0
19139.848844350494,-779.0
19139.84890684773,-926.0
19139.848969344966,-497.0
19139.849031842205,-316.0
19139.849094339443,-129.0
19139.849156836677,-226.0
19139.849219333915,-505.0
19139.849281831153,-211.0
19139.84934432839,-523.0
19139.849406825626,-939.0
19139.849469322864,-620.0
19139.849531820102,-670.0
19139.84959431734,-1336.0
19139.849656814575,-1476.0
19139.849719311813,-1003.0
19139.84978180905,-824.0
19139.849844306285,-244.0
19139.849906803523,305.0
19139.84996930076,-45.0
19139.850031798,54.0
19139.850094295234,594.0
19139.850156792472,479.0
19139.85021928971,169.0
19139.85028178695,99.0
19139.850344284183,115.0
19139.85040678142,379.0
19139.85046927866,847.0
19139.850531775897,443.0
19139.85059427313,131.0
19139.85065677037,557.0
19139.850719267608,894.0
19139.850781764846,1187.0
19139.85084426208,470.0
19139.85090675932,138.0
19139.850969256557,415.0
19139.851031753795,36.0
19139.85109425103,-124.0
19139.851156748267,-387.0
19139.851219245505,-318.0
19139.85128174274,65.0
19139.851344239978,573.0
19139.851406737216,1030.0
19139.851469234454,910.0
19139.851531731692,553.0
19139.851594228927,649.0
19139.851656726165,1142.0
19139.851719223403,1556.0
19139.851781720638,909.0
19139.851844217876,549.0
19139.851906715114,1566.0
19139.851969212352,2221.0
19139.852031709586,1692.0
19139.852094206824,635.0
19139.852156704063,831.0
19139.8522192013,1351.0
19139.852281698535,1137.0
19139.852344195773,1056.0
19139.85240669301,576.0
19139.85246919025,25.0
19139.852531687484,510.0
19139.852594184722,574.0
19139.85265668196,-445.0
19139.852719179198,-1482.0
19139.852781676433,-2041.0
19139.85284417367,-1329.0
19139.85290667091,-403.0
19139.852969168147,-524.0
19139.85303166538,-1038.0
19139.85309416262,-1409.0
19139.853156659858,-1042.0
19139.853219157092,-658.0
19139.85328165433,-1475.0
19139.85334415157,-1728.0
19139.853406648806,-1586.0
19139.85346914604,-1266.0
19139.85353164328,-566.0
19139.853594140517,-1009.0
19139.853656637755,-1614.0
19139.85371913499,-994.0
19139.853781632228,-750.0
19139.853844129466,-915.0
19139.853906626704,-1159.0
19139.85396912394,-1854.0
19139.854031621177,-1835.0
19139.854094118415,-1311.0
19139.854156615653,-941.0
19139.854219112887,-827.0
19139.854281610125,-858.0
19139.854344107363,-1098.0
19139.8544066046,-1049.0
19139.854469101836,-731.0
19139.854531599074,-819.0
19139.854594096312,-883.0
19139.85465659355,-585.0
19139.854719090785,-237.0
19139.854781588023,-634.0
19139.85484408526,-376.0
19139.8549065825,403.0
19139.854969079734,447.0
19139.85503157697,548.0
19139.85509407421,845.0
19139.855156571444,625.0
19139.855219068682,266.0
19139.85528156592,-70.0
19139.85534406316,-448.0
19139.855406560393,-695.0
19139.85546905763,-738.0
19139.85553155487,-842.0
19139.855594052107,-1091.0
19139.85565654934,-928.0
19139.85571904658,-631.0
19139.855781543818,-776.0
19139.855844041056,-652.0
19139.85590653829,-763.0
19139.85596903553,-703.0
19139.856031532767,221.0
19139.856094030005,1143.0
19139.85615652724,907.0
19139.856219024477,-64.0
19139.856281521716,-337.0
19139.856344018954,188.0
19139.856406516188,860.0
19139.856469013426,632.0
19139.856531510664,16.0
19139.8565940079,466.0
19139.856656505137,1280.0
19139.856719002375,1646.0
19139.856781499613,1000.0
19139.85684399685,-186.0
19139.856906494086,342.0
19139.856968991324,1244.0
19139.857031488562,1290.0
19139.857093985796,153.0
19139.857156483034,-538.0
19139.857218980273,-61.0
19139.85728147751,-171.0
19139.857343974745,-16.0
19139.857406471983,18.0
19139.85746896922,-589.0
19139.85753146646,-101.0
19139.857593963694,-196.0
19139.857656460932,-930.0
19139.85771895817,-809.0
19139.85778145541,-808.0
19139.857843952643,-458.0
19139.85790644988,16.0
19139.85796894712,287.0
19139.858031444357,-252.0
19139.85809394159,-590.0
19139.85815643883,24.0
19139.858218936068,445.0
19139.858281433306,420.0
19139.85834393054,277.0
19139.85840642778,436.0
19139.858468925016,528.0
19139.85853142225,-129.0
19139.85859391949,-822.0
19139.858656416727,-1335.0
19139.858718913965,-1355.0
19139.858781411203,-1277.0
19139.858843908438,-1456.0
19139.858906405676,-1366.0
19139.858968902914,-1817.0
19139.85903140015,-2292.0
19139.859093897387,-1689.0
19139.859156394625,-1303.0
19139.859218891863,-1491.0
19139.859281389097,-1295.0
19139.859343886335,-1041.0
19139.859406383574,-957.0
19139.85946888081,-886.0
19139.859531378046,-785.0
19139.859593875284,-786.0
19139.859656372522,-1021.0
19139.85971886976,-1553.0
19139.859781366995,-1888.0
19139.859843864233,-902.0
19139.85990636147,-94.0
19139.85996885871,-1057.0
19139.860031355944,-1819.0
19139.86009385318,-1340.0
19139.86015635042,-640.0
19139.860218847658,-788.0
19139.860281344892,-1429.0
19139.86034384213,-1762.0
19139.86040633937,-1514.0
19139.860468836603,-676.0
19139.86053133384,-382.0
19139.86059383108,-1064.0
19139.860656328317,-1377.0
19139.860718825552,-680.0
19139.86078132279,49.0
19139.860843820028,342.0
19139.860906317266,-104.0
19139.8609688145,-751.0
19139.86103131174,-802.0
19139.861093808977,-356.0
19139.861156306215,95.0
19139.86121880345,-282.0
19139.861281300688,-1134.0
19139.861343797926,-1211.0
19139.861406295164,-605.0
19139.8614687924,-85.0
19139.861531289636,-260.0
19139.861593786874,-1224.0
19139.861656284113,-1146.0
19139.861718781347,-233.0
19139.861781278585,-126.0
19139.861843775823,-323.0
19139.86190627306,-499.0
19139.861968770296,-646.0
19139.862031267534,-59.0
19139.862093764772,626.0
19139.86215626201,101.0
19139.862218759245,-683.0
19139.862281256483,-1178.0
19139.86234375372,-1216.0
19139.862406250955,-797.0
19139.862468748193,-1059.0
19139.86253124543,-1811.0
19139.86259374267,-2257.0
19139.862656239904,-2378.0
19139.862718737142,-2423.0
19139.86278123438,-1811.0
19139.86284373162,-1720.0
19139.862906228853,-2217.0
19139.86296872609,-2180.0
19139.86303122333,-1366.0
19139.863093720567,-171.0
19139.8631562178,-369.0
19139.86321871504,-1279.0
19139.863281212278,-1459.0
19139.863343709516,-979.0
19139.86340620675,94.0
19139.86346870399,853.0
19139.863531201227,219.0
19139.863593698465,-372.0
19139.8636561957,325.0
19139.863718692937,860.0
19139.863781190175,-56.0
19139.86384368741,-743.0
19139.863906184648,-522.0
19139.863968681886,-468.0
19139.864031179124,-169.0
19139.864093676362,-346.0
19139.864156173597,-878.0
19139.864218670835,-1295.0
19139.864281168073,-1069.0
19139.864343665307,-502.0
19139.864406162545,101.0
19139.864468659784,-244.0
19139.86453115702,-1051.0
19139.864593654256,-368.0
19139.864656151494,-133.0
19139.864718648732,-270.0
19139.86478114597,-379.0
19139.864843643205,-787.0
19139.864906140443,-430.0
19139.86496863768,410.0
19139.86503113492,881.0
19139.865093632154,213.0
19139.865156129392,-334.0
19139.86521862663,-220.0
19139.865281123868,377.0
19139.865343621103,420.0
19139.86540611834,176.0
19139.86546861558,122.0
19139.865531112817,-260.0
19139.86559361005,-287.0
19139.86565610729,-187.0
19139.865718604528,-570.0
19139.865781101762,-1093.0
19139.865843599,-1338.0
19139.865906096238,-720.0
19139.865968593476,-116.0
19139.86603109071,-315.0
19139.86609358795,-524.0
19139.866156085187,-268.0
19139.866218582425,29.0
19139.86628107966,214.0
19139.866343576898,293.0
19139.866406074136,-281.0
19139.866468571374,-807.0
19139.86653106861,-637.0
19139.866593565846,-468.0
19139.866656063085,-110.0
19139.866718560323,88.0
19139.866781057557,-44.0
19139.866843554795,-21.0
19139.866906052033,712.0
19139.86696854927,968.0
19139.867031046506,607.0
19139.867093543744,245.0
19139.867156040982,-305.0
19139.86721853822,90.0
19139.867281035455,365.0
19139.867343532693,339.0
19139.86740602993,23.0
19139.86746852717,-519.0
19139.867531024403,-1249.0
19139.86759352164,-1463.0
19139.86765601888,-1235.0
19139.867718516114,-1150.0
19139.867781013352,-1076.0
19139.86784351059,-1395.0
19139.86790600783,-921.0
19139.867968505063,-390.0
19139.8680310023,-423.0
19139.86809349954,-263.0
19139.868155996777,-574.0
19139.86821849401,-772.0
19139.86828099125,-274.0
19139.868343488488,-296.0
19139.868405985726,-715.0
19139.86846848296,-620.0
19139.8685309802,-316.0
19139.868593477437,-475.0
19139.868655974675,-941.0
19139.86871847191,-940.0
19139.868780969147,-1153.0
19139.868843466385,-650.0
19139.868905963624,-145.0
19139.868968460858,-1240.0
19139.869030958096,-1909.0
19139.869093455334,-1430.0
19139.86915595257,-984.0
19139.869218449807,-722.0
19139.869280947045,-734.0
19139.869343444283,-633.0
19139.86940594152,-249.0
19139.869468438756,-269.0
19139.869530935994,-28.0
19139.86959343323,491.0
19139.869655930466,-38.0
19139.869718427704,-558.0
19139.869780924942,275.0
19139.86984342218,511.0
19139.869905919415,285.0
19139.869968416653,642.0
19139.87003091389,586.0
19139.87009341113,378.0
19139.870155908364,393.0
19139.870218405602,-537.0
19139.87028090284,-682.0
19139.870343400078,-289.0
19139.870405897313,-543.0
19139.87046839455,-953.0
19139.87053089179,-1026.0
19139.870593389027,-976.0
19139.87065588626,-680.0
19139.8707183835,242.0
19139.870780880738,339.0
19139.870843377976,-508.0
19139.87090587521,-984.0
19139.87096837245,-649.0
19139.871030869686,-203.0
19139.87109336692,-818.0
19139.87115586416,-1212.0
19139.871218361397,-531.0
19139.871280858635,37.0
19139.87134335587,105.0
19139.871405853108,-145.0
19139.871468350346,-206.0
19139.871530847584,-577.0
19139.87159334482,-898.0
19139.871655842056,-792.0
19139.871718339295,-774.0
19139.871780836533,-966.0
19139.871843333767,-994.0
19139.871905831005,-896.0
19139.871968328243,-298.0
19139.87203082548,115.0
19139.872093322716,92.0
19139.872155819954,475.0
19139.872218317192,904.0
19139.87228081443,1354.0
19139.872343311665,1243.0
19139.872405808903,657.0
19139.87246830614,536.0
19139.87253080338,871.0
19139.872593300614,1270.0
19139.87265579785,797.0
19139.87271829509,25.0
19139.872780792328,-524.0
19139.872843289562,-177.0
19139.8729057868,492.0
19139.87296828404,347.0
19139.873030781273,-323.0
19139.87309327851,-827.0
19139.87315577575,-749.0
19139.873218272987,-536.0
19139.87328077022,-99.0
19139.87334326746,-272.0
19139.873405764698,-772.0
19139.873468261936,-869.0
19139.87353075917,-1084.0
19139.87359325641,-1025.0
19139.873655753647,-1069.0
19139.873718250885,-948.0
19139.87378074812,-914.0
19139.873843245357,-1020.0
19139.873905742596,-745.0
19139.873968239834,-685.0
19139.874030737068,-1185.0
19139.874093234306,-1560.0
19139.874155731544,-1584.0
19139.874218228782,-1657.0
19139.874280726017,-1295.0
19139.874343223255,-1460.0
19139.874405720493,-1169.0
19139.874468217728,-169.0
19139.874530714966,146.0
19139.874593212204,783.0
19139.874655709442,489.0
19139.87471820668,489.0
19139.874780703914,1254.0
19139.874843201153,802.0
19139.87490569839,3.0
19139.874968195625,39.0
19139.875030692863,480.0
19139.8750931901,603.0
19139.87515568734,481.0
19139.875218184574,688.0
19139.875280681812,607.0
19139.87534317905,90.0
19139.87540567629,300.0
19139.875468173523,413.0
19139.87553067076,601.0
19139.875593168,294.0
19139.875655665237,-775.0
19139.87571816247,-1497.0
19139.87578065971,-1157.0
19139.875843156948,-906.0
19139.875905654186,-1389.0
19139.87596815142,-1119.0
19139.87603064866,-783.0
19139.876093145896,-346.0
19139.876155643135,555.0
19139.87621814037,525.0
19139.876280637607,76.0
19139.876343134845,-269.0
19139.87640563208,-169.0
19139.876468129318,96.0
19139.876530626556,104.0
19139.876593123794,-208.0
19139.876655621032,-213.0
19139.876718118267,-41.0
19139.876780615505,241.0
19139.876843112743,624.0
19139.876905609977,-257.0
19139.876968107215,-1268.0
19139.877030604453,-1089.0
19139.87709310169,-597.0
19139.877155598926,-903.0
19139.877218096164,-1209.0
19139.877280593402,-997.0
19139.87734309064,-697.0
19139.877405587875,-440.0
19139.877468085113,-546.0
19139.87753058235,-1345.0
19139.87759307959,-1896.0
19139.877655576824,-1403.0
19139.87771807406,-864.0
19139.8777805713,-752.0
19139.877843068538,-878.0
19139.877905565772,-1282.0
19139.87796806301,-1229.0
19139.87803056025,-427.0
19139.878093057487,-838.0
19139.87815555472,-1788.0
19139.87821805196,-1715.0
19139.878280549197,-1367.0
19139.878343046432,-1208.0
19139.87840554367,-1464.0
19139.878468040908,-1755.0
19139.878530538146,-1241.0
19139.87859303538,-854.0
19139.87865553262,-753.0
19139.878718029857,-196.0
19139.878780527095,-502.0
19139.87884302433,-1253.0
19139.878905521568,-1631.0
19139.878968018806,-1814.0
19139.879030516044,-1566.0
19139.879093013278,-1781.0
19139.879155510516,-2259.0
19139.879218007754,-2239.0
19139.879280504992,-1867.0
19139.879343002227,-1783.0
19139.879405499465,-2080.0
19139.879467996703,-2068.0
19139.87953049394,-1312.0
19139.879592991176,-645.0
19139.879655488414,-992.0
19139.879717985652,-1592.0
19139.87978048289,-1770.0
19139.879842980125,-1418.0
19139.879905477363,-1006.0
19139.8799679746,-1028.0
19139.88003047184,-1427.0
19139.880092969073,-1346.0
19139.88015546631,-583.0
19139.88021796355,-179.0
19139.880280460784,-713.0
19139.880342958022,-1326.0
19139.88040545526,-1195.0
19139.8804679525,-585.0
19139.880530449733,-175.0
19139.88059294697,-383.0
19139.88065544421,-857.0
19139.880717941447,-800.0
19139.88078043868,-629.0
19139.88084293592,-238.0
19139.880905433158,-921.0
19139.880967930396,-1422.0
19139.88103042763,-655.0
19139.88109292487,-285.0
19139.881155422107,-174.0
19139.881217919345,-320.0
19139.88128041658,-1011.0
19139.881342913817,-1780.0
19139.881405411055,-1737.0
19139.881467908293,-1080.0
19139.881530405528,-1092.0
19139.881592902766,-1431.0
19139.881655400004,-1266.0
19139.88171789724,-1272.0
19139.881780394477,-983.0
19139.881842891715,-369.0
19139.881905388953,349.0
19139.88196788619,942.0
19139.882030383425,450.0
19139.882092880664,114.0
19139.8821553779,188.0
19139.882217875136,343.0
19139.882280372374,-138.0
19139.882342869612,-733.0
19139.88240536685,-414.0
19139.882467864085,341.0
19139.882530361323,479.0
19139.88259285856,191.0
19139.8826553558,324.0
19139.882717853034,154.0
19139.88278035027,427.0
19139.88284284751,774.0
19139.882905344748,260.0
19139.882967841982,294.0
19139.88303033922,540.0
19139.88309283646,947.0
19139.883155333697,917.0
19139.88321783093,501.0
19139.88328032817,370.0
19139.883342825407,262.0
19139.883405322646,344.0
19139.88346781988,299.0
19139.883530317118,-72.0
19139.883592814356,-309.0
19139.88365531159,-405.0
19139.88371780883,-142.0
19139.883780306067,-57.0
19139.883842803305,-46.0
19139.88390530054,-241.0
19139.883967797778,-690.0
19139.884030295016,-427.0
19139.884092792254,-201.0
19139.88415528949,-435.0
19139.884217786726,-144.0
19139.884280283964,35.0
19139.884342781203,-241.0
19139.884405278437,74.0
19139.884467775675,160.0
19139.884530272913,-341.0
19139.88459277015,-362.0
19139.884655267386,-210.0
19139.884717764624,548.0
19139.884780261862,947.0
19139.8848427591,-423.0
19139.884905256335,-944.0
19139.884967753573,-270.0
19139.88503025081,-884.0
19139.88509274805,-1747.0
19139.885155245283,-2017.0
19139.88521774252,-1194.0
19139.88528023976,-35.0
19139.885342736998,288.0
19139.885405234232,-205.0
19139.88546773147,-490.0
19139.88553022871,260.0
19139.885592725943,0.0
19139.88565522318,-902.0
19139.88571772042,-1145.0
19139.885780217657,-1719.0
19139.88584271489,-1915.0
19139.88590521213,-1447.0
19139.885967709368,-1141.0
19139.886030206606,-1243.0
19139.88609270384,-1425.0
19139.88615520108,-1122.0
19139.886217698317,-884.0
19139.886280195555,-1388.0
19139.88634269279,-1543.0
19139.886405190027,-1387.0
19139.886467687265,-1217.0
19139.886530184503,-1143.0
19139.886592681738,-1140.0
19139.886655178976,-510.0
19139.886717676214,139.0
19139.886780173452,297.0
19139.886842670687,427.0
19139.886905167925,29.0
19139.886967665163,-437.0
19139.887030162397,-282.0
19139.887092659636,-183.0
19139.887155156874,-376.0
19139.88721765411,-674.0
19139.88728015135,-1358.0
19139.887342648584,-1338.0
19139.887405145822,-102.0
19139.88746764306,300.0
19139.887530140295,-483.0
19139.887592637533,-1027.0
19139.88765513477,-1349.0
19139.88771763201,-301.0
19139.887780129244,440.0
19139.887842626482,-559.0
19139.88790512372,-1223.0
19139.887967620958,-850.0
19139.888030118193,208.0
19139.88809261543,154.0
19139.88815511267,-694.0
19139.888217609907,-1074.0
19139.88828010714,-1046.0
19139.88834260438,-631.0
19139.888405101618,-70.0
19139.888467598856,100.0
19139.88853009609,-232.0
19139.88859259333,-138.0
19139.888655090566,662.0
19139.888717587804,714.0
19139.88878008504,-137.0
19139.888842582277,-313.0
19139.888905079515,-71.0
19139.88896757675,17.0
19139.889030073988,-189.0
19139.889092571226,-637.0
19139.889155068464,-704.0
19139.8892175657,-879.0
19139.889280062936,-402.0
19139.889342560175,125.0
19139.889405057413,-457.0
19139.889467554647,-695.0
19139.889530051885,-903.0
19139.889592549123,-470.0
19139.88965504636,239.0
19139.889717543596,289.0
19139.889780040834,267.0
19139.889842538072,-109.0
19139.88990503531,-224.0
19139.889967532545,-697.0
19139.890030029783,-1135.0
19139.89009252702,-954.0
19139.89015502426,-872.0
19139.890217521493,-1083.0
19139.89028001873,-1354.0
19139.89034251597,-989.0
19139.890405013208,-513.0
19139.890467510442,-1077.0
19139.89053000768,-1837.0
19139.89059250492,-1685.0
19139.890655002157,-1449.0
19139.89071749939,-929.0
19139.89077999663,-379.0
19139.890842493867,-701.0
19139.8909049911,-587.0
19139.89096748834,157.0
19139.891029985578,1245.0
19139.891092482816,1119.0
19139.89115498005,455.0
19139.89121747729,791.0
19139.891279974527,1724.0
19139.891342471765,2387.0
19139.891404969,1846.0
19139.891467466237,999.0
19139.891529963475,931.0
19139.891592460714,1175.0
19139.891654957948,321.0
19139.891717455186,-234.0
19139.891779952424,295.0
19139.891842449662,953.0
19139.891904946897,1799.0
19139.891967444135,1343.0
19139.892029941373,276.0
19139.89209243861,667.0
19139.892154935846,1097.0
19139.892217433084,1058.0
19139.892279930322,504.0
19139.892342427556,-286.0
19139.892404924794,-49.0
19139.892467422032,214.0
19139.89252991927,-157.0
19139.89259241651,-558.0
19139.892654913743,-768.0
19139.89271741098,416.0
19139.89277990822,1290.0
19139.892842405454,613.0
19139.892904902692,35.0
19139.89296739993,6.0
19139.893029897168,384.0
19139.893092394403,632.0
19139.89315489164,106.0
19139.89321738888,-493.0
19139.893279886117,-718.0
19139.89334238335,-653.0
19139.89340488059,-250.0
19139.893467377828,25.0
19139.893529875066,-347.0
19139.8935923723,-663.0
19139.89365486954,-520.0
19139.893717366776,-242.0
19139.893779864015,-217.0
19139.89384236125,-909.0
19139.893904858487,-1728.0
19139.893967355725,-1679.0
19139.894029852963,-884.0
19139.894092350198,-897.0
19139.894154847436,-1425.0
19139.894217344674,-1316.0
19139.89427984191,-597.0
19139.894342339147,466.0
19139.894404836385,459.0
19139.894467333623,-671.0
19139.894529830857,-1422.0
19139.894592328095,-1357.0
19139.894654825333,-1187.0
19139.89471732257,-1106.0
19139.894779819806,-1114.0
19139.894842317044,-2147.0
19139.894904814282,-2192.0
19139.89496731152,-1159.0
19139.895029808755,-1008.0
19139.895092305993,-1152.0
19139.89515480323,-1050.0
19139.89521730047,-416.0
19139.895279797704,261.0
19139.89534229494,187.0
19139.89540479218,69.0
19139.895467289418,18.0
19139.895529786652,-166.0
19139.89559228389,505.0
19139.89565478113,1129.0
19139.895717278367,654.0
19139.8957797756,80.0
19139.89584227284,372.0
19139.895904770077,579.0
19139.895967267315,361.0
19139.89602976455,92.0
19139.896092261788,-61.0
19139.896154759026,45.0
19139.89621725626,279.0
19139.8962797535,353.0
19139.896342250737,-461.0
19139.896404747975,-1031.0
19139.89646724521,-610.0
19139.896529742447,-452.0
19139.896592239686,-40.0
19139.896654736924,324.0
19139.896717234158,21.0
19139.896779731396,40.0
19139.896842228634,76.0
19139.896904725872,-169.0
19139.896967223107,-5.0
19139.897029720345,299.0
19139.897092217583,300.0
19139.89715471482,391.0
19139.897217212056,76.0
19139.897279709294,-489.0
19139.897342206532,-402.0
19139.89740470377,-621.0
19139.897467201004,-671.0
19139.897529698243,-285.0
19139.89759219548,-255.0
19139.897654692715,-348.0
19139.897717189953,-720.0
19139.89777968719,-991.0
19139.89784218443,-668.0
19139.897904681668,-924.0
19139.897967178902,-744.0
19139.89802967614,-211.0
19139.89809217338,-323.0
19139.898154670613,-357.0
19139.89821716785,-466.0
19139.89827966509,-681.0
19139.898342162327,-1042.0
19139.89840465956,-1151.0
19139.8984671568,-499.0
19139.898529654038,331.0
19139.898592151276,-86.0
19139.89865464851,-974.0
19139.89871714575,-812.0
19139.898779642986,-655.0
19139.898842140225,-545.0
19139.89890463746,-438.0
19139.898967134697,-989.0
19139.899029631935,-1124.0
19139.899092129173,-48.0
19139.899154626408,489.0
19139.899217123646,-26.0
19139.899279620884,-874.0
19139.899342118122,-868.0
19139.899404615357,-73.0
19139.899467112595,134.0
19139.899529609833,-389.0
19139.899592107067,-984.0
19139.899654604305,-707.0
19139.899717101544,16.0
19139.89977959878,-111.0
19139.89984209602,-1039.0
19139.899904593254,-1030.0
19139.899967090492,-301.0
19139.90002958773,17.0
19139.900092084965,-302.0
19139.900154582203,-682.0
19139.90021707944,-627.0
19139.90027957668,-1048.0
19139.900342073914,-1291.0
19139.90040457115,-744.0
19139.90046706839,-244.0
19139.900529565628,-377.0
19139.900592062862,-471.0
19139.9006545601,48.0
19139.90071705734,-63.0
19139.900779554577,-1145.0
19139.90084205181,-1329.0
19139.90090454905,-833.0
19139.900967046287,-822.0
19139.901029543526,-341.0
19139.90109204076,-41.0
19139.901154537998,-546.0
19139.901217035236,-483.0
19139.901279532474,8.0
19139.90134202971,363.0
19139.901404526947,519.0
19139.901467024185,-193.0
19139.90152952142,-789.0
19139.901592018658,-20.0
19139.901654515896,324.0
19139.901717013134,-141.0
19139.90177951037,-1186.0
19139.901842007606,-2134.0
19139.901904504844,-1654.0
19139.901967002083,-766.0
19139.902029499317,-667.0
19139.902091996555,-1576.0
19139.902154493793,-1773.0
19139.90221699103,-1137.0
19139.902279488266,-716.0
19139.902341985504,-397.0
19139.902404482742,-1066.0
19139.90246697998,-1761.0
19139.902529477215,-1152.0
19139.902591974453,-825.0
19139.90265447169,-1040.0
19139.90271696893,-1593.0
19139.902779466163,-2190.0
19139.9028419634,-1391.0
19139.90290446064,-167.0
19139.902966957878,205.0
19139.903029455112,-18.0
19139.90309195235,-536.0
19139.90315444959,-291.0
19139.903216946826,988.0
19139.90327944406,1003.0
19139.9033419413,39.0
19139.903404438537,-1002.0
19139.90346693577,-1031.0
19139.90352943301,-635.0
19139.903591930248,-612.0
19139.903654427486,-636.0
19139.90371692472,-1176.0
19139.90377942196,-858.0
19139.903841919197,871.0
19139.903904416435,1126.0
19139.90396691367,-182.0
19139.904029410907,-717.0
19139.904091908145,-513.0
19139.904154405383,-325.0
19139.904216902618,82.0
19139.904279399856,-110.0
19139.904341897094,-562.0
19139.904404394332,52.0
19139.904466891567,687.0
19139.904529388805,265.0
19139.904591886043,-329.0
19139.90465438328,-574.0
19139.904716880515,-375.0
19139.904779377754,369.0
19139.90484187499,128.0
