0,1,2,3,4,5,6,7,8,9,10
19430.4763185512,411.1275939941406,681.7792358398438,-102.89038848876953,-78.42337799072266,1.146429181098938,83.08426666259766,42.384464263916016,96.46189880371094,128.0810089111328,65535.0
19430.476718559752,410.5574035644531,685.1260375976562,-99.4242935180664,-89.25025177001953,2.8325111865997314,82.79711151123047,40.026241302490234,99.52091217041016,119.72883605957031,65535.0
19430.477118568302,417.1339416503906,690.3748779296875,-104.19898986816406,-133.66796875,2.578871726989746,82.4775161743164,41.01166534423828,98.66766357421875,116.08728790283203,65535.0
19430.477518576856,418.63116455078125,694.0792236328125,-92.66026306152344,-173.81570434570312,-1.031623125076294,79.97122955322266,41.62328338623047,96.09239959716797,118.82057189941406,65535.0
19430.47791858541,426.56109619140625,695.5928955078125,-98.81771087646484,-193.42269897460938,-0.5576958060264587,78.5418701171875,38.2818489074707,95.60435485839844,136.3788604736328,65535.0
19430.47831859396,437.19232177734375,698.0984497070312,-93.48580932617188,-182.98817443847656,3.9042062759399414,84.36538696289062,45.28992462158203,103.45945739746094,147.18165588378906,65535.0
19430.478718602513,427.44488525390625,696.077880859375,-104.87273406982422,-148.15403747558594,6.164340496063232,90.70194244384766,47.5613899230957,106.84363555908203,131.1328582763672,65535.0
19430.479118611067,404.17669677734375,692.4459228515625,-111.20401000976562,-123.5025405883789,6.892584800720215,85.9869384765625,46.68724060058594,102.99339294433594,127.6699447631836,65535.0
19430.47951861962,397.9388122558594,688.5452880859375,-114.49632263183594,-97.12989807128906,6.699987411499023,84.00210571289062,47.446414947509766,104.59199523925781,129.23001098632812,65535.0
19430.47991862817,405.4299621582031,684.46826171875,-94.37020874023438,-81.50239562988281,-0.17359919846057892,77.32981872558594,40.32781219482422,98.50092315673828,137.03529357910156,65535.0
19430.480318636724,397.2312316894531,678.5775146484375,-82.33680725097656,-82.03501892089844,6.915042877197266,81.9739990234375,44.893310546875,102.9302978515625,133.12718200683594,65535.0
19430.480718645278,398.0551452636719,676.2490234375,-71.91099548339844,-83.39591979980469,2.572270393371582,79.2420425415039,44.7091178894043,102.87882995605469,132.161865234375,65535.0
19430.481118653828,408.4843444824219,688.9227294921875,-74.24561309814453,-104.37950897216797,4.770837306976318,76.51229858398438,43.89855194091797,96.95503997802734,139.06507873535156,65535.0
19430.481518662382,398.1368408203125,692.4254760742188,-84.7090072631836,-118.0805435180664,1.9381375312805176,75.1409683227539,43.16966247558594,99.18622589111328,135.20535278320312,65535.0
19430.481918670936,384.6182556152344,690.134033203125,-73.32412719726562,-112.24604797363281,-8.421217918395996,64.40421295166016,33.1024169921875,89.179443359375,132.1433563232422,65535.0
19430.48231867949,372.0232238769531,684.644287109375,-86.69834899902344,-115.31813049316406,-5.607169151306152,59.028717041015625,32.30840301513672,89.51417541503906,123.29606628417969,65535.0
19430.48271868804,373.1520690917969,684.771484375,-83.348388671875,-116.04364013671875,-9.03361988067627,56.572120666503906,29.52260971069336,88.04718017578125,137.58599853515625,65535.0
19430.483118696593,380.19244384765625,681.3833618164062,-72.39454650878906,-116.40746307373047,-5.659178256988525,57.60594177246094,34.18357467651367,91.85188293457031,134.1724090576172,65535.0
19430.483518705147,383.9452819824219,680.6425170898438,-76.41087341308594,-96.60873413085938,-2.2335476875305176,65.43196105957031,38.7188720703125,95.3444595336914,126.77800750732422,65535.0
19430.483918713697,383.96533203125,694.5928344726562,-67.55435180664062,-69.9039077758789,-5.512041091918945,58.47450256347656,31.012826919555664,89.75347137451172,134.26356506347656,65535.0
19430.48431872225,374.3448486328125,693.342529296875,-77.57228088378906,-67.11384582519531,-3.519057273864746,60.31644821166992,38.070552825927734,95.1330337524414,138.84335327148438,65535.0
19430.484718730804,352.5421142578125,690.9037475585938,-80.05680084228516,-102.93453979492188,-10.490074157714844,53.0887565612793,29.1749324798584,87.82271575927734,141.20260620117188,65535.0
19430.485118739358,350.1098937988281,686.44140625,-75.7507553100586,-121.56916809082031,-7.043712615966797,55.209922790527344,33.50702667236328,88.58222198486328,130.35379028320312,65535.0
19430.485518747908,374.09161376953125,684.9722900390625,-76.6438217163086,-131.1156463623047,-8.031561851501465,57.88387680053711,33.87944793701172,89.08636474609375,131.71424865722656,65535.0
19430.48591875646,393.6303405761719,689.9100952148438,-75.81124114990234,-134.65977478027344,-4.954744815826416,58.37449264526367,35.3531494140625,93.65618133544922,114.29590606689453,65535.0
19430.486318765015,414.99066162109375,686.5215454101562,-78.85624694824219,-129.9485626220703,-1.1927610635757446,63.013916015625,36.08136749267578,94.38929748535156,116.05635833740234,65535.0
19430.486718773565,425.5279235839844,684.1427612304688,-75.70122528076172,-127.2156753540039,-12.453622817993164,56.425209045410156,28.55754280090332,85.62640380859375,129.17539978027344,65535.0
19430.48711878212,414.64739990234375,679.0499877929688,-77.02851104736328,-110.86595916748047,-1.2943828105926514,64.01409912109375,37.56785583496094,96.8340072631836,137.29354858398438,65535.0
19430.487518790673,409.69683837890625,678.7931518554688,-87.57788848876953,-101.59683990478516,-4.207668304443359,62.0688362121582,36.761024475097656,93.71772766113281,125.25531768798828,65535.0
19430.487918799226,417.350341796875,671.021240234375,-78.53315734863281,-105.45604705810547,-1.761056900024414,66.19127655029297,36.31438446044922,94.41291046142578,120.3784408569336,65535.0
19430.488318807777,416.764892578125,678.5855102539062,-75.17864990234375,-116.0856704711914,-3.711869955062866,64.96937561035156,36.97019958496094,94.0338363647461,118.28860473632812,65535.0
19430.48871881633,435.04266357421875,683.0531616210938,-73.54398345947266,-100.16664123535156,-6.526860237121582,62.21804428100586,32.67177200317383,92.8553237915039,121.20761108398438,65535.0
19430.489118824884,430.04718017578125,682.0536499023438,-70.55670166015625,-67.63895416259766,5.450717449188232,76.77127075195312,44.61239242553711,102.99392700195312,131.92823791503906,65535.0
19430.489518833434,397.92242431640625,674.4561157226562,-66.19369506835938,-49.35780715942383,-7.488080978393555,66.38543701171875,31.63912010192871,90.68287658691406,126.05038452148438,65535.0
19430.489918841988,383.29583740234375,673.8516235351562,-72.27485656738281,-34.89344024658203,-9.850141525268555,59.503929138183594,26.79650115966797,86.88471221923828,127.17814636230469,65535.0
19430.49031885054,373.04937744140625,676.4985961914062,-77.37793731689453,-32.50730895996094,4.083542823791504,77.6385498046875,46.6717643737793,101.74091339111328,125.95245361328125,65535.0
19430.490718859095,372.9690856933594,676.9641723632812,-80.92932891845703,-41.25286865234375,-9.964987754821777,66.49580383300781,33.538204193115234,88.33329772949219,127.10258483886719,65535.0
19430.491118867645,375.7564392089844,679.9655151367188,-83.68965148925781,-34.38697052001953,0.3513873815536499,77.53961944580078,42.6696891784668,102.01007843017578,142.96302795410156,65535.0
19430.4915188762,384.81134033203125,677.312744140625,-90.67058563232422,-34.68193054199219,-3.874790906906128,71.25872039794922,34.83531951904297,92.65962219238281,137.36923217773438,65535.0
19430.491918884753,383.63055419921875,675.4818115234375,-77.39884185791016,-42.600406646728516,-3.199855089187622,70.80555725097656,35.986236572265625,93.13758087158203,131.31663513183594,65535.0
19430.492318893303,398.8941345214844,673.4401245117188,-66.04969024658203,-42.88429641723633,-7.961101055145264,70.00369262695312,31.623212814331055,91.9905776977539,128.70130920410156,65535.0
19430.492718901856,430.1187438964844,664.0687866210938,-65.12870788574219,-35.332183837890625,-2.831787586212158,73.58267974853516,37.2506217956543,91.1338119506836,127.44115447998047,65535.0
19430.49311891041,431.7415466308594,663.5941772460938,-65.10667419433594,-64.49459838867188,5.244290828704834,83.40666198730469,44.049007415771484,100.7916488647461,130.9896240234375,65535.0
19430.493518918964,426.4983825683594,657.67626953125,-60.77677917480469,-112.38459777832031,-6.037635326385498,79.76730346679688,37.68294906616211,95.18548583984375,127.25881958007812,65535.0
19430.493918927514,406.10137939453125,653.3314208984375,-65.1785888671875,-149.45018005371094,0.37546461820602417,84.29834747314453,40.473567962646484,99.98200988769531,131.8751983642578,65535.0
19430.494318936067,383.0738525390625,667.7617797851562,-66.31812286376953,-144.98890686035156,4.248348712921143,86.94522857666016,43.46040344238281,101.6866683959961,136.125732421875,65535.0
19430.49471894462,341.9887390136719,665.8363037109375,-62.752471923828125,-125.48328399658203,10.015009880065918,94.38619995117188,48.36078643798828,104.64291381835938,128.96722412109375,65535.0
19430.49511895317,312.32470703125,667.9502563476562,-66.87724304199219,-146.37350463867188,8.172877311706543,92.19901275634766,47.546043395996094,100.54743957519531,128.05946350097656,65535.0
19430.495518961725,352.7317199707031,687.45751953125,-52.754974365234375,-167.96482849121094,1.5369492769241333,85.48602294921875,40.40017318725586,98.004150390625,125.81484985351562,65535.0
19430.49591897028,410.308837890625,673.5960693359375,-42.2814826965332,-150.68301391601562,-0.8740193843841553,85.62236785888672,36.649593353271484,97.59510803222656,130.37425231933594,65535.0
19430.496318978832,416.2942199707031,677.2417602539062,-58.86884307861328,-134.21510314941406,12.679281234741211,97.5661392211914,52.2003288269043,108.16861724853516,133.63253784179688,65535.0
19430.496718987382,375.5363464355469,675.7840576171875,-61.558895111083984,-130.10580444335938,11.607553482055664,97.76075744628906,49.920936584472656,107.18452453613281,117.21635437011719,65535.0
19430.497118995936,353.7833557128906,673.8773193359375,-56.18387985229492,-140.01214599609375,-4.883391857147217,81.62388610839844,36.8223876953125,91.67913818359375,122.21685791015625,65535.0
19430.49751900449,332.7853088378906,675.5158081054688,-57.960323333740234,-159.6370391845703,-6.834715843200684,76.22732543945312,33.618019104003906,90.2557144165039,124.66780853271484,65535.0
19430.49791901304,322.0246276855469,674.4371337890625,-66.79315948486328,-191.62200927734375,2.901409864425659,87.78497314453125,42.64189910888672,101.88509368896484,133.65782165527344,65535.0
19430.498319021593,324.94183349609375,682.3380126953125,-67.71038055419922,-225.37054443359375,-2.1330461502075195,80.94285583496094,38.084957122802734,93.48540496826172,129.92483520507812,65535.0
19430.498719030147,370.5331726074219,687.1331787109375,-47.17545700073242,-241.23785400390625,1.5119960308074951,83.50028991699219,42.585086822509766,98.47969818115234,128.12466430664062,65535.0
19430.4991190387,400.09765625,689.476318359375,-42.43558120727539,-249.482421875,-8.440028190612793,74.01008605957031,33.136817932128906,90.97927856445312,138.1006622314453,65535.0
19430.49951904725,402.5990905761719,684.495849609375,-45.765071868896484,-230.5247802734375,-2.2463114261627197,77.76533508300781,36.92799377441406,95.89279174804688,116.9498291015625,65535.0
19430.499919055805,405.0466003417969,676.9037475585938,-37.587825775146484,-170.19056701660156,-0.4145931303501129,80.59487915039062,38.71014404296875,97.07771301269531,116.43956756591797,65535.0
19430.50031906436,401.9121398925781,690.7085571289062,-39.80827713012695,-145.4213409423828,-6.935131072998047,70.09071350097656,35.136505126953125,93.08588409423828,135.1213836669922,65535.0
19430.50071907291,435.0431823730469,689.3368530273438,-43.946807861328125,-136.07704162597656,0.6554710268974304,77.06076049804688,40.78324890136719,99.0526123046875,124.76200103759766,65535.0
19430.501119081462,475.1942443847656,692.6142578125,-42.27840042114258,-116.11937713623047,-4.350949287414551,72.15640258789062,36.27466583251953,93.14753723144531,128.9957275390625,65535.0
19430.501519090016,481.6467590332031,698.9830932617188,-41.68053436279297,-83.5284194946289,-1.5510157346725464,74.33990478515625,41.64574432373047,96.70072174072266,127.29438781738281,65535.0
19430.50191909857,475.4703674316406,693.763671875,-37.731712341308594,-45.15532302856445,-12.095948219299316,59.91635513305664,30.049213409423828,87.44175720214844,133.60147094726562,65535.0
19430.50231910712,466.9603576660156,694.9706420898438,-40.42139434814453,-33.664024353027344,-11.444293975830078,53.97740936279297,28.042390823364258,83.94444274902344,139.89468383789062,65535.0
19430.502719115673,478.7276611328125,686.1817626953125,-28.414945602416992,-25.1129093170166,-2.992309808731079,64.90369415283203,35.56398391723633,94.25261688232422,132.65077209472656,65535.0
19430.503119124227,521.9929809570312,685.0533447265625,-24.69425392150879,-43.572574615478516,-6.062698841094971,63.47737503051758,33.00740051269531,90.40229797363281,130.52960205078125,65535.0
19430.503519132777,542.7703857421875,699.5468139648438,-25.979442596435547,-67.98602294921875,-5.672689914703369,64.78351593017578,34.44800567626953,92.72100830078125,148.4204864501953,65535.0
19430.50391914133,517.8997802734375,704.1920166015625,-21.995237350463867,-52.580039978027344,-9.702914237976074,59.394981384277344,29.466751098632812,89.42060089111328,125.85574340820312,65535.0
19430.504319149884,507.1712951660156,696.902099609375,-27.190170288085938,-52.860591888427734,-10.40916919708252,52.781558990478516,27.638029098510742,84.09654998779297,120.50267791748047,65535.0
19430.504719158438,494.5994873046875,681.2769165039062,-33.30296325683594,-42.03858947753906,-18.840574264526367,45.61216354370117,24.540197372436523,79.57496643066406,116.52849578857422,65535.0
19430.505119166988,478.63671875,678.5408325195312,-28.655864715576172,-15.965517044067383,-14.039958953857422,47.596214294433594,26.521312713623047,82.484619140625,126.30353546142578,65535.0
19430.505519175542,458.6768493652344,684.0550537109375,-44.87982177734375,-0.377261757850647,-8.29502010345459,57.08876419067383,29.87704086303711,85.40531158447266,131.69085693359375,65535.0
19430.505919184096,440.2925109863281,681.5416870117188,-41.12788391113281,-11.119010925292969,-10.739706993103027,52.11968994140625,27.148906707763672,85.21668243408203,115.03213500976562,65535.0
19430.506319192646,431.3461608886719,671.4486083984375,-45.61787033081055,-15.958171844482422,-23.809871673583984,36.980438232421875,16.996702194213867,72.77406311035156,129.1737823486328,65535.0
19430.5067192012,421.2309875488281,689.8377075195312,-50.54890823364258,-12.364944458007812,-19.343120574951172,46.06306457519531,24.02304458618164,78.76001739501953,155.2630157470703,65535.0
19430.507119209753,410.7601623535156,692.4131469726562,-40.51342010498047,-26.181913375854492,-18.333656311035156,47.35124588012695,22.52351951599121,79.90987396240234,136.0445098876953,65535.0
19430.507519218307,401.4960632324219,683.655517578125,-46.18036651611328,-13.70102310180664,-23.662137985229492,41.503543853759766,15.688714027404785,74.61227416992188,126.4332046508789,65535.0
19430.507919226857,412.2848205566406,686.601318359375,-50.39830780029297,0.18474051356315613,-15.199861526489258,50.446861267089844,24.885116577148438,83.0137939453125,127.07838439941406,65535.0
19430.50831923541,401.76263427734375,678.6786499023438,-48.76396942138672,6.233272075653076,-13.704939842224121,50.51570510864258,23.921693801879883,83.08234405517578,122.7148666381836,65535.0
19430.508719243964,405.04962158203125,682.079345703125,-39.14487838745117,-14.952570915222168,-6.8492431640625,58.3828125,30.67798614501953,90.32600402832031,128.66151428222656,65535.0
19430.509119252514,402.5448913574219,673.2465209960938,-38.428688049316406,-53.12308120727539,-3.250135898590088,66.0590591430664,39.04011535644531,97.34752655029297,121.44526672363281,65535.0
19430.509519261068,408.0319519042969,679.1375732421875,-38.773685455322266,-97.72891998291016,-12.45176887512207,59.301090240478516,28.328678131103516,84.40336608886719,118.50726318359375,65535.0
19430.50991926962,405.6192932128906,691.7615356445312,-31.67583656311035,-126.07879638671875,-17.9079647064209,55.299598693847656,24.723758697509766,83.2923812866211,123.02135467529297,65535.0
19430.510319278175,403.13037109375,683.0202026367188,-50.38079071044922,-148.89923095703125,-10.921128273010254,63.74854278564453,31.377452850341797,88.45753479003906,126.616455078125,65535.0
19430.510719286725,409.8863220214844,671.4779663085938,-51.8363151550293,-179.18167114257812,-0.6979432702064514,72.82915496826172,37.92277145385742,94.26777648925781,117.94441986083984,65535.0
19430.51111929528,394.06365966796875,678.52978515625,-48.59735107421875,-215.7233123779297,-7.826097011566162,67.28055572509766,32.82904815673828,89.7243881225586,118.57819366455078,65535.0
19430.511519303833,385.0270690917969,677.2245483398438,-62.32065200805664,-222.10870361328125,-12.141528129577637,62.91754150390625,26.4749698638916,86.07157135009766,119.74861145019531,65535.0
19430.511919312383,384.9620666503906,679.1675415039062,-58.155494689941406,-222.38912963867188,-5.660627841949463,73.05104064941406,33.45573043823242,89.04113006591797,108.792724609375,65535.0
19430.512319320937,389.5612487792969,683.1084594726562,-55.062744140625,-228.5508575439453,-9.140625,70.04530334472656,32.54878616333008,89.02582550048828,128.04953002929688,65535.0
19430.51271932949,400.1852111816406,682.6959228515625,-55.43042755126953,-214.67816162109375,-5.405722618103027,74.63471984863281,35.07158660888672,90.00981140136719,128.6937713623047,65535.0
19430.513119338044,372.0605773925781,681.0278930664062,-55.98313903808594,-190.56082153320312,-0.04936510697007179,80.79141235351562,40.25124740600586,97.80724334716797,113.71878051757812,65535.0
19430.513519346594,371.624755859375,674.8675537109375,-45.651206970214844,-127.32766723632812,3.4151556491851807,89.78190612792969,45.811492919921875,103.27101135253906,116.56157684326172,65535.0
19430.513919355148,368.8247375488281,679.7808227539062,-50.12418746948242,-91.05040740966797,5.673807621002197,90.13590240478516,46.16929626464844,103.71231079101562,123.05400848388672,65535.0
19430.5143193637,361.40142822265625,682.7495727539062,-53.42717742919922,-65.59652709960938,-6.843830585479736,75.78382873535156,33.109458923339844,90.39751434326172,116.86805725097656,65535.0
19430.51471937225,369.3987731933594,681.2968139648438,-49.00620651245117,-56.661773681640625,-10.177464485168457,72.41826629638672,30.23876953125,86.56685638427734,123.64662170410156,65535.0
19430.515119380805,392.385986328125,684.1008911132812,-46.77951431274414,-54.4761962890625,3.725389242172241,87.45198059082031,42.24433898925781,98.52574920654297,113.57241821289062,65535.0
19430.51551938936,417.47991943359375,688.438720703125,-44.86745834350586,-68.26057434082031,4.1836137771606445,90.7640609741211,44.31601333618164,103.84654998779297,114.47203063964844,65535.0
19430.515919397913,422.369384765625,690.6779174804688,-30.99997901916504,-66.62847900390625,5.823448181152344,91.45830535888672,44.477088928222656,102.7313232421875,109.81779479980469,65535.0
19430.516319406463,404.294921875,692.3869018554688,-37.282596588134766,-75.29480743408203,0.7438459396362305,86.87769317626953,41.063106536865234,96.3118896484375,112.17860412597656,65535.0
19430.516719415016,384.9437255859375,700.0713500976562,-43.01044845581055,-93.75364685058594,-6.134416103363037,79.33934783935547,34.95230484008789,92.10017395019531,128.70681762695312,65535.0
19430.51711942357,366.0767822265625,702.4973754882812,-35.208560943603516,-107.41897583007812,1.701611876487732,86.16890716552734,42.46395492553711,102.3128433227539,125.79431915283203,65535.0
19430.51751943212,368.7340393066406,699.2029418945312,-35.39287567138672,-123.65374755859375,0.7121285200119019,85.55025482177734,40.79292297363281,97.62639617919922,109.55913543701172,65535.0
19430.517919440674,377.45709228515625,696.9215087890625,-39.48162841796875,-115.90087127685547,-8.526738166809082,72.8868637084961,32.5190315246582,89.78655242919922,113.5352783203125,65535.0
19430.518319449227,374.6432800292969,702.903076171875,-40.941463470458984,-92.6221694946289,-1.9986919164657593,80.01939392089844,41.39137649536133,96.81710815429688,115.06232452392578,65535.0
19430.51871945778,362.3739929199219,708.3495483398438,-40.41585159301758,-90.0833740234375,4.977341651916504,88.70159912109375,48.830230712890625,104.83604431152344,126.35223388671875,65535.0
19430.51911946633,359.2945251464844,709.0698852539062,-35.911991119384766,-104.3421859741211,7.540873050689697,92.3226547241211,48.79892349243164,108.43595886230469,130.42623901367188,65535.0
19430.519519474885,371.9062805175781,710.2625122070312,-41.99317932128906,-87.38135528564453,-6.83200740814209,75.55474090576172,31.102724075317383,92.72441864013672,116.59005737304688,65535.0
19430.51991948344,374.37164306640625,710.7068481445312,-30.370464324951172,-86.34452819824219,-3.8808884620666504,74.02173614501953,33.45005416870117,93.14897155761719,127.70677185058594,65535.0
19430.52031949199,367.37042236328125,706.735595703125,-23.390295028686523,-106.55081176757812,-8.679527282714844,67.5932846069336,32.000762939453125,88.3052978515625,115.51811981201172,65535.0
19430.520719500542,358.7701721191406,701.6695556640625,-29.472623825073242,-113.36746978759766,-10.484065055847168,64.0599136352539,30.087173461914062,85.79962158203125,119.94412231445312,65535.0
19430.521119509096,364.03851318359375,698.0882568359375,-26.196834564208984,-132.20669555664062,-9.574138641357422,65.34903717041016,30.984750747680664,87.65003967285156,118.9308853149414,65535.0
19430.52151951765,367.0748291015625,704.3081665039062,-30.820274353027344,-122.71785736083984,-6.817834854125977,67.75153350830078,31.360740661621094,89.5216293334961,108.00932312011719,65535.0
19430.5219195262,390.60369873046875,702.6043701171875,-34.99756622314453,-123.79780578613281,-8.427702903747559,65.76092529296875,32.2474250793457,88.37471008300781,113.44239044189453,65535.0
19430.522319534753,399.4551696777344,702.35400390625,-33.705848693847656,-125.83047485351562,-15.274572372436523,55.0623779296875,25.14762306213379,83.2313003540039,112.68028259277344,65535.0
19430.522719543307,399.12774658203125,708.2852783203125,-24.997661590576172,-124.19991302490234,-18.742399215698242,52.286712646484375,24.57994842529297,79.35059356689453,116.54885864257812,65535.0
19430.523119551857,395.81158447265625,713.0989990234375,-25.455739974975586,-143.23837280273438,-17.229080200195312,52.416595458984375,24.64195442199707,79.80754852294922,121.95636749267578,65535.0
19430.52351956041,387.4807434082031,711.8490600585938,-21.47966957092285,-136.74002075195312,-25.057119369506836,42.5644645690918,18.176040649414062,75.82528686523438,109.79019165039062,65535.0
19430.523919568965,383.9870910644531,720.9285888671875,-25.928390502929688,-116.87987518310547,-19.290164947509766,46.7679328918457,20.049928665161133,80.18348693847656,118.6581039428711,65535.0
19430.52431957752,397.9991455078125,709.93603515625,-21.877044677734375,-119.84612274169922,-19.80862808227539,43.324581146240234,18.283403396606445,75.08829498291016,124.12999725341797,65535.0
19430.52471958607,407.1050720214844,705.4739990234375,-28.66292953491211,-165.98629760742188,-26.66286849975586,36.60207748413086,15.448851585388184,70.48151397705078,117.82727813720703,65535.0
19430.525119594622,409.59344482421875,710.6224975585938,-24.569496154785156,-237.3694610595703,-25.618852615356445,37.13117599487305,15.772208213806152,73.2275390625,111.7697525024414,65535.0
19430.525519603176,412.9989929199219,705.8610229492188,-21.03038787841797,-296.0640869140625,-26.11756134033203,35.03877258300781,12.643604278564453,70.54536437988281,109.18244171142578,65535.0
19430.525919611726,410.1502990722656,699.4907836914062,-20.406003952026367,-352.8975524902344,-35.33787155151367,23.863279342651367,6.414861679077148,61.250213623046875,118.78974151611328,65535.0
19430.52631962028,417.5864562988281,707.6988525390625,-29.846466064453125,-390.52978515625,-29.531818389892578,28.5395450592041,8.910361289978027,62.55732345581055,104.265869140625,65535.0
19430.526719628833,436.1103515625,702.6719970703125,-37.7603645324707,-401.8535461425781,-36.2431640625,24.867938995361328,4.171957969665527,59.241477966308594,113.48928833007812,65535.0
19430.527119637387,434.33453369140625,697.1925048828125,-49.91770935058594,-380.1549072265625,-37.51663589477539,24.471750259399414,4.2619500160217285,61.00845718383789,120.54535675048828,65535.0
19430.527519645937,428.3827209472656,687.8584594726562,-43.819950103759766,-325.27484130859375,-33.8175048828125,30.148252487182617,8.14525032043457,60.69062805175781,122.39269256591797,65535.0
19430.52791965449,439.6292724609375,686.9636840820312,-38.619102478027344,-252.24024963378906,-29.81143569946289,33.68826675415039,8.081205368041992,67.58056640625,121.77545166015625,65535.0
19430.528319663044,462.9734191894531,681.5308837890625,-25.888309478759766,-191.6722412109375,-27.520051956176758,35.348445892333984,11.219904899597168,69.03849792480469,116.81193542480469,65535.0
19430.528719671594,459.75177001953125,679.3729248046875,-28.237689971923828,-194.73193359375,-27.51287078857422,38.2781982421875,13.426714897155762,70.85078430175781,107.31718444824219,65535.0
19430.529119680148,459.50970458984375,679.4803466796875,-40.3940544128418,-230.41522216796875,-27.588268280029297,39.3128776550293,12.987818717956543,71.6502685546875,110.60873413085938,65535.0
19430.529519688702,463.341064453125,682.5581665039062,-46.46400451660156,-238.66232299804688,-29.560741424560547,36.199363708496094,12.995991706848145,66.93090057373047,118.91327667236328,65535.0
19430.529919697256,479.90582275390625,675.4443359375,-47.91707229614258,-239.2926788330078,-25.426340103149414,42.99249267578125,14.293272018432617,74.28710174560547,116.1610336303711,65535.0
19430.530319705806,481.8253173828125,670.89453125,-45.93444061279297,-231.86599731445312,-22.649295806884766,48.32090759277344,18.563583374023438,74.10578155517578,114.12218475341797,65535.0
19430.53071971436,448.9059143066406,672.7701416015625,-42.25553894042969,-182.516357421875,-15.961884498596191,56.258243560791016,23.53745460510254,81.43360900878906,108.10650634765625,65535.0
19430.531119722913,439.5321350097656,667.5751953125,-44.996177673339844,-136.2154998779297,-16.9949951171875,56.4791259765625,22.696985244750977,80.14743041992188,103.2260513305664,65535.0
19430.531519731463,451.1293029785156,670.6259155273438,-40.85566711425781,-93.83372497558594,-21.50043487548828,53.59218978881836,21.36855697631836,81.27403259277344,118.79874420166016,65535.0
19430.531919740017,443.7326354980469,671.67236328125,-44.79283142089844,-85.14196014404297,-22.021211624145508,52.432159423828125,17.148950576782227,76.15372467041016,127.78044891357422,65535.0
19430.53231974857,434.4248962402344,667.5133056640625,-57.62543869018555,-82.9775161743164,-20.091033935546875,59.104705810546875,20.557640075683594,79.93753051757812,101.50645446777344,65535.0
19430.532719757124,425.8197021484375,663.6371459960938,-66.531005859375,-48.33670425415039,-15.000280380249023,64.32940673828125,27.587797164916992,83.62506866455078,112.89954376220703,65535.0
19430.533119765674,412.83428955078125,670.1093139648438,-59.80226516723633,-24.484987258911133,-19.513763427734375,62.381736755371094,23.03264617919922,76.99359130859375,111.83284759521484,65535.0
19430.533519774228,399.7610168457031,666.946533203125,-53.53377914428711,4.3382415771484375,-5.341561794281006,75.6635513305664,35.55738830566406,90.68760681152344,100.79914855957031,65535.0
19430.53391978278,399.4847717285156,655.8873901367188,-49.62774658203125,17.605045318603516,-1.3435792922973633,82.57462310791016,39.555057525634766,96.65619659423828,113.55382537841797,65535.0
19430.53431979133,393.62933349609375,666.2655029296875,-52.43404769897461,5.427175521850586,-7.424111843109131,78.74909973144531,34.3946533203125,90.10307312011719,113.16450500488281,65535.0
19430.534719799885,378.1741638183594,675.2732543945312,-43.643192291259766,-13.242552757263184,-4.607120513916016,78.30593872070312,36.07755661010742,93.27890014648438,97.8415756225586,65535.0
19430.53511980844,385.11676025390625,671.6700439453125,-45.20842742919922,-45.78794860839844,-5.7148871421813965,78.13078308105469,34.324684143066406,93.09636688232422,118.17622375488281,65535.0
19430.535519816993,370.93017578125,669.9971923828125,-51.9412727355957,-69.44217681884766,-11.984415054321289,71.51643371582031,29.76194190979004,86.102294921875,112.36920928955078,65535.0
19430.535919825543,364.0102844238281,667.443115234375,-46.76116180419922,-112.21174621582031,-6.386860370635986,75.96122741699219,31.89334487915039,91.06228637695312,106.30289459228516,65535.0
19430.536319834097,367.9873352050781,669.427490234375,-43.94485092163086,-133.3216094970703,-11.93023681640625,75.9708480834961,30.851512908935547,86.52169799804688,118.29546356201172,65535.0
19430.53671984265,363.86553955078125,673.7865600585938,-43.204002380371094,-116.24046325683594,-4.839849472045898,76.6507568359375,34.09757995605469,90.54995727539062,126.92232513427734,65535.0
19430.5371198512,358.65087890625,674.2998657226562,-37.27311706542969,-109.30070495605469,6.203098297119141,87.54299926757812,43.477237701416016,102.52982330322266,116.76185607910156,65535.0
19430.537519859754,361.683837890625,667.1829223632812,-29.844636917114258,-87.65058135986328,-4.471939563751221,78.81758880615234,34.156612396240234,92.2667236328125,114.40306854248047,65535.0
19430.537919868308,354.613037109375,660.2484741210938,-34.77200698852539,-59.39596939086914,-5.6801252365112305,77.20111083984375,33.740665435791016,92.72962951660156,104.32884979248047,65535.0
19430.53831987686,338.7124938964844,667.1375732421875,-33.44227981567383,-50.653968811035156,-2.265524387359619,78.9540786743164,35.04161071777344,94.09796905517578,110.35604858398438,65535.0
19430.53871988541,319.1007385253906,682.6993408203125,-33.53990173339844,-50.99894714355469,-7.003620624542236,76.8138656616211,32.9762077331543,90.76951599121094,112.11898803710938,65535.0
19430.539119893965,310.1393737792969,681.490234375,-35.073028564453125,-62.865394592285156,-11.240650177001953,67.89096069335938,30.00576400756836,86.74932098388672,114.60883331298828,65535.0
19430.53951990252,316.7388610839844,684.0889892578125,-37.349971771240234,-81.59107971191406,-2.317751169204712,76.56643676757812,36.28971862792969,94.53068542480469,124.51519775390625,65535.0
19430.53991991107,319.9941711425781,680.9081420898438,-37.916683197021484,-84.41278076171875,-2.0191056728363037,78.8935546875,35.746376037597656,96.40583801269531,116.92753601074219,65535.0
19430.540319919623,330.0719299316406,689.7162475585938,-34.570674896240234,-76.1058349609375,-4.410096645355225,74.62156677246094,34.92939758300781,92.670166015625,112.08110046386719,65535.0
19430.540719928176,354.3632507324219,695.2242431640625,-25.517621994018555,-99.486083984375,-8.069557189941406,68.5208511352539,33.89912033081055,89.54801940917969,103.28565216064453,65535.0
19430.54111993673,354.1548156738281,695.6324462890625,-27.943178176879883,-100.52519226074219,-8.366178512573242,65.98432922363281,32.42818832397461,90.90645599365234,117.51686096191406,65535.0
19430.54151994528,351.581298828125,697.212158203125,-39.41580581665039,-76.34307861328125,-11.242268562316895,62.15004348754883,29.021957397460938,85.70904541015625,122.03569030761719,65535.0
19430.541919953834,356.8282165527344,699.6087646484375,-32.9272346496582,-60.381858825683594,-19.8057861328125,52.784942626953125,24.992055892944336,77.54106903076172,123.80341339111328,65535.0
19430.542319962387,358.3274230957031,702.1831665039062,-34.032440185546875,-41.87565231323242,-12.596596717834473,58.21190643310547,30.046260833740234,83.09141540527344,118.14142608642578,65535.0
19430.542719970937,355.8577880859375,713.4639282226562,-25.908435821533203,-20.70133399963379,-12.77556037902832,60.233089447021484,30.433197021484375,84.35566711425781,110.595947265625,65535.0
19430.54311997949,366.5316467285156,717.7542724609375,-35.11909103393555,-19.769166946411133,-20.231399536132812,45.814239501953125,17.311925888061523,74.53582000732422,113.18427276611328,65535.0
19430.543519988045,358.08477783203125,710.0914916992188,-38.431602478027344,-20.608152389526367,-24.954309463500977,40.01847839355469,19.15372085571289,72.3294448852539,113.27448272705078,65535.0
19430.5439199966,372.1904296875,705.36865234375,-33.85484313964844,-20.493549346923828,-19.222475051879883,43.85476303100586,22.09627342224121,76.75265502929688,122.05657958984375,65535.0
19430.54432000515,389.58404541015625,706.4539794921875,-32.90212631225586,-56.59199142456055,-14.41235065460205,50.033119201660156,26.663164138793945,80.97261047363281,121.04096221923828,65535.0
19430.544720013702,390.6531677246094,699.345458984375,-35.92597198486328,-88.8819808959961,-18.571393966674805,46.133853912353516,23.166187286376953,80.38375091552734,120.35348510742188,65535.0
19430.545120022256,371.15472412109375,691.683349609375,-36.57453536987305,-96.3282470703125,-23.129154205322266,41.462589263916016,17.840312957763672,74.7760009765625,113.68339538574219,65535.0
19430.545520030806,327.6020202636719,693.2278442382812,-50.49024963378906,-68.33707427978516,-36.384273529052734,24.74517822265625,2.7372400760650635,61.63711929321289,109.11551666259766,65535.0
19430.54592003936,297.5522766113281,702.0184326171875,-64.40068817138672,-44.5062141418457,-38.39338684082031,23.464860916137695,0.901197075843811,57.404964447021484,112.74331665039062,65535.0
19430.546320047913,294.9658203125,688.223876953125,-60.846439361572266,-29.450218200683594,-36.204593658447266,26.916831970214844,5.965846061706543,64.41250610351562,122.14876556396484,65535.0
19430.546720056467,328.29473876953125,688.3961791992188,-51.205772399902344,-44.8341064453125,-18.319122314453125,41.628997802734375,21.652786254882812,77.76705169677734,107.57469940185547,65535.0
19430.547120065017,366.6998596191406,688.7872314453125,-51.172061920166016,-84.31305694580078,-28.868602752685547,32.00328063964844,14.003030776977539,68.5042724609375,105.27880859375,65535.0
19430.54752007357,381.7481384277344,693.26708984375,-44.705326080322266,-129.3511962890625,-33.56122589111328,27.577959060668945,6.659213542938232,64.0048828125,113.43630981445312,65535.0
19430.547920082125,404.47882080078125,692.558837890625,-41.05807113647461,-166.28407287597656,-16.82265853881836,45.126766204833984,20.657915115356445,78.82860565185547,114.8379135131836,65535.0
19430.548320090675,418.234130859375,691.0192260742188,-35.52497482299805,-162.4129180908203,-19.965225219726562,48.88380813598633,21.414289474487305,76.87458801269531,107.92534637451172,65535.0
19430.54872009923,439.6405029296875,681.6791381835938,-32.82633590698242,-148.3798370361328,-19.129785537719727,48.533687591552734,19.73332977294922,78.36156463623047,117.67442321777344,65535.0
19430.549120107782,466.1900939941406,684.155517578125,-40.908912658691406,-152.18690490722656,-26.825109481811523,37.820213317871094,13.433310508728027,68.22283172607422,116.79438781738281,65535.0
19430.549520116336,459.0982360839844,692.8916015625,-41.92173767089844,-141.36959838867188,-25.665294647216797,40.109703063964844,14.262079238891602,69.91759490966797,104.0186538696289,65535.0
19430.549920124886,450.8424072265625,691.0865478515625,-48.15745544433594,-116.27710723876953,-15.411752700805664,49.015228271484375,22.085079193115234,77.49488830566406,107.00125885009766,65535.0
19430.55032013344,445.25445556640625,683.890625,-42.20257568359375,-99.56009674072266,-16.07330894470215,52.085906982421875,25.172590255737305,81.41498565673828,119.43061065673828,65535.0
19430.550720141993,411.25653076171875,677.9815673828125,-43.74047088623047,-93.44393157958984,-15.28579044342041,57.67137145996094,25.71697998046875,87.20465850830078,115.44441986083984,65535.0
19430.551120150543,400.5150451660156,675.6986694335938,-32.04255294799805,-90.34880065917969,-12.52025032043457,59.546504974365234,25.259796142578125,85.80192565917969,110.30345916748047,65535.0
19430.551520159097,408.55987548828125,669.7684936523438,-45.955718994140625,-93.3622055053711,-11.957273483276367,64.59138488769531,30.77300453186035,87.03953552246094,114.48367309570312,65535.0
19430.55192016765,407.169677734375,671.1724243164062,-55.881866455078125,-107.33228302001953,-9.417195320129395,69.78758239746094,31.08662223815918,89.63916778564453,112.25057220458984,65535.0
19430.552320176204,402.3946838378906,672.6978759765625,-56.121578216552734,-107.43963623046875,-14.858485221862793,63.44820022583008,25.579242706298828,83.0915756225586,118.59947967529297,65535.0
19430.552720184754,403.28106689453125,652.7163696289062,-54.90675354003906,-121.28507232666016,-8.520952224731445,69.70243835449219,33.47629928588867,89.74683380126953,113.6844253540039,65535.0
19430.553120193308,416.8766174316406,660.345947265625,-55.151954650878906,-144.8094482421875,-4.987280368804932,75.15805053710938,35.73067092895508,89.152099609375,114.94398498535156,65535.0
19430.553520201862,418.8255310058594,670.62939453125,-60.830833435058594,-134.8593292236328,-4.612334728240967,80.61870574951172,35.07890319824219,95.1678237915039,104.40084075927734,65535.0
19430.553920210412,400.31488037109375,672.1118774414062,-61.12178421020508,-101.75331115722656,-4.805009365081787,81.72427368164062,38.05702590942383,91.83499908447266,91.27098083496094,65535.0
19430.554320218966,372.936767578125,671.0676879882812,-57.5077018737793,-82.74292755126953,-1.0978375673294067,83.40221405029297,38.880733489990234,96.0347671508789,111.45220947265625,65535.0
19430.55472022752,363.8522033691406,669.3335571289062,-50.790306091308594,-87.80835723876953,-2.8321826457977295,84.54903411865234,37.44838333129883,95.08949279785156,111.82400512695312,65535.0
19430.555120236073,377.5699768066406,669.0485229492188,-45.74062728881836,-98.9535140991211,-7.763245582580566,78.0823745727539,34.553367614746094,93.14146423339844,109.37406921386719,65535.0
19430.555520244623,396.88690185546875,664.716796875,-54.84375762939453,-107.83574676513672,-16.39740753173828,68.54630279541016,26.121891021728516,80.52433013916016,107.35514068603516,65535.0
19430.555920253177,405.188720703125,670.19775390625,-45.539974212646484,-114.36949920654297,-6.53863525390625,76.54707336425781,32.296905517578125,91.22209930419922,100.21051025390625,65535.0
19430.55632026173,394.50823974609375,668.9580078125,-37.874176025390625,-129.02993774414062,-4.385941982269287,78.69096374511719,36.10538864135742,91.79729461669922,106.24171447753906,65535.0
19430.55672027028,378.30413818359375,666.5712280273438,-34.925514221191406,-111.191650390625,-5.706554889678955,77.37335968017578,33.962886810302734,92.52900695800781,110.89774322509766,65535.0
19430.557120278834,372.7989807128906,670.6409912109375,-29.061843872070312,-107.93140411376953,-6.928452014923096,75.3287353515625,32.7183837890625,87.91754913330078,110.38445281982422,65535.0
19430.557520287388,366.51068115234375,673.412841796875,-32.891937255859375,-125.11848449707031,-10.695775985717773,68.5585708618164,29.222686767578125,84.56864929199219,110.57605743408203,65535.0
19430.55792029594,378.4482116699219,666.3915405273438,-39.27812576293945,-140.95574951171875,-11.921669006347656,68.23721313476562,27.097103118896484,83.40122985839844,106.96263122558594,65535.0
19430.55832030449,355.66961669921875,672.864990234375,-36.88005065917969,-150.5534210205078,-12.327532768249512,68.45957946777344,27.981292724609375,86.3292465209961,100.5433349609375,65535.0
19430.558720313045,329.03387451171875,668.625732421875,-37.37455749511719,-156.15663146972656,-11.00140380859375,68.93933868408203,27.971712112426758,85.36783599853516,110.72085571289062,65535.0
19430.5591203216,351.3047180175781,668.8339233398438,-28.98650360107422,-161.1276092529297,-13.304718017578125,65.14156341552734,26.512928009033203,84.40306854248047,112.25865936279297,65535.0
19430.55952033015,366.42132568359375,673.2378540039062,-34.284156799316406,-173.45681762695312,-18.03887367248535,59.15262222290039,23.433731079101562,81.44190979003906,113.9662857055664,65535.0
19430.559920338703,381.1396789550781,684.4987182617188,-26.613161087036133,-205.44444274902344,-18.338850021362305,59.135860443115234,22.902786254882812,78.93324279785156,111.84700775146484,65535.0
19430.560320347256,369.5400390625,686.9578857421875,-29.814666748046875,-219.90354919433594,-18.459335327148438,54.05537414550781,18.853364944458008,77.50421905517578,99.83023834228516,65535.0
19430.56072035581,361.584228515625,681.7776489257812,-34.70976638793945,-247.62838745117188,-17.939477920532227,56.876224517822266,21.790546417236328,76.27628326416016,111.69193267822266,65535.0
19430.56112036436,356.5647277832031,678.3406982421875,-31.908397674560547,-253.82101440429688,-21.945663452148438,50.00968551635742,17.177736282348633,76.19620513916016,116.8269271850586,65535.0
19430.561520372914,366.465576171875,691.241943359375,-31.475215911865234,-261.14306640625,-23.122140884399414,45.70690155029297,14.004081726074219,73.56149291992188,100.57733154296875,65535.0
19430.561920381468,380.0606994628906,697.5096435546875,-28.123441696166992,-269.78680419921875,-21.866945266723633,49.08342361450195,20.768104553222656,75.79428100585938,106.29124450683594,65535.0
19430.562320390018,370.5610046386719,695.0599975585938,-30.77320671081543,-232.83851623535156,-26.87639808654785,41.568485260009766,15.738802909851074,70.14359283447266,111.00696563720703,65535.0
19430.56272039857,361.8589782714844,699.8695068359375,-34.508487701416016,-152.86245727539062,-26.445777893066406,37.95982360839844,13.080039024353027,71.94703674316406,112.6973648071289,65535.0
19430.563120407125,347.0789794921875,692.2481079101562,-31.767967224121094,-40.87196731567383,-25.170642852783203,38.273258209228516,12.35863971710205,70.87608337402344,102.53174591064453,65535.0
19430.56352041568,353.65789794921875,687.359619140625,-26.25672721862793,14.174325942993164,-18.92559814453125,44.00678634643555,22.50230598449707,79.6486587524414,121.04234313964844,65535.0
19430.56392042423,366.0542297363281,699.5030517578125,-31.986024856567383,13.14883804321289,-24.75922393798828,39.89814376831055,16.842485427856445,74.3418960571289,109.59667205810547,65535.0
19430.564320432783,370.7597351074219,698.290283203125,-30.162944793701172,-16.903398513793945,-25.884723663330078,35.06736373901367,12.008611679077148,70.5854263305664,107.38690948486328,65535.0
19430.564720441336,380.4489440917969,689.7273559570312,-22.382583618164062,-80.27146911621094,-30.355491638183594,34.518550872802734,12.375714302062988,67.115478515625,105.27509307861328,65535.0
19430.565120449886,374.6263122558594,679.4776611328125,-29.21964454650879,-127.54034423828125,-26.56680679321289,33.896202087402344,12.930915832519531,69.4554443359375,100.91157531738281,65535.0
19430.56552045844,369.0727844238281,680.39501953125,-30.485414505004883,-164.9799041748047,-24.49142074584961,36.985740661621094,8.794143676757812,70.36924743652344,107.57010650634766,65535.0
19430.565920466994,357.9603576660156,677.5872802734375,-43.000633239746094,-190.90928649902344,-23.667570114135742,40.97393798828125,21.244455337524414,74.53292083740234,124.20121002197266,65535.0
19430.566320475547,342.7672424316406,674.5040283203125,-47.49582290649414,-176.15357971191406,-31.28789710998535,30.345535278320312,10.282491683959961,63.18783187866211,120.75466918945312,65535.0
19430.566720484097,341.6871032714844,676.2540283203125,-45.81785202026367,-109.42452239990234,-35.554054260253906,25.977319717407227,4.234202861785889,63.20509338378906,107.30439758300781,65535.0
19430.56712049265,347.9566650390625,676.4630737304688,-43.41866683959961,-54.877967834472656,-26.203977584838867,37.85282516479492,17.158018112182617,73.59419250488281,95.80862426757812,65535.0
19430.567520501205,356.8443603515625,677.7671508789062,-45.445030212402344,-16.04683494567871,-22.10500144958496,42.1828727722168,18.923107147216797,76.28038787841797,97.46414184570312,65535.0
19430.567920509755,367.9044189453125,682.3389282226562,-51.36728286743164,17.327993392944336,-23.783884048461914,44.674774169921875,19.32380485534668,73.33934020996094,106.4648208618164,65535.0
19430.56832051831,364.25396728515625,681.9186401367188,-36.787315368652344,19.2524471282959,-20.20181655883789,47.702110290527344,20.44390296936035,77.44640350341797,115.09363555908203,65535.0
19430.568720526862,358.8171081542969,673.1409912109375,-42.45793533325195,-2.7027080059051514,-20.61543083190918,44.74376678466797,17.477680206298828,74.56024169921875,98.1718521118164,65535.0
19430.569120535416,368.5118103027344,665.37451171875,-41.682071685791016,-18.44124984741211,-25.106996536254883,45.59893798828125,16.417125701904297,74.56076049804688,116.49981689453125,65535.0
19430.569520543966,364.6819152832031,677.5784912109375,-34.66510772705078,-49.17024230957031,-21.332809448242188,46.63998031616211,20.10407829284668,76.84532928466797,104.4214859008789,65535.0
19430.56992055252,352.9351501464844,678.6092529296875,-51.3527946472168,-80.11019897460938,-14.286317825317383,55.31761169433594,27.160634994506836,83.39412689208984,108.31022644042969,65535.0
19430.570320561073,329.109375,668.3994750976562,-59.18880081176758,-103.90795135498047,-22.616344451904297,47.55231475830078,17.68216323852539,74.77751159667969,110.12330627441406,65535.0
19430.570720569624,310.4485168457031,663.61572265625,-49.6697998046875,-99.18710327148438,-20.70380401611328,47.703948974609375,18.18075942993164,75.99756622314453,112.92881774902344,65535.0
19430.571120578177,304.9772033691406,664.5267333984375,-54.76885223388672,-106.18006896972656,-16.18578338623047,57.72855758666992,19.281442642211914,78.65373992919922,123.520751953125,65535.0
19430.57152058673,307.3421936035156,661.2500610351562,-59.5867919921875,-109.92449188232422,-20.839632034301758,51.61142349243164,17.55089569091797,74.86575317382812,113.36526489257812,65535.0
19430.571920595285,344.8620910644531,659.5982666015625,-57.74989318847656,-111.09805297851562,-14.218363761901855,63.28451919555664,25.897193908691406,80.87545013427734,100.27620697021484,65535.0
19430.572320603835,375.075439453125,659.2891235351562,-55.6364860534668,-109.67986297607422,-8.957870483398438,67.98841094970703,30.900390625,86.71955108642578,110.21517181396484,65535.0
19430.57272061239,368.6171875,654.5513916015625,-51.790042877197266,-120.23973083496094,-12.250930786132812,64.31471252441406,29.630260467529297,86.56314849853516,106.39400482177734,65535.0
19430.573120620942,361.6970520019531,648.267578125,-51.949764251708984,-115.17684936523438,-13.375524520874023,64.99708557128906,26.16497230529785,81.3379898071289,109.01433563232422,65535.0
19430.573520629492,362.0027160644531,635.4014282226562,-47.835453033447266,-106.10755920410156,-12.031871795654297,67.96918487548828,27.509498596191406,84.28579711914062,105.63835144042969,65535.0
19430.573920638046,376.1954650878906,648.7466430664062,-51.968772888183594,-104.23737335205078,-3.607714891433716,76.92422485351562,35.39347839355469,91.39034271240234,104.44824981689453,65535.0
19430.5743206466,391.4858093261719,644.4588623046875,-46.2301025390625,-110.59406280517578,-5.509016990661621,77.62220001220703,33.49651336669922,92.04044342041016,111.4233169555664,65535.0
19430.574720655153,396.2114562988281,647.01171875,-48.09211349487305,-87.32697296142578,-8.367921829223633,77.55699157714844,33.709720611572266,91.71862030029297,110.51410675048828,65535.0
19430.575120663703,379.5387268066406,659.373291015625,-43.164546966552734,-62.33805465698242,-3.992644786834717,80.02452850341797,38.98674011230469,95.54961395263672,111.7977294921875,65535.0
19430.575520672257,379.21563720703125,652.7987060546875,-40.43204879760742,-41.36587905883789,-1.2455952167510986,86.0455093383789,41.36024475097656,97.13763427734375,112.15501403808594,65535.0
19430.57592068081,375.45361328125,668.6161499023438,-39.815792083740234,-34.68308639526367,1.0374397039413452,89.4375991821289,42.16957473754883,102.1413803100586,97.47977447509766,65535.0
19430.57632068936,381.29046630859375,668.2598266601562,-35.64602279663086,-37.76523971557617,-10.836165428161621,74.59234619140625,30.431583404541016,85.97455596923828,110.40786743164062,65535.0
19430.576720697914,391.7576904296875,662.8333740234375,-29.6953182220459,-1.6810044050216675,-3.589129686355591,82.06897735595703,38.0001220703125,94.37830352783203,117.19379425048828,65535.0
19430.577120706468,391.0574951171875,665.6431274414062,-39.79570770263672,-9.494443893432617,-6.3975443840026855,77.5792236328125,34.70754623413086,92.56871795654297,114.75700378417969,65535.0
19430.577520715022,402.6867980957031,665.9690551757812,-32.029972076416016,-50.03048324584961,-8.456709861755371,71.84649658203125,30.006731033325195,89.59828186035156,102.23114776611328,65535.0
19430.577920723572,410.4212951660156,677.4329223632812,-37.44365692138672,-31.68628692626953,-20.081335067749023,56.36751174926758,18.62305450439453,75.51268005371094,105.86036682128906,65535.0
19430.578320732126,425.13861083984375,666.0379638671875,-42.93964767456055,6.254158020019531,-9.031865119934082,68.1957015991211,30.003355026245117,88.61702728271484,114.26451873779297,65535.0
19430.57872074068,421.411376953125,664.509521484375,-31.550460815429688,33.1609001159668,-14.17590045928955,65.271728515625,26.376726150512695,81.23487091064453,104.79412078857422,65535.0
19430.57912074923,407.5299072265625,657.169921875,-39.661739349365234,22.627864837646484,-10.213069915771484,65.49114227294922,26.548948287963867,81.34491729736328,113.99935150146484,65535.0
19430.579520757783,405.6994323730469,645.116943359375,-42.75331497192383,-22.72374725341797,-13.580252647399902,63.2741584777832,27.82267951965332,84.09406280517578,118.96885681152344,65535.0
19430.579920766337,404.26483154296875,638.135986328125,-32.81134033203125,-104.55834197998047,-16.071683883666992,57.008487701416016,22.438549041748047,80.2642822265625,123.81021118164062,65535.0
19430.58032077489,413.5984802246094,632.9803466796875,-39.91249465942383,-199.96194458007812,-31.58125877380371,40.59125900268555,10.616644859313965,67.28832244873047,114.10358428955078,65535.0
19430.58072078344,407.30853271484375,630.1683349609375,-34.368404388427734,-231.2410430908203,-26.454551696777344,40.346153259277344,11.34361743927002,69.57913208007812,109.04988098144531,65535.0
19430.581120791994,378.0994873046875,626.162841796875,-32.37242889404297,-211.33897399902344,-31.02762222290039,39.094764709472656,9.160558700561523,67.78813171386719,114.83434295654297,65535.0
19430.581520800548,341.47589111328125,628.589111328125,-26.210058212280273,-159.4769744873047,-36.44995880126953,33.57121276855469,6.22269344329834,63.34958267211914,114.41592407226562,65535.0
19430.581920809098,339.36871337890625,627.9537353515625,-25.69356918334961,-119.43915557861328,-36.07079315185547,32.86897659301758,5.477537155151367,63.097782135009766,105.5731201171875,65535.0
19430.58232081765,347.6802062988281,641.125,-28.986574172973633,-101.49431610107422,-26.38299560546875,40.4947624206543,11.07531452178955,68.73307800292969,101.93526458740234,65535.0
19430.582720826205,365.9972229003906,641.2180786132812,-24.016860961914062,-100.43096923828125,-25.943735122680664,37.89005661010742,13.045284271240234,69.03732299804688,100.23737335205078,65535.0
19430.58312083476,383.86871337890625,641.4750366210938,-32.66380310058594,-81.6919937133789,-21.726314544677734,41.98289489746094,17.336101531982422,72.15178680419922,107.87043762207031,65535.0
19430.58352084331,392.38580322265625,636.6588134765625,-27.941261291503906,-71.31063079833984,-22.77715492248535,41.91084671020508,14.649737358093262,73.46890258789062,103.28526306152344,65535.0
19430.583920851863,398.1263732910156,629.11865234375,-21.112464904785156,-82.61747741699219,-32.3306884765625,34.421749114990234,10.621792793273926,68.09148406982422,103.16419219970703,65535.0
19430.584320860416,403.1128234863281,623.2833251953125,-27.28641700744629,-80.74054718017578,-24.429794311523438,37.64933395385742,14.702162742614746,72.09194946289062,109.07633972167969,65535.0
19430.584720868967,397.243408203125,615.1817626953125,-34.54044723510742,-71.5895767211914,-25.086090087890625,34.093414306640625,14.232133865356445,71.42547607421875,104.8431625366211,65535.0
19430.58512087752,415.3509521484375,610.16650390625,-32.62087631225586,-69.05933380126953,-40.83675765991211,19.323589324951172,1.8228015899658203,56.582035064697266,117.99199676513672,65535.0
19430.585520886074,416.1963195800781,595.0590209960938,-18.408994674682617,-73.34166717529297,-23.841928482055664,38.37250900268555,18.32769203186035,76.36085510253906,122.97701263427734,65535.0
19430.585920894628,406.9595947265625,580.9823608398438,-32.589881896972656,-88.66789245605469,-28.22270965576172,33.3361701965332,13.452186584472656,67.41475677490234,114.37032318115234,65535.0
19430.586320903178,407.18890380859375,589.7857666015625,-39.261383056640625,-136.39511108398438,-24.35148811340332,35.742095947265625,12.759602546691895,74.32389831542969,101.2853775024414,65535.0
19430.58672091173,409.7853088378906,584.7062377929688,-42.298484802246094,-176.4700164794922,-21.207075119018555,40.32140350341797,17.166357040405273,75.51488494873047,110.23065185546875,65535.0
19430.587120920285,413.74041748046875,588.3002319335938,-43.58281326293945,-185.72425842285156,-19.40570640563965,41.198699951171875,19.682449340820312,74.89525604248047,106.49146270751953,65535.0
19430.587520928835,411.9715576171875,591.821044921875,-33.3726806640625,-174.5683135986328,-19.852956771850586,43.79789352416992,19.91356658935547,77.9056396484375,109.93008422851562,65535.0
19430.58792093739,401.9519348144531,583.1138305664062,-32.95087814331055,-184.73597717285156,-23.667930603027344,41.93999481201172,16.498680114746094,73.64653778076172,115.45329284667969,65535.0
19430.588320945943,405.55999755859375,588.2648315429688,-29.202796936035156,-184.51724243164062,-23.984527587890625,42.50803756713867,15.437695503234863,71.47124481201172,121.75411987304688,65535.0
19430.588720954496,413.6567077636719,579.9839477539062,-31.2647762298584,-163.88253784179688,-23.369449615478516,42.899105072021484,17.75080108642578,75.97389221191406,105.22053527832031,65535.0
19430.589120963046,395.50244140625,585.7464599609375,-33.694698333740234,-165.31900024414062,-16.519166946411133,53.0543327331543,27.6373233795166,81.8364028930664,103.63939666748047,65535.0
19430.5895209716,389.09979248046875,583.7694091796875,-33.47514724731445,-173.88272094726562,-16.654590606689453,55.20629119873047,26.78772735595703,80.79949951171875,103.2804946899414,65535.0
19430.589920980154,407.4917297363281,570.5491333007812,-18.560752868652344,-167.28932189941406,-20.885181427001953,51.72587966918945,19.30936050415039,77.48477172851562,110.8232192993164,65535.0
19430.590320988704,423.8571472167969,561.9717407226562,-24.900144577026367,-150.37234497070312,-15.985109329223633,56.04482650756836,26.602617263793945,80.330078125,108.88616180419922,65535.0
19430.590720997257,419.23724365234375,557.1793212890625,-25.761009216308594,-136.67568969726562,-13.657766342163086,60.71482467651367,29.267587661743164,84.14479064941406,102.96884155273438,65535.0
19430.59112100581,407.9537658691406,540.933349609375,-23.718425750732422,-100.3884506225586,-22.219715118408203,50.947757720947266,18.95012664794922,75.86583709716797,108.4873275756836,65535.0
19430.591521014365,410.0055236816406,525.8511962890625,-34.746971130371094,-48.99237060546875,-20.599620819091797,49.91215133666992,16.081701278686523,74.03042602539062,105.0363540649414,65535.0
19430.591921022915,419.7499694824219,527.0931396484375,-24.421382904052734,19.848363876342773,-19.963979721069336,53.06375503540039,17.665611267089844,76.10041809082031,99.42514038085938,65535.0
19430.59232103147,408.90185546875,529.6118774414062,-9.691396713256836,79.43370056152344,-15.69165325164795,63.29521560668945,26.420480728149414,81.8149185180664,111.71536254882812,65535.0
19430.592721040022,408.41558837890625,523.2391357421875,-10.336345672607422,91.2232437133789,-17.11266326904297,65.7139892578125,27.195186614990234,83.37931823730469,103.53785705566406,65535.0
19430.593121048572,405.99810791015625,504.9712829589844,-0.8440867066383362,61.197818756103516,-9.149898529052734,69.53633880615234,30.55776596069336,88.5663833618164,109.5828857421875,65535.0
19430.593521057126,402.2887878417969,489.7041015625,-14.997262001037598,4.2904133796691895,1.8773837089538574,82.88079071044922,44.18922424316406,96.49566650390625,96.3953857421875,65535.0
19430.59392106568,398.9354553222656,487.72833251953125,1.5204828977584839,-37.18198013305664,3.524752616882324,86.87699890136719,45.22908401489258,97.44015502929688,99.35914611816406,65535.0
19430.594321074233,382.4411315917969,483.3657531738281,6.22698450088501,-64.25281524658203,-8.180615425109863,77.71292114257812,34.10306167602539,91.54096984863281,101.60909271240234,65535.0
19430.594721082784,379.4062805175781,466.58514404296875,-1.9527055025100708,-71.2700424194336,-10.787440299987793,72.58283233642578,30.696901321411133,84.72931671142578,110.00654602050781,65535.0
19430.595121091337,375.9051208496094,469.02593994140625,3.2272274494171143,-72.09541320800781,-6.042804718017578,80.171142578125,33.82875442504883,89.6310043334961,105.95526885986328,65535.0
19430.59552109989,350.16033935546875,462.4276428222656,13.311875343322754,-67.3970947265625,-4.410611152648926,82.93006896972656,33.87059783935547,93.87763214111328,98.77718353271484,65535.0
19430.59592110844,332.71966552734375,463.4426574707031,10.057182312011719,-63.30352020263672,-15.672557830810547,72.77747344970703,27.55391502380371,82.6800308227539,107.01691436767578,65535.0
19430.596321116995,302.6908874511719,463.0826110839844,13.950071334838867,-51.434627532958984,-16.506141662597656,68.26897430419922,21.878711700439453,80.28356170654297,99.81562805175781,65535.0
19430.59672112555,286.50433349609375,474.1630859375,24.913373947143555,-68.19541931152344,1.1826844215393066,85.01111602783203,38.98339080810547,96.20721435546875,104.62032318115234,65535.0
19430.597121134102,291.7651062011719,476.4073791503906,29.607515335083008,-88.67193603515625,3.7131145000457764,90.73574829101562,43.10050964355469,100.1321792602539,107.39933013916016,65535.0
19430.597521142652,306.9499816894531,461.01708984375,32.53960418701172,-96.57439422607422,-2.843202590942383,82.11356353759766,36.58110046386719,94.77044677734375,103.79203033447266,65535.0
19430.597921151206,315.250244140625,447.2724609375,50.007545471191406,-91.42504119873047,-6.645041465759277,72.51596069335938,33.50996780395508,88.59744262695312,96.91533660888672,65535.0
19430.59832115976,318.4427185058594,439.57501220703125,47.96782684326172,-106.43952941894531,-7.45482873916626,71.4452896118164,32.68537902832031,88.83366394042969,108.58643341064453,65535.0
19430.59872116831,327.25567626953125,414.5611877441406,45.28692626953125,-121.4047622680664,-3.559145212173462,77.35917663574219,33.412776947021484,91.60397338867188,121.5647964477539,65535.0
19430.599121176863,342.5343933105469,406.0790710449219,54.461219787597656,-141.44253540039062,-4.059711456298828,75.88508605957031,35.2106819152832,90.82866668701172,108.40888977050781,65535.0
19430.599521185417,358.634521484375,401.53143310546875,60.98944854736328,-152.45831298828125,-19.327505111694336,60.79826736450195,20.61001968383789,77.56998443603516,108.44324493408203,65535.0
19430.599921193967,369.06640625,392.25799560546875,69.58203887939453,-152.85391235351562,-9.563212394714355,66.48155975341797,27.243864059448242,85.3593978881836,105.38646697998047,65535.0
19430.60032120252,373.333251953125,382.0843811035156,72.6334228515625,-136.82127380371094,-13.059619903564453,61.93492889404297,27.48284339904785,83.49502563476562,104.1063003540039,65535.0
19430.600721211074,377.2119445800781,368.44586181640625,71.84996795654297,-108.13819122314453,-20.68850326538086,56.128780364990234,20.099958419799805,77.85026550292969,102.43619537353516,65535.0
19430.601121219628,373.5623779296875,345.91339111328125,68.54528045654297,-82.89808654785156,-12.370296478271484,66.91001892089844,30.201644897460938,86.8615951538086,94.05007934570312,65535.0
19430.601521228178,370.7723388671875,327.668212890625,79.77687072753906,-73.31129455566406,-24.1944637298584,51.43923568725586,17.986732482910156,71.4653549194336,96.39488983154297,65535.0
19430.601921236732,381.9828796386719,316.22735595703125,82.73804473876953,-93.33399963378906,-19.68114471435547,49.83988571166992,18.398412704467773,77.47872161865234,108.10997772216797,65535.0
19430.602321245286,399.0909118652344,311.8825378417969,89.49262237548828,-137.18148803710938,-28.299955368041992,44.00519561767578,15.198962211608887,68.57830047607422,113.33924865722656,65535.0
19430.602721253836,431.38885498046875,311.7745666503906,83.98606872558594,-186.71958923339844,-23.226022720336914,47.615264892578125,18.43547821044922,73.74600982666016,105.67559814453125,65535.0
19430.60312126239,481.8797607421875,294.337158203125,79.3304214477539,-226.92254638671875,-25.774913787841797,43.514137268066406,16.013010025024414,69.7428970336914,108.32584381103516,65535.0
19430.603521270943,488.36846923828125,282.54241943359375,80.12590026855469,-274.5035705566406,-31.66166114807129,32.93337631225586,4.625982761383057,64.8453369140625,97.83274841308594,65535.0
19430.603921279497,492.29833984375,280.3333435058594,74.49004364013672,-288.56512451171875,-24.742368698120117,38.185325622558594,12.691070556640625,69.14753723144531,91.61854553222656,65535.0
19430.604321288047,487.1960144042969,261.4307556152344,76.63648986816406,-279.4825439453125,-21.924955368041992,40.529483795166016,19.651935577392578,75.42940521240234,98.93038177490234,65535.0
19430.6047212966,499.0532531738281,247.78750610351562,70.0865478515625,-227.3702392578125,-28.23809051513672,38.26765823364258,12.557755470275879,69.92453002929688,107.05540466308594,65535.0
19430.605121305154,498.2596435546875,250.40049743652344,60.55973815917969,-189.77847290039062,-24.367815017700195,39.91037368774414,13.747608184814453,72.15029907226562,110.47201538085938,65535.0
19430.605521313704,490.01593017578125,260.9136047363281,53.816471099853516,-168.00975036621094,-26.713016510009766,37.2536735534668,15.1057710647583,72.16907501220703,104.88762664794922,65535.0
19430.605921322258,495.59686279296875,253.27798461914062,40.64557647705078,-165.88380432128906,-29.231382369995117,36.87672424316406,13.843062400817871,69.29388427734375,98.42057037353516,65535.0
19430.60632133081,500.446533203125,248.0015411376953,39.836273193359375,-182.7405548095703,-27.779085159301758,38.50630569458008,13.65395736694336,73.48694610595703,93.84546661376953,65535.0
19430.606721339365,498.9345703125,233.7571563720703,32.00596237182617,-201.45053100585938,-30.960834503173828,34.89113998413086,10.097967147827148,69.05635833740234,94.20024871826172,65535.0
19430.607121347915,483.641845703125,236.83462524414062,18.428606033325195,-239.0067901611328,-29.051734924316406,34.369808197021484,14.062213897705078,68.5982894897461,109.42627716064453,65535.0
19430.60752135647,473.8887023925781,241.62847900390625,15.57453441619873,-251.29876708984375,-32.72844696044922,33.31712341308594,11.514039993286133,63.983116149902344,115.77894592285156,65535.0
19430.607921365023,475.3011474609375,234.54872131347656,19.161052703857422,-240.7253875732422,-25.62641716003418,38.87403106689453,14.037384033203125,71.04646301269531,116.34558868408203,65535.0
19430.608321373573,478.0491943359375,233.70509338378906,12.310585975646973,-238.97027587890625,-30.658437728881836,35.07961654663086,10.12145709991455,66.38373565673828,100.75505065917969,65535.0
19430.608721382127,465.3518981933594,222.25096130371094,0.20992806553840637,-233.7640380859375,-30.53719139099121,36.23112869262695,10.471504211425781,65.93828582763672,99.76909637451172,65535.0
19430.60912139068,462.74627685546875,218.75865173339844,2.2073426246643066,-220.9976348876953,-31.137813568115234,36.110965728759766,8.397793769836426,66.84620666503906,95.74716186523438,65535.0
19430.609521399234,465.9033508300781,216.9287872314453,16.062822341918945,-215.2145538330078,-31.100610733032227,40.07305908203125,7.956450939178467,67.68102264404297,98.25175476074219,65535.0
19430.609921407784,458.5433654785156,224.68931579589844,3.873077869415283,-206.89544677734375,-28.243179321289062,41.13076400756836,11.948906898498535,68.00261688232422,94.24346160888672,65535.0
19430.610321416338,461.44818115234375,214.3887939453125,2.8548543453216553,-203.57675170898438,-18.97818374633789,55.0443229675293,22.537824630737305,79.01862335205078,117.18888092041016,65535.0
19430.61072142489,469.88641357421875,210.0008087158203,2.2806875705718994,-187.34130859375,-29.68613052368164,46.08415603637695,12.888713836669922,69.14059448242188,114.58097839355469,65535.0
19430.61112143344,466.1653747558594,210.60903930664062,-0.1755124181509018,-157.58802795410156,-30.218454360961914,41.33120346069336,12.704907417297363,64.82909393310547,91.63902282714844,65535.0
19430.611521441995,458.383056640625,210.25424194335938,1.5447888374328613,-135.14883422851562,-25.864013671875,49.637481689453125,16.145427703857422,74.36917877197266,94.91703796386719,65535.0
19430.61192145055,455.6634521484375,218.50204467773438,-9.182300567626953,-145.55323791503906,-23.920330047607422,50.643306732177734,13.097929954528809,74.78714752197266,95.64591217041016,65535.0
19430.612321459103,449.0433349609375,222.3160400390625,-17.15831184387207,-199.39346313476562,-14.093329429626465,64.80059814453125,24.665281295776367,80.48164367675781,96.38304138183594,65535.0
19430.612721467653,450.6274108886719,232.00767517089844,-10.696857452392578,-253.73541259765625,-11.32579231262207,69.56108856201172,29.088483810424805,84.58170318603516,96.11607360839844,65535.0
19430.613121476206,466.7189025878906,232.16017150878906,-24.41545295715332,-289.3212585449219,-14.00456428527832,68.42353057861328,24.809879302978516,84.05074310302734,95.32028198242188,65535.0
19430.61352148476,458.3249816894531,233.8716583251953,-43.470062255859375,-350.587646484375,-18.432788848876953,63.45957946777344,20.338090896606445,77.1432876586914,95.38783264160156,65535.0
19430.61392149331,432.4170837402344,251.06207275390625,-46.539276123046875,-403.0386962890625,-23.198570251464844,59.86533737182617,16.861209869384766,74.79691314697266,91.22795104980469,65535.0
19430.614321501864,422.3027038574219,266.48583984375,-52.58367156982422,-429.2984619140625,-18.626197814941406,64.96016693115234,22.885623931884766,78.97743225097656,99.65348815917969,65535.0
19430.614721510417,423.83355712890625,304.62548828125,-50.02814865112305,-419.3218688964844,-12.695009231567383,75.06843566894531,29.816692352294922,85.41437530517578,100.46005249023438,65535.0
19430.61512151897,440.4673156738281,337.5810241699219,-66.46156311035156,-400.720458984375,-4.141348838806152,82.28567504882812,34.9266471862793,89.9493637084961,102.21387481689453,65535.0
19430.61552152752,465.9164123535156,365.7719421386719,-76.53672790527344,-387.95391845703125,-6.770701885223389,77.59567260742188,32.58489227294922,86.75257110595703,109.02400207519531,65535.0
19430.615921536075,485.10321044921875,384.55426025390625,-74.07316589355469,-394.0304260253906,-13.022576332092285,71.99046325683594,29.727447509765625,83.55412292480469,106.48960876464844,65535.0
19430.61632154463,495.1614990234375,422.51611328125,-76.17924499511719,-392.57745361328125,-5.580686569213867,78.73321533203125,36.60025405883789,91.72248840332031,106.8695068359375,65535.0
19430.61672155318,471.9239807128906,457.7760009765625,-81.99473571777344,-393.7265930175781,-10.595008850097656,79.19536590576172,33.02730178833008,87.19068908691406,121.51220703125,65535.0
19430.617121561732,476.10186767578125,505.1329650878906,-76.85102844238281,-388.5726623535156,-12.22824764251709,73.6506118774414,28.652870178222656,85.21549224853516,108.54722595214844,65535.0
19430.617521570286,487.1573181152344,553.4976196289062,-84.36222839355469,-355.1654052734375,-7.8788957595825195,71.26158905029297,30.434106826782227,87.12578582763672,99.97430419921875,65535.0
19430.61792157884,496.924560546875,588.69140625,-98.45687103271484,-327.73223876953125,-10.431720733642578,72.21295928955078,32.380218505859375,88.0203857421875,110.52542877197266,65535.0
19430.61832158739,509.5823059082031,621.7009887695312,-95.94103240966797,-321.28643798828125,-12.518558502197266,67.80960845947266,26.526750564575195,82.28287506103516,99.89810180664062,65535.0
19430.618721595943,500.9939270019531,659.4774169921875,-110.20056915283203,-286.2762451171875,-14.508218765258789,67.66571807861328,24.308238983154297,83.60430145263672,86.64421844482422,65535.0
19430.619121604497,495.58740234375,682.3927612304688,-111.95415496826172,-225.3626251220703,-16.121807098388672,63.101009368896484,24.525588989257812,81.5062255859375,93.24555206298828,65535.0
19430.619521613047,497.7911071777344,712.6742553710938,-116.54362487792969,-209.43853759765625,-12.275172233581543,68.26647186279297,30.731491088867188,88.30989837646484,109.97500610351562,65535.0
19430.6199216216,489.5894470214844,760.143310546875,-120.02689361572266,-217.61447143554688,-14.184369087219238,67.94977569580078,27.916967391967773,83.38603973388672,112.35704040527344,65535.0
19430.620321630155,492.5454406738281,802.57080078125,-108.6998062133789,-208.8141326904297,-17.25240707397461,58.40779113769531,20.235267639160156,76.14921569824219,110.9662094116211,65535.0
19430.62072163871,484.6328430175781,816.7521362304688,-107.57073974609375,-183.17918395996094,-14.80516529083252,60.731964111328125,26.057592391967773,84.5035400390625,99.0679702758789,65535.0
19430.62112164726,496.1966552734375,844.2796630859375,-110.59651184082031,-159.49758911132812,-22.966754913330078,53.62720489501953,20.081493377685547,75.37516021728516,98.68277740478516,65535.0
19430.621521655812,531.8935546875,890.9752807617188,-106.98554992675781,-156.1352996826172,-27.40976905822754,51.146087646484375,16.631765365600586,74.7831802368164,97.57318878173828,65535.0
19430.621921664366,530.4338989257812,937.8021850585938,-110.57951354980469,-153.17694091796875,-28.040571212768555,45.83513259887695,13.008541107177734,69.5549545288086,88.83621978759766,65535.0
19430.622321672916,517.241455078125,993.8705444335938,-112.44550323486328,-148.6643524169922,-21.219322204589844,48.42894744873047,20.200658798217773,75.29096984863281,95.3934555053711,65535.0
19430.62272168147,512.2135009765625,1037.2198486328125,-111.68955993652344,-158.08921813964844,-15.253506660461426,56.801918029785156,23.733715057373047,82.2577133178711,103.73912811279297,65535.0
19430.623121690023,504.2002258300781,1057.5982666015625,-113.08331298828125,-215.3848876953125,-20.197574615478516,49.83844757080078,17.557254791259766,78.31251525878906,109.10371398925781,65535.0
19430.623521698577,496.4850158691406,1074.5205078125,-95.45191955566406,-295.9556884765625,-22.248119354248047,48.600772857666016,22.69248390197754,78.63191986083984,108.4472885131836,65535.0
19430.623921707127,493.1194763183594,1086.101318359375,-93.86833190917969,-378.733154296875,-17.779441833496094,48.642948150634766,21.902284622192383,78.38736724853516,93.01921081542969,65535.0
19430.62432171568,475.6239929199219,1101.4132080078125,-98.89482879638672,-404.5391540527344,-19.044925689697266,46.68601608276367,19.209802627563477,75.7762222290039,99.82676696777344,65535.0
19430.624721724234,474.82464599609375,1126.1832275390625,-94.43893432617188,-366.66162109375,-25.904743194580078,40.57538986206055,15.255500793457031,72.72251892089844,103.08753967285156,65535.0
19430.625121732784,480.05487060546875,1163.4876708984375,-81.85536193847656,-295.0721130371094,-25.86115074157715,38.84838104248047,14.03686237335205,71.66878509521484,96.09771728515625,65535.0
19430.625521741338,500.97857666015625,1199.4837646484375,-85.1277847290039,-246.23672485351562,-26.525531768798828,41.769996643066406,16.921789169311523,72.61551666259766,98.90653228759766,65535.0
19430.625921749892,514.1082763671875,1224.160400390625,-80.59364318847656,-252.85816955566406,-18.570301055908203,46.24514389038086,21.36317253112793,77.55522155761719,97.63008117675781,65535.0
19430.626321758446,535.5629272460938,1249.4635009765625,-70.49250030517578,-231.57412719726562,-15.883057594299316,49.43796157836914,26.894607543945312,83.58132934570312,98.6021957397461,65535.0
19430.626721766996,529.53759765625,1268.575927734375,-57.839115142822266,-200.40281677246094,-24.346982955932617,42.719642639160156,18.01971435546875,75.73744201660156,100.7862777709961,65535.0
19430.62712177555,523.1921997070312,1293.6446533203125,-52.26218795776367,-183.18885803222656,-27.080001831054688,38.45500564575195,13.247584342956543,72.28282928466797,102.67967987060547,65535.0
19430.627521784103,513.1288452148438,1308.439208984375,-44.48792266845703,-146.91314697265625,-20.937541961669922,45.89461135864258,20.34912872314453,75.37616729736328,96.58699798583984,65535.0
19430.627921792653,521.59619140625,1300.51171875,-34.59618377685547,-111.1886215209961,-20.66504669189453,48.44309616088867,19.759883880615234,77.21844482421875,97.32160949707031,65535.0
19430.628321801207,533.6582641601562,1301.897705078125,-25.025920867919922,-93.72824096679688,-15.664314270019531,53.43342590332031,22.63650894165039,79.49952697753906,109.5996322631836,65535.0
19430.62872180976,529.4876098632812,1314.8492431640625,-15.533239364624023,-90.45464324951172,-15.774430274963379,52.691123962402344,22.95658302307129,79.82291412353516,99.11780548095703,65535.0
19430.629121818314,544.863037109375,1301.5396728515625,-4.520999431610107,-94.90247344970703,-18.512861251831055,49.88117599487305,19.748044967651367,79.67989349365234,100.8541488647461,65535.0
19430.629521826864,554.215087890625,1291.2337646484375,-1.6793357133865356,-97.90557861328125,-11.706127166748047,59.86174392700195,29.52810287475586,84.83252716064453,101.66808319091797,65535.0
19430.629921835418,542.1453857421875,1294.0091552734375,12.928010940551758,-106.18489074707031,-4.459847450256348,66.85541534423828,36.76473617553711,92.60504150390625,104.84545135498047,65535.0
19430.63032184397,538.0584106445312,1298.6802978515625,16.71515655517578,-127.45285034179688,-4.097413063049316,74.76535034179688,37.04064178466797,95.48062896728516,107.43457794189453,65535.0
19430.63072185252,543.4891357421875,1282.48193359375,16.59596061706543,-144.7244873046875,-3.761049270629883,75.20999908447266,38.38623809814453,93.64058685302734,101.13505554199219,65535.0
19430.631121861075,560.7188110351562,1277.4566650390625,19.268184661865234,-152.06947326660156,-4.1338653564453125,73.31207275390625,38.190303802490234,94.5190200805664,108.99267578125,65535.0
19430.63152186963,554.3051147460938,1281.4652099609375,18.215782165527344,-137.81488037109375,-4.492996692657471,74.50271606445312,35.365840911865234,91.5151596069336,109.92720031738281,65535.0
19430.631921878183,514.0975952148438,1257.998046875,27.34377098083496,-146.5341796875,-1.0520600080490112,80.23635864257812,38.08370590209961,95.78302001953125,105.36621856689453,65535.0
19430.632321886733,492.5434265136719,1247.6922607421875,40.22280502319336,-154.855712890625,-1.8810406923294067,81.44197082519531,40.1279411315918,93.98385620117188,111.00567626953125,65535.0
19430.632721895287,495.9723205566406,1242.3682861328125,42.73501205444336,-130.91171264648438,-3.979222297668457,81.2939453125,38.0601921081543,95.35673522949219,95.95660400390625,65535.0
19430.63312190384,500.4092712402344,1229.41943359375,48.546051025390625,-94.18507385253906,-1.9945846796035767,84.70146179199219,41.97512435913086,95.3811264038086,101.80423736572266,65535.0
19430.63352191239,505.02020263671875,1217.4576416015625,62.802490234375,-97.52809143066406,8.956753730773926,91.7364273071289,46.51856231689453,105.20313262939453,107.74085998535156,65535.0
19430.633921920944,509.53033447265625,1202.794677734375,78.68366241455078,-112.86849212646484,6.910970211029053,89.74998474121094,44.32010269165039,101.30207824707031,99.70726776123047,65535.0
19430.634321929498,508.35589599609375,1179.8980712890625,91.08737182617188,-123.59723663330078,4.186377048492432,89.6874008178711,43.163719177246094,100.60353088378906,97.03895568847656,65535.0
19430.63472193805,526.1415405273438,1166.2498779296875,102.98303985595703,-145.8193359375,17.963584899902344,110.91322326660156,59.786136627197266,116.024658203125,108.10381317138672,65535.0
19430.6351219466,530.5040893554688,1147.8917236328125,121.39726257324219,-143.84906005859375,6.707074165344238,95.77460479736328,48.11698913574219,103.23340606689453,107.80952453613281,65535.0
19430.635521955155,535.3967895507812,1119.846435546875,134.0276336669922,-161.23411560058594,12.93738079071045,100.38935852050781,50.31255340576172,111.00247955322266,106.8790512084961,65535.0
19430.63592196371,534.6558837890625,1109.5023193359375,148.5843963623047,-179.62197875976562,7.663446426391602,92.92835235595703,42.87149429321289,103.35389709472656,107.04998779296875,65535.0
19430.63632197226,532.2543334960938,1099.1678466796875,160.22860717773438,-175.3601837158203,5.311896800994873,91.45270538330078,42.40891647338867,100.4328842163086,111.93072509765625,65535.0
19430.636721980813,527.1688842773438,1099.8970947265625,169.23851013183594,-169.83480834960938,11.561285018920898,100.79952239990234,53.62909698486328,107.95106506347656,102.75346374511719,65535.0
19430.637121989366,516.2117919921875,1092.8946533203125,180.5361328125,-153.58432006835938,1.3706941604614258,92.27140045166016,45.420291900634766,99.77019500732422,86.06454467773438,65535.0
19430.63752199792,514.9174194335938,1077.40087890625,187.13510131835938,-128.01934814453125,0.7338478565216064,87.67167663574219,44.854637145996094,99.15096282958984,105.70233154296875,65535.0
19430.63792200647,526.6259765625,1081.491455078125,199.07955932617188,-124.58320617675781,6.83424186706543,91.96049499511719,46.65107727050781,101.52710723876953,108.43025970458984,65535.0
19430.638322015024,544.3121948242188,1069.49365234375,193.43048095703125,-112.41290283203125,4.70756196975708,91.8101577758789,46.37408447265625,103.35327911376953,101.43540954589844,65535.0
19430.638722023577,542.3679809570312,1050.080810546875,195.66641235351562,-124.24495697021484,1.1046479940414429,83.7488784790039,42.81144332885742,99.72053527832031,107.50505065917969,65535.0
19430.639122032127,527.5629272460938,1060.1683349609375,191.6260223388672,-147.29408264160156,0.7705628871917725,82.15065002441406,40.434593200683594,96.4522705078125,96.86969757080078,65535.0
19430.63952204068,520.6521606445312,1054.0694580078125,192.29541015625,-171.20187377929688,1.6830703020095825,87.31290435791016,44.0478630065918,100.527587890625,87.81016540527344,65535.0
19430.639922049235,512.9981079101562,1043.068115234375,199.02603149414062,-175.65234375,-5.314104080200195,77.46524047851562,36.60243606567383,93.17305755615234,102.5438003540039,65535.0
19430.64032205779,526.7399291992188,1034.4984130859375,199.5730438232422,-166.91024780273438,-10.026301383972168,68.55252075195312,29.28375244140625,87.30004119873047,107.63555908203125,65535.0
19430.64072206634,532.0662231445312,1008.8067626953125,206.7562713623047,-162.20777893066406,-8.348588943481445,70.74888610839844,33.146244049072266,92.53407287597656,97.81574249267578,65535.0
19430.641122074892,556.3533935546875,995.1871948242188,206.052490234375,-169.936279296875,-0.982036292552948,78.62937927246094,40.35010528564453,95.9376449584961,93.29117584228516,65535.0
19430.641522083446,574.271728515625,992.2219848632812,201.36582946777344,-169.03570556640625,-11.396678924560547,67.27107238769531,31.5007381439209,87.29107666015625,98.47344207763672,65535.0
19430.641922091996,574.8873291015625,998.0394287109375,198.57342529296875,-148.01133728027344,-2.8977348804473877,69.59127807617188,34.33980178833008,94.69477081298828,89.43470764160156,65535.0
19430.64232210055,545.2133178710938,974.8321533203125,201.6923828125,-89.84784698486328,-8.728833198547363,66.0422134399414,30.557323455810547,89.57120513916016,88.75341033935547,65535.0
19430.642722109103,504.5074768066406,973.974609375,198.42115783691406,-20.50847625732422,-9.691943168640137,62.451168060302734,32.63335418701172,84.14080810546875,93.16840362548828,65535.0
19430.643122117657,509.82794189453125,969.534423828125,184.24838256835938,32.27731704711914,-9.75301742553711,57.516239166259766,31.001388549804688,86.4205551147461,112.2472152709961,65535.0
19430.643522126207,523.6351928710938,949.9891967773438,185.4217529296875,58.458370208740234,2.38742733001709,70.53379821777344,39.594886779785156,98.10464477539062,104.52275848388672,65535.0
19430.64392213476,552.0413208007812,936.7489624023438,192.0347900390625,99.49267578125,-11.945837020874023,55.976356506347656,27.78609275817871,87.67162322998047,97.32643127441406,65535.0
19430.644322143315,561.8584594726562,915.617919921875,181.934326171875,175.45953369140625,-19.445852279663086,44.680660247802734,20.144071578979492,78.68204498291016,109.52059936523438,65535.0
19430.644722151865,562.872802734375,900.0238647460938,187.723388671875,202.41259765625,-19.021547317504883,43.39788055419922,18.79761505126953,77.79200744628906,97.49443817138672,65535.0
19430.64512216042,563.67431640625,881.8299560546875,191.69894409179688,166.82974243164062,-18.499561309814453,46.39419174194336,22.89967155456543,78.29115295410156,94.73731231689453,65535.0
19430.645522168972,544.2571411132812,871.0494384765625,180.78224182128906,89.70625305175781,-19.055334091186523,48.47871017456055,24.37317657470703,80.16686248779297,97.78993225097656,65535.0
19430.645922177526,534.2242431640625,856.161376953125,164.7903594970703,16.6201229095459,-14.993481636047363,51.302711486816406,25.934049606323242,80.77720642089844,102.53132629394531,65535.0
19430.646322186076,529.62451171875,836.2686157226562,164.54542541503906,-12.255547523498535,-11.8049955368042,54.15977096557617,28.77640724182129,87.93940734863281,98.0997085571289,65535.0
19430.64672219463,512.303466796875,825.0452880859375,163.82093811035156,-97.64993286132812,0.14102110266685486,66.25567626953125,40.398338317871094,100.9554443359375,108.10884094238281,65535.0
19430.647122203183,492.9612121582031,820.603515625,153.64349365234375,-217.66677856445312,-5.628762245178223,65.17172241210938,34.39046096801758,90.80549621582031,121.00357818603516,65535.0
19430.647522211733,474.3429260253906,797.4019165039062,143.82125854492188,-251.80947875976562,-8.104832649230957,59.05792236328125,28.23683738708496,87.21233367919922,110.2953109741211,65535.0
19430.647922220287,477.7614440917969,795.6151733398438,132.64657592773438,-228.5486297607422,-5.081664085388184,67.35706329345703,38.19549560546875,94.7379379272461,107.69047546386719,65535.0
19430.64832222884,514.7582397460938,785.937255859375,130.2242431640625,-202.12672424316406,-9.236861228942871,60.33892822265625,31.186786651611328,87.73311614990234,98.73584747314453,65535.0
19430.648722237394,539.42236328125,782.609375,134.12799072265625,-122.88546752929688,-11.375956535339355,57.314090728759766,27.248397827148438,87.15962219238281,98.59603118896484,65535.0
19430.649122245944,546.372802734375,773.2572631835938,126.13973236083984,-81.92366790771484,-3.2348275184631348,65.38676452636719,34.224098205566406,94.31893920898438,103.44561767578125,65535.0
19430.649522254498,538.9776000976562,758.5068359375,130.5604705810547,-74.29469299316406,3.006718158721924,74.64325714111328,43.93059539794922,101.48260498046875,94.2894287109375,65535.0
19430.649922263052,541.5805053710938,750.9219970703125,126.10614013671875,-68.40229797363281,-7.562847137451172,69.15991973876953,34.298980712890625,92.00753784179688,101.11380767822266,65535.0
19430.650322271602,548.5633544921875,725.2557373046875,126.462646484375,-69.87633514404297,-18.93512725830078,55.88429641723633,22.717790603637695,80.38928985595703,103.96434020996094,65535.0
19430.650722280156,548.1521606445312,715.6554565429688,111.14958953857422,-89.17549133300781,-11.232832908630371,62.123748779296875,28.04599380493164,87.13599395751953,105.5970458984375,65535.0
19430.65112228871,539.8536987304688,705.8104248046875,107.3582763671875,-135.9793243408203,-11.875292778015137,60.54867935180664,26.090280532836914,83.08313751220703,94.5491943359375,65535.0
19430.651522297263,538.8246459960938,703.1276245117188,96.59485626220703,-177.9438934326172,-5.419591426849365,67.42927551269531,32.57279586791992,89.02174377441406,91.93891143798828,65535.0
19430.651922305813,525.7965698242188,691.86474609375,93.60155487060547,-199.9012908935547,-6.857993125915527,73.39836120605469,37.29232406616211,92.21107482910156,95.3763427734375,65535.0
19430.652322314367,513.1965942382812,670.7449340820312,82.25936889648438,-206.67115783691406,-11.569705963134766,66.09324645996094,28.284442901611328,85.12721252441406,100.2673568725586,65535.0
19430.65272232292,516.304931640625,669.22900390625,74.92591857910156,-184.99021911621094,-14.250056266784668,64.24343872070312,29.368314743041992,84.78594207763672,97.96001434326172,65535.0
19430.65312233147,511.3233947753906,660.6603393554688,80.68157196044922,-158.1254119873047,-9.67746353149414,69.37466430664062,34.159393310546875,89.59580993652344,97.44993591308594,65535.0
19430.653522340024,489.5816650390625,652.0260009765625,84.0599136352539,-127.52851867675781,-7.108022212982178,74.6136703491211,31.35565185546875,90.41657257080078,103.72064208984375,65535.0
19430.653922348578,485.034423828125,639.9229736328125,80.15545654296875,-108.59172821044922,-6.327971935272217,78.23063659667969,35.660675048828125,93.3409652709961,114.57157897949219,65535.0
19430.65432235713,498.0887145996094,636.1209106445312,79.05817413330078,-110.60369873046875,3.945753574371338,84.279052734375,42.3201904296875,98.43401336669922,92.82920837402344,65535.0
19430.65472236568,498.427490234375,646.0092163085938,78.43231201171875,-159.65576171875,6.871406078338623,92.76727294921875,47.795433044433594,104.9636459350586,85.2560043334961,65535.0
19430.655122374235,493.8092346191406,640.5635986328125,70.96612548828125,-178.02822875976562,7.145529747009277,92.77664184570312,48.1623649597168,103.92221069335938,101.5556411743164,65535.0
19430.65552238279,487.2309875488281,636.1886596679688,64.9619140625,-181.89132690429688,-9.025115966796875,76.51178741455078,31.988014221191406,88.31212615966797,104.26546478271484,65535.0
19430.65592239134,503.07366943359375,632.5442504882812,68.49555969238281,-201.30043029785156,-18.47245216369629,63.618587493896484,24.610666275024414,80.32361602783203,109.93014526367188,65535.0
19430.656322399893,502.8702697753906,629.2493896484375,50.056129455566406,-204.23228454589844,-8.378914833068848,71.46622467041016,32.317928314208984,90.63803100585938,109.04756164550781,65535.0
19430.656722408447,492.5767822265625,627.341552734375,43.25383758544922,-163.5000457763672,7.413598537445068,88.36990356445312,45.540313720703125,104.11760711669922,109.0567398071289,65535.0
19430.657122416997,494.254638671875,622.7094116210938,43.78558349609375,-81.2991714477539,2.071324586868286,83.12385559082031,39.71177291870117,98.26165008544922,95.439453125,65535.0
19430.65752242555,497.4692687988281,612.8432006835938,34.98535919189453,12.089985847473145,-5.206594944000244,79.7459487915039,35.603126525878906,94.83197021484375,88.21060943603516,65535.0
19430.657922434104,492.13702392578125,623.5878295898438,32.99779510498047,25.689743041992188,-3.6700828075408936,78.62991333007812,36.41227722167969,95.58614349365234,112.63763427734375,65535.0
19430.658322442658,484.10992431640625,627.2203979492188,29.341276168823242,-23.379499435424805,0.5865371227264404,78.14933776855469,40.94455337524414,98.15961456298828,110.04289245605469,65535.0
19430.658722451208,471.1153564453125,614.9889526367188,17.004072189331055,-82.10343933105469,-4.463152885437012,74.70320129394531,36.07840347290039,92.61788940429688,97.04400634765625,65535.0
19430.65912245976,487.7105712890625,618.739013671875,13.184005737304688,-145.88427734375,-9.19753646850586,66.86553192138672,28.80396842956543,86.93452453613281,88.338623046875,65535.0
19430.659522468315,496.4296875,611.4432373046875,12.667006492614746,-187.5648956298828,-1.5775480270385742,75.46551513671875,39.33002853393555,97.33869171142578,104.76859283447266,65535.0
19430.659922476865,511.2196350097656,616.123046875,12.596441268920898,-187.77386474609375,-5.149362564086914,71.17930603027344,36.607208251953125,94.30258178710938,109.20077514648438,65535.0
19430.66032248542,513.5806884765625,624.954345703125,12.3422269821167,-165.55133056640625,-7.992204189300537,69.89824676513672,31.898841857910156,89.30035400390625,113.90176391601562,65535.0
19430.660722493973,513.8587646484375,621.6912231445312,6.428699970245361,-134.72528076171875,-7.5447564125061035,65.54679107666016,30.838300704956055,90.85453796386719,113.70052337646484,65535.0
19430.661122502526,499.34600830078125,625.3277587890625,-1.2633638381958008,-92.91488647460938,-8.540000915527344,64.99571990966797,35.31138229370117,90.9515151977539,101.16880798339844,65535.0
19430.661522511076,498.8021545410156,622.162109375,9.989527702331543,-59.391151428222656,-16.587066650390625,57.64375305175781,26.007640838623047,81.15558624267578,92.54896545410156,65535.0
19430.66192251963,497.1708984375,623.43212890625,13.277363777160645,-31.887319564819336,-11.050458908081055,55.544288635253906,26.93196678161621,84.49189758300781,88.68959045410156,65535.0
19430.662322528184,503.2528991699219,621.7514038085938,18.16708755493164,-24.20125389099121,-8.266892433166504,59.681175231933594,31.557178497314453,88.7166519165039,100.54073333740234,65535.0
19430.662722536734,505.98919677734375,630.2295532226562,1.824619174003601,-32.06640625,-14.745159149169922,55.98286056518555,28.18781280517578,84.52349090576172,105.3144760131836,65535.0
19430.663122545287,513.1793212890625,627.0834350585938,-1.4899295568466187,-56.27264404296875,-12.96522045135498,54.56577682495117,27.995813369750977,86.71794891357422,102.45170593261719,65535.0
19430.66352255384,519.1617431640625,626.5413208007812,7.382783889770508,-82.30805206298828,-9.991856575012207,57.68914794921875,28.99327278137207,86.76309967041016,97.412841796875,65535.0
19430.663922562395,504.058837890625,622.3956298828125,-0.8134433627128601,-103.97819519042969,-10.135771751403809,52.819889068603516,27.16464614868164,86.888427734375,89.01824951171875,65535.0
19430.664322570945,480.0537109375,627.3231201171875,1.6026082038879395,-93.96559143066406,-28.5992374420166,35.435367584228516,11.898326873779297,72.13529205322266,99.42308044433594,65535.0
19430.6647225795,468.43035888671875,622.6261596679688,-4.449310302734375,-28.01229476928711,-32.85520935058594,27.26454734802246,7.734263896942139,65.04146575927734,89.85336303710938,65535.0
19430.665122588052,483.8408203125,618.0105590820312,-15.29825496673584,31.333349227905273,-24.9925537109375,34.18675994873047,16.747045516967773,75.10157012939453,94.0636215209961,65535.0
19430.665522596602,480.9329833984375,619.1767578125,-13.190353393554688,72.61027526855469,-21.134889602661133,38.08717346191406,17.575992584228516,76.5938491821289,104.22882080078125,65535.0
19430.665922605156,462.79718017578125,611.3444213867188,-18.24180793762207,102.5096664428711,-16.44902992248535,46.33132553100586,24.295616149902344,81.9541244506836,109.7708969116211,65535.0
19430.66632261371,475.5158386230469,604.2323608398438,-21.079355239868164,95.05706787109375,-10.302656173706055,48.050777435302734,30.928895950317383,85.20706176757812,109.63288116455078,65535.0
19430.666722622263,472.987548828125,599.7484130859375,-23.449596405029297,60.33839797973633,-15.887499809265137,45.74892807006836,23.836469650268555,81.51811981201172,84.29558563232422,65535.0
19430.667122630814,468.8114929199219,602.6884765625,-35.9615592956543,11.951456069946289,-20.280258178710938,44.45869064331055,21.91925048828125,76.2025146484375,96.87115478515625,65535.0
19430.667522639367,457.6385803222656,607.2487182617188,-29.486366271972656,-37.97610855102539,-13.616110801696777,48.60486602783203,27.156137466430664,84.04801940917969,96.83561706542969,65535.0
19430.66792264792,434.2627258300781,607.2694091796875,-25.226322174072266,-63.25370407104492,-20.01289176940918,44.430423736572266,22.224689483642578,78.8323974609375,107.32010650634766,65535.0
19430.66832265647,435.6993103027344,606.906494140625,-42.371009826660156,-65.29418182373047,-16.626964569091797,52.70054244995117,24.54781723022461,81.4253158569336,116.78917694091797,65535.0
19430.668722665025,447.92938232421875,598.0594482421875,-37.40965270996094,-64.66730499267578,-9.91148567199707,57.433380126953125,29.21510887145996,87.93870544433594,107.91755676269531,65535.0
19430.66912267358,436.4573059082031,603.6273803710938,-47.927276611328125,-53.15026092529297,-10.455612182617188,56.20334243774414,28.92028045654297,88.7690658569336,98.45472717285156,65535.0
19430.669522682132,425.9155578613281,605.4925537109375,-46.27058410644531,-51.435890197753906,-9.298018455505371,61.106075286865234,30.699472427368164,89.58280181884766,103.3467025756836,65535.0
19430.669922690682,425.8389892578125,600.1961669921875,-35.74970626831055,-44.64422607421875,-14.473902702331543,51.5863151550293,22.97776222229004,82.42735290527344,97.08891296386719,65535.0
19430.670322699236,442.0132141113281,599.44287109375,-31.59496307373047,-56.01292037963867,-14.262383460998535,55.7742919921875,25.71757698059082,85.80343627929688,90.84666442871094,65535.0
19430.67072270779,444.4100036621094,599.4367065429688,-32.101139068603516,-63.563411712646484,-5.409261703491211,67.06957244873047,33.110939025878906,89.12187957763672,103.4968032836914,65535.0
19430.67112271634,446.4190673828125,609.0720825195312,-39.092044830322266,-74.78085327148438,-2.4749293327331543,71.45882415771484,37.406822204589844,93.87907409667969,96.34664916992188,65535.0
19430.671522724893,445.1438293457031,603.43408203125,-42.08695602416992,-94.32635498046875,-12.888689994812012,62.966068267822266,32.23194885253906,87.09805297851562,92.65410614013672,65535.0
19430.671922733447,446.1679992675781,584.4791259765625,-40.4470329284668,-107.31182861328125,-8.078630447387695,67.34431457519531,32.49021911621094,90.2938461303711,102.9259033203125,65535.0
19430.672322742,466.0699768066406,586.0997314453125,-39.910858154296875,-116.23084259033203,-9.349520683288574,69.45462036132812,34.646724700927734,90.58200073242188,92.31166076660156,65535.0
19430.67272275055,478.42413330078125,588.826171875,-40.91887664794922,-111.5729751586914,-10.90535831451416,65.64984893798828,28.184410095214844,82.60736083984375,96.46243286132812,65535.0
19430.673122759104,475.7740173339844,591.2239990234375,-44.13392639160156,-81.91505432128906,-9.089749336242676,70.2069091796875,32.34779739379883,87.79210662841797,100.15856170654297,65535.0
19430.673522767658,458.3341369628906,597.0380249023438,-42.28965377807617,-66.24369049072266,-5.465068340301514,75.86511993408203,36.435218811035156,92.97738647460938,92.23999786376953,65535.0
19430.67392277621,454.7206726074219,585.2428588867188,-47.15481185913086,-58.06329345703125,-2.2401509284973145,79.04690551757812,35.070560455322266,93.6872329711914,88.04802703857422,65535.0
19430.674322784762,451.3558044433594,588.1640625,-47.63357925415039,-66.95366668701172,-9.264240264892578,72.69144439697266,29.53676414489746,88.59457397460938,96.91934204101562,65535.0
19430.674722793316,444.2132263183594,598.1357421875,-27.996341705322266,-115.7868423461914,-11.334152221679688,73.25352478027344,30.578001022338867,87.71573638916016,107.72061157226562,65535.0
19430.67512280187,454.6875305175781,590.6007690429688,-35.741947174072266,-148.28433227539062,-3.281022071838379,80.06015014648438,37.414615631103516,94.23247528076172,112.98572540283203,65535.0
19430.67552281042,456.3126525878906,597.3135375976562,-36.66586685180664,-182.2049560546875,-3.86411452293396,79.27020263671875,35.81955337524414,91.41747283935547,94.32936096191406,65535.0
19430.675922818973,447.1057434082031,591.6928100585938,-39.852577209472656,-202.59854125976562,1.1645365953445435,83.83824920654297,42.29416275024414,97.86572265625,83.78302001953125,65535.0
19430.676322827527,467.26861572265625,599.7622680664062,-29.712926864624023,-214.01226806640625,-0.2507335841655731,84.49261474609375,39.51298141479492,96.13947296142578,98.29932403564453,65535.0
19430.676722836077,469.76373291015625,599.4253540039062,-36.38798904418945,-206.49591064453125,-4.294793605804443,78.52427673339844,34.75545120239258,89.43755340576172,95.2869873046875,65535.0
19430.67712284463,473.0451965332031,601.89013671875,-41.67930603027344,-165.66493225097656,-5.96329927444458,76.45547485351562,33.89813995361328,91.36225891113281,89.71173095703125,65535.0
19430.677522853184,477.0290222167969,592.947265625,-33.82427978515625,-142.62893676757812,-9.3502836227417,72.73101043701172,32.1030158996582,89.1838150024414,85.76342010498047,65535.0
19430.677922861738,474.4444274902344,595.467041015625,-31.0435848236084,-129.83908081054688,-12.703088760375977,65.3191909790039,26.876190185546875,84.92741394042969,88.90926361083984,65535.0
19430.678322870288,470.5943298339844,600.25927734375,-34.17232894897461,-113.32115173339844,-9.392860412597656,68.88713073730469,29.8208065032959,87.93243408203125,107.21881866455078,65535.0
19430.67872287884,484.273681640625,597.2501220703125,-34.406673431396484,-92.84925842285156,-11.989601135253906,64.71791076660156,28.199853897094727,85.57920837402344,105.61416625976562,65535.0
19430.679122887395,494.0787353515625,598.6890869140625,-40.25442123413086,-38.16847610473633,-17.749526977539062,58.01103591918945,23.035362243652344,84.0345687866211,95.1752700805664,65535.0
19430.679522895945,478.6407470703125,597.6914672851562,-39.39790344238281,-1.4682153463363647,-20.064556121826172,58.341773986816406,20.752809524536133,77.22091674804688,94.25407409667969,65535.0
19430.6799229045,471.2900695800781,599.0140380859375,-42.79790496826172,22.752412796020508,-23.02837562561035,49.614524841308594,16.111270904541016,73.495849609375,91.72222900390625,65535.0
19430.680322913053,466.7715148925781,597.3416748046875,-40.85773468017578,38.12910842895508,-18.27264976501465,53.794036865234375,19.755517959594727,75.32833862304688,94.67301940917969,65535.0
19430.680722921607,476.25311279296875,602.5374145507812,-41.60256576538086,19.13974380493164,-13.364745140075684,62.74300003051758,28.094655990600586,84.65042877197266,99.7415542602539,65535.0
19430.681122930157,485.55877685546875,597.5701904296875,-35.16645431518555,-39.76922607421875,-21.133602142333984,53.02924346923828,23.931224822998047,80.39372253417969,87.8265609741211,65535.0
19430.68152293871,485.5230712890625,592.43310546875,-25.352083206176758,-65.3368911743164,-17.032527923583984,55.01368713378906,25.103410720825195,83.0239486694336,97.37529754638672,65535.0
19430.681922947264,492.6024475097656,594.1594848632812,-18.29863929748535,-71.97673034667969,-19.70986557006836,51.39957046508789,19.94297981262207,79.41104125976562,109.62740325927734,65535.0
19430.682322955814,508.29669189453125,598.8001098632812,-33.204856872558594,-61.197288513183594,-18.95939826965332,46.975303649902344,19.040626525878906,78.13749694824219,110.4363021850586,65535.0
19430.682722964368,513.4590454101562,606.1410522460938,-39.40242004394531,-61.30860900878906,-20.57008171081543,46.36373519897461,19.25045394897461,76.41825103759766,101.50865173339844,65535.0
19430.68312297292,525.6201171875,603.9658203125,-46.48046112060547,-67.86817932128906,-30.263750076293945,35.760719299316406,10.120294570922852,67.71305847167969,98.93688201904297,65535.0
19430.683522981475,532.6762084960938,602.9270629882812,-41.831539154052734,-71.05125427246094,-26.58073616027832,38.19594955444336,11.748126029968262,71.31085205078125,91.3780746459961,65535.0
19430.683922990025,529.1064453125,602.2825927734375,-39.7535285949707,-82.51566314697266,-10.87540054321289,53.563934326171875,29.316181182861328,85.57649230957031,101.15657806396484,65535.0
19430.68432299858,527.0029907226562,603.5048828125,-42.57257080078125,-92.51488494873047,-13.206098556518555,53.40168380737305,27.82875633239746,83.95340728759766,97.17054748535156,65535.0
19430.684723007133,533.1314697265625,598.0230102539062,-38.33399200439453,-89.7426528930664,-16.282262802124023,51.76118850708008,24.75519371032715,84.12952423095703,91.21160125732422,65535.0
19430.685123015683,526.0707397460938,599.4923706054688,-56.21659851074219,-96.76874542236328,-30.633237838745117,34.03623962402344,9.865457534790039,71.02825927734375,103.13528442382812,65535.0
19430.685523024236,522.641845703125,586.9803466796875,-61.43832015991211,-94.77437591552734,-30.637802124023438,28.561744689941406,10.323843002319336,66.84274291992188,105.14209747314453,65535.0
19430.68592303279,515.9488525390625,581.3593139648438,-47.70651626586914,-82.94336700439453,-27.997655868530273,34.60913848876953,12.975353240966797,70.47795104980469,92.6290512084961,65535.0
19430.686323041344,511.0833740234375,578.9576416015625,-41.608184814453125,-54.603031158447266,-22.261343002319336,43.225425720214844,20.093515396118164,74.6801528930664,95.43879699707031,65535.0
19430.686723049894,510.4055480957031,584.9208374023438,-45.54010009765625,-47.87774658203125,-16.582963943481445,50.72639083862305,23.567163467407227,83.48882293701172,101.42913818359375,65535.0
19430.687123058447,477.13226318359375,590.4346923828125,-50.00963592529297,-61.76640701293945,-21.801454544067383,44.86323547363281,18.502954483032227,75.60395812988281,97.40629577636719,65535.0
19430.687523067,460.315673828125,592.5833740234375,-56.36273193359375,-72.6827392578125,-22.7580509185791,42.63334655761719,14.985118865966797,74.59330749511719,90.46488189697266,65535.0
19430.68792307555,472.98333740234375,591.6380004882812,-58.78437042236328,-72.98223114013672,-26.285991668701172,42.890655517578125,14.754413604736328,74.79229736328125,112.18205261230469,65535.0
19430.688323084105,498.72515869140625,585.4595947265625,-60.02232360839844,-63.028663635253906,-13.344730377197266,56.54728698730469,26.54817771911621,84.2015380859375,100.93623352050781,65535.0
19430.68872309266,497.07379150390625,587.743408203125,-60.712059020996094,-54.687278747558594,-20.812776565551758,48.796539306640625,20.19261360168457,78.64399719238281,93.99720764160156,65535.0
19430.689123101212,474.9904479980469,590.4749755859375,-52.7779655456543,-56.626426696777344,-24.543842315673828,42.429073333740234,16.39385986328125,72.93367004394531,102.33696746826172,65535.0
19430.689523109762,448.1282958984375,584.7946166992188,-56.13619613647461,-66.82414245605469,-19.348838806152344,51.44696807861328,24.51972198486328,79.43025970458984,92.5368423461914,65535.0
19430.689923118316,420.53460693359375,590.0281982421875,-66.31471252441406,-91.65546417236328,-12.99058723449707,62.6048583984375,28.544015884399414,87.3696060180664,103.16850280761719,65535.0
19430.69032312687,416.9388427734375,601.2382202148438,-62.22394561767578,-132.5167236328125,-11.246188163757324,60.18245315551758,25.85250473022461,85.70269012451172,90.55292510986328,65535.0
19430.69072313542,424.958740234375,591.576171875,-47.992698669433594,-157.04562377929688,-9.425200462341309,68.9876708984375,30.574068069458008,87.0875473022461,82.51590728759766,65535.0
19430.691123143974,429.2522277832031,586.1920776367188,-57.92789840698242,-160.30279541015625,-11.806135177612305,67.07694244384766,30.649211883544922,85.01066589355469,92.43771362304688,65535.0
19430.691523152527,432.9105224609375,586.5081176757812,-62.96071243286133,-153.3267822265625,-11.789682388305664,66.5754165649414,29.681936264038086,85.69022369384766,95.20219421386719,65535.0
19430.69192316108,436.9994812011719,582.6224365234375,-57.537418365478516,-155.88853454589844,1.2915658950805664,79.14517974853516,37.792938232421875,98.94866180419922,94.59307861328125,65535.0
19430.69232316963,435.7135925292969,580.3005981445312,-44.88637924194336,-146.27427673339844,-8.065749168395996,76.79271697998047,34.33810806274414,93.01722717285156,91.19409942626953,65535.0
19430.692723178185,436.80767822265625,589.3974609375,-55.84969711303711,-121.78666687011719,-14.146422386169434,66.38140869140625,27.98320960998535,81.94329071044922,99.98318481445312,65535.0
19430.69312318674,461.3393859863281,580.7872314453125,-60.990211486816406,-95.01499938964844,-2.2996304035186768,79.36043548583984,37.0362434387207,95.44407653808594,102.56982421875,65535.0
19430.69352319529,478.7117919921875,572.8323974609375,-54.791038513183594,-68.95882415771484,-2.7174575328826904,82.1628189086914,37.647979736328125,97.14752197265625,97.1084976196289,65535.0
19430.693923203842,487.10821533203125,583.2935180664062,-60.20646286010742,-39.333763122558594,-2.401632308959961,80.35743713378906,38.451881408691406,94.88124084472656,97.1474838256836,65535.0
19430.694323212396,494.0729064941406,579.1932983398438,-57.61580276489258,-17.17464256286621,-0.35949191451072693,85.90337371826172,39.61376190185547,94.9801254272461,101.1790771484375,65535.0
19430.69472322095,507.4021911621094,593.666748046875,-58.36964797973633,-26.007953643798828,-3.063584804534912,80.18865966796875,36.3046989440918,91.24163055419922,108.6314926147461,65535.0
19430.6951232295,504.7759094238281,595.355224609375,-53.05356216430664,-43.89820098876953,-5.9330878257751465,74.36705017089844,33.306800842285156,90.33451843261719,90.85420227050781,65535.0
19430.695523238053,508.04034423828125,597.1753540039062,-55.80768966674805,-34.445499420166016,-8.761765480041504,78.58432006835938,31.91009521484375,89.4761962890625,89.24263763427734,65535.0
19430.695923246607,508.0947570800781,588.7827758789062,-48.294254302978516,-12.457098007202148,-13.092544555664062,71.04280853271484,27.57381820678711,82.84332275390625,97.34971618652344,65535.0
19430.696323255157,509.6903381347656,583.8853149414062,-48.096248626708984,15.266219139099121,-4.056817054748535,78.115966796875,37.0968132019043,91.5361557006836,107.8862075805664,65535.0
19430.69672326371,509.5539245605469,578.2017211914062,-46.79674530029297,39.540771484375,0.28871455788612366,85.0171127319336,39.200904846191406,96.42231750488281,97.41319274902344,65535.0
19430.697123272264,507.4126281738281,589.1434326171875,-42.763450622558594,57.92552947998047,4.990921974182129,91.34815979003906,44.932735443115234,102.5669174194336,106.24441528320312,65535.0
19430.697523280818,500.1806335449219,587.3895263671875,-42.79631042480469,55.26002883911133,1.5300589799880981,87.41674041748047,41.95594024658203,100.39102935791016,103.71735382080078,65535.0
19430.69792328937,488.4298400878906,593.1597900390625,-48.71227264404297,0.7471845149993896,-2.390834093093872,82.80230712890625,40.83721923828125,95.66669464111328,89.58238983154297,65535.0
19430.698323297922,483.40228271484375,599.8330688476562,-47.90580368041992,-53.5803108215332,-14.992701530456543,65.67574310302734,26.29332733154297,82.8177490234375,106.10868072509766,65535.0
19430.698723306476,483.5234680175781,599.0454711914062,-45.28284454345703,-81.81674194335938,-12.33311653137207,69.16455841064453,30.27750015258789,87.50995635986328,99.94068908691406,65535.0
19430.699123315026,476.94305419921875,588.7974243164062,-50.18917465209961,-80.87419128417969,-4.682096004486084,75.91950225830078,37.448123931884766,92.82909393310547,82.20711517333984,65535.0
19430.69952332358,474.9815673828125,593.7921752929688,-48.21612548828125,-64.8625259399414,-7.097506999969482,72.5048599243164,35.004249572753906,89.8836898803711,98.9108657836914,65535.0
19430.699923332133,469.7803039550781,594.7003784179688,-47.15414047241211,-58.49037170410156,-4.919427871704102,77.33910369873047,37.238101959228516,95.22478485107422,98.18116760253906,65535.0
19430.700323340687,487.2835693359375,592.8938598632812,-46.022586822509766,-52.58967971801758,-12.521430969238281,69.2791748046875,31.753368377685547,87.30662536621094,91.93485260009766,65535.0
19430.700723349237,492.97808837890625,597.5220947265625,-54.09600830078125,-79.02972412109375,-9.441161155700684,64.93537902832031,28.012575149536133,87.7154541015625,99.92149353027344,65535.0
19430.70112335779,488.5628356933594,596.4441528320312,-47.98564147949219,-128.99810791015625,-9.661810874938965,66.27887725830078,30.238719940185547,88.9959716796875,91.59315490722656,65535.0
19430.701523366344,488.24822998046875,600.8182983398438,-26.562332153320312,-162.65638732910156,-12.954422950744629,59.396583557128906,26.121009826660156,83.29745483398438,96.45356750488281,65535.0
19430.701923374894,487.1833801269531,602.4696044921875,-36.018306732177734,-175.5369110107422,-7.285311222076416,64.48323822021484,30.6119384765625,86.67501831054688,104.2608871459961,65535.0
19430.702323383448,476.4264221191406,607.4600219726562,-41.40195846557617,-184.53768920898438,-13.147034645080566,63.65682601928711,31.655231475830078,87.70063018798828,86.83040618896484,65535.0
19430.702723392,479.2038879394531,607.7124633789062,-45.0262565612793,-164.56314086914062,-14.54151725769043,56.65913772583008,24.019922256469727,85.94591522216797,90.43965911865234,65535.0
19430.703123400555,484.7132873535156,606.892578125,-40.95432662963867,-135.12831115722656,-12.554930686950684,56.92841339111328,26.912429809570312,86.55551147460938,90.31835174560547,65535.0
19430.703523409105,490.6794738769531,609.4409790039062,-47.47834396362305,-112.54436492919922,-20.819868087768555,48.0059700012207,21.885473251342773,77.564208984375,83.04422760009766,65535.0
19430.70392341766,508.819580078125,608.6982421875,-32.94450759887695,-110.01676940917969,-24.494749069213867,40.67171859741211,16.636451721191406,73.52873229980469,106.61571502685547,65535.0
19430.704323426213,536.0159301757812,600.98828125,-39.567344665527344,-115.29930114746094,-15.951506614685059,49.105533599853516,25.526968002319336,80.98808288574219,104.90135955810547,65535.0
19430.704723434763,556.902099609375,597.7073974609375,-52.456756591796875,-122.63926696777344,-25.461942672729492,36.97135543823242,16.309045791625977,71.32494354248047,100.4716567993164,65535.0
19430.705123443317,564.1445922851562,588.7059326171875,-47.10403823852539,-130.0187530517578,-19.35382080078125,43.62983322143555,21.621051788330078,80.54241943359375,105.38514709472656,65535.0
19430.70552345187,558.7656860351562,584.5228271484375,-54.10940170288086,-148.27911376953125,-19.419586181640625,45.02123260498047,20.402746200561523,80.12278747558594,119.20958709716797,65535.0
19430.705923460424,553.8722534179688,584.732177734375,-59.186805725097656,-158.3609619140625,-15.685251235961914,48.6044921875,24.630056381225586,80.70365142822266,120.04341888427734,65535.0
19430.706323468974,563.857177734375,591.3778076171875,-46.12261962890625,-172.7067413330078,-12.415506362915039,51.000247955322266,25.94780158996582,83.37952423095703,99.13570404052734,65535.0
19430.706723477528,564.958740234375,588.738525390625,-56.440616607666016,-181.58740234375,-18.32168197631836,43.66269302368164,21.2353515625,79.13463592529297,109.18586730957031,65535.0
19430.70712348608,559.1527099609375,574.29638671875,-56.85230255126953,-178.12171936035156,-14.689784049987793,49.13541793823242,25.029251098632812,82.16449737548828,97.29754638671875,65535.0
19430.70752349463,547.2565307617188,577.368896484375,-53.25601577758789,-174.5689697265625,-12.419817924499512,55.214473724365234,26.43157386779785,83.5561294555664,93.30276489257812,65535.0
19430.707923503185,535.4761352539062,581.2424926757812,-47.06058120727539,-168.36204528808594,-15.797581672668457,50.65998458862305,24.819425582885742,82.56285095214844,94.65062713623047,65535.0
19430.70832351174,525.5260620117188,574.5183715820312,-53.39255905151367,-155.853271484375,-13.708817481994629,53.13648986816406,26.50253677368164,84.31031036376953,98.0342788696289,65535.0
19430.708723520293,531.641845703125,583.6910400390625,-55.39223861694336,-150.30784606933594,-4.598691940307617,62.655662536621094,33.78639602661133,90.81561279296875,100.05321502685547,65535.0
19430.709123528843,527.3020629882812,581.0258178710938,-55.40320587158203,-119.83329772949219,-21.07284927368164,49.76079177856445,19.853830337524414,75.52579498291016,90.75576782226562,65535.0
19430.709523537396,519.4244384765625,568.2457275390625,-62.683860778808594,-112.16241455078125,-16.662744522094727,52.38099670410156,22.816316604614258,80.00799560546875,94.7913818359375,65535.0
19430.70992354595,514.5785522460938,576.9598999023438,-61.60795974731445,-120.44583892822266,-16.536399841308594,51.43388748168945,22.48496437072754,79.27410125732422,101.02899169921875,65535.0
19430.7103235545,487.96441650390625,573.3577270507812,-64.5490493774414,-116.4294204711914,-26.99871253967285,46.18134689331055,15.919089317321777,68.05400085449219,117.22492980957031,65535.0
19430.710723563054,465.2743835449219,568.5676879882812,-73.0872573852539,-94.23206329345703,-17.0500431060791,57.27333068847656,25.583086013793945,81.13795471191406,105.95162963867188,65535.0
19430.711123571607,459.3912658691406,553.0009155273438,-66.26422882080078,-81.96183776855469,-15.845769882202148,59.06088638305664,24.768033981323242,81.38460540771484,92.86849975585938,65535.0
19430.71152358016,463.322021484375,549.70068359375,-64.44134521484375,-77.31340026855469,-4.755057334899902,72.17453002929688,34.67538070678711,95.24822998046875,93.21260070800781,65535.0
19430.71192358871,461.775146484375,556.0411376953125,-71.34303283691406,-77.7674560546875,-9.615010261535645,73.47857666015625,33.43154525756836,92.06977844238281,96.44007110595703,65535.0
19430.712323597265,452.1488952636719,557.7049560546875,-83.4035873413086,-101.55081176757812,-9.001790046691895,70.88009643554688,30.585737228393555,88.1119384765625,94.187744140625,65535.0
19430.71272360582,454.3346252441406,555.6948852539062,-71.86869049072266,-131.6689453125,1.676312804222107,82.94649505615234,41.001060485839844,98.21722412109375,97.21504974365234,65535.0
19430.71312361437,439.6987609863281,546.3309326171875,-72.23126220703125,-148.8113250732422,-5.980071544647217,78.38600158691406,33.91197204589844,91.24102020263672,109.10163879394531,65535.0
19430.713523622922,426.43975830078125,554.840087890625,-81.72795104980469,-163.31570434570312,-13.720298767089844,67.658935546875,27.726755142211914,85.06287384033203,103.41206359863281,65535.0
19430.713923631476,432.13482666015625,556.6465454101562,-74.62775421142578,-158.92169189453125,-9.055961608886719,72.15520477294922,29.87186622619629,87.20836639404297,99.77857971191406,65535.0
19430.71432364003,438.7060241699219,554.546875,-78.96015930175781,-135.25379943847656,-7.2784624099731445,79.60472869873047,34.86919403076172,93.65495300292969,104.15091705322266,65535.0
19430.71472364858,438.8751220703125,564.4166259765625,-78.58255004882812,-95.80472564697266,4.852726936340332,92.89055633544922,46.53118896484375,103.2442398071289,110.84363555908203,65535.0
19430.715123657134,451.88970947265625,568.1951904296875,-70.05352020263672,-67.89839935302734,-10.437567710876465,72.34989929199219,31.688465118408203,87.92821502685547,91.32028198242188,65535.0
19430.715523665687,467.5530090332031,565.5402221679688,-62.28647994995117,-59.9869499206543,-4.3418426513671875,80.83984375,37.6270866394043,94.21266174316406,95.54708099365234,65535.0
19430.715923674237,475.438232421875,566.439453125,-61.4937629699707,-69.24411010742188,-14.309907913208008,71.91923522949219,28.857845306396484,82.09712219238281,86.3561782836914,65535.0
19430.71632368279,492.0211181640625,562.6204833984375,-58.674896240234375,-80.6975326538086,-10.274229049682617,74.09422302246094,29.91600227355957,88.78974914550781,83.73045349121094,65535.0
19430.716723691345,503.3680114746094,567.0880737304688,-55.57927703857422,-92.24185180664062,-5.93448543548584,79.00383758544922,37.416934967041016,92.40166473388672,102.7013168334961,65535.0
19430.7171236999,518.8421630859375,573.7830200195312,-54.033023834228516,-91.9888916015625,-6.336701393127441,77.08662414550781,35.08375930786133,90.98324584960938,99.00775146484375,65535.0
19430.71752370845,509.3812561035156,570.4970092773438,-53.814537048339844,-92.82545471191406,-6.918581485748291,74.6170654296875,32.93320846557617,91.62298583984375,101.29500579833984,65535.0
19430.717923717002,516.93408203125,576.5496826171875,-51.277435302734375,-106.26519775390625,-4.793329238891602,77.90413665771484,35.278106689453125,91.48095703125,102.0048828125,65535.0
19430.718323725556,501.29638671875,568.969482421875,-62.891109466552734,-108.99928283691406,-16.7186336517334,66.94486999511719,27.80905532836914,83.43094635009766,109.85649871826172,65535.0
19430.718723734106,484.2060852050781,568.5531616210938,-58.8699951171875,-111.69357299804688,-14.118110656738281,66.77075958251953,29.05124282836914,87.0921401977539,95.0334243774414,65535.0
19430.71912374266,484.3914794921875,567.6961059570312,-54.11531066894531,-101.02422332763672,-4.985202312469482,70.52433013916016,33.564517974853516,92.58334350585938,99.70269775390625,65535.0
19430.719523751213,486.6511535644531,565.8694458007812,-53.17306137084961,-101.5982437133789,-1.3959555625915527,77.38846588134766,35.998443603515625,96.61932373046875,107.7404556274414,65535.0
19430.719923759767,482.23712158203125,578.291259765625,-53.672359466552734,-89.7259750366211,-7.164288520812988,73.18769836425781,35.697731018066406,90.68592071533203,118.16898345947266,65535.0
19430.720323768317,483.6097412109375,574.0361328125,-49.88917922973633,-78.59815979003906,-8.722489356994629,66.54143524169922,29.974658966064453,89.85651397705078,95.02438354492188,65535.0
19430.72072377687,475.9230041503906,575.4774169921875,-50.85397720336914,-86.91031646728516,-11.737664222717285,61.4883918762207,25.694664001464844,85.83314514160156,93.5940933227539,65535.0
19430.721123785424,482.0548400878906,567.6690673828125,-47.58043670654297,-85.07853698730469,-17.342798233032227,55.67702865600586,22.558006286621094,80.59214782714844,97.607177734375,65535.0
19430.721523793974,498.9439392089844,571.6730346679688,-47.312320709228516,-83.51640319824219,-9.289545059204102,64.6353759765625,30.096595764160156,88.65678405761719,99.10293579101562,65535.0
19430.72192380253,506.5517272949219,577.1661987304688,-43.97331237792969,-88.69636535644531,-17.302167892456055,56.17333221435547,23.027263641357422,79.12030029296875,100.9093246459961,65535.0
19430.722323811082,495.6966857910156,583.6101684570312,-41.659568786621094,-96.87161254882812,-16.05206298828125,56.428802490234375,26.92914390563965,83.45698547363281,89.93978881835938,65535.0
19430.722723819636,481.5158386230469,579.66015625,-41.88591384887695,-87.16993713378906,-16.183719635009766,53.52507400512695,23.74054718017578,82.2486801147461,85.97405242919922,65535.0
19430.723123828186,490.09820556640625,599.8103637695312,-41.833770751953125,-76.47740173339844,-19.3995418548584,52.061580657958984,20.548480987548828,80.12504577636719,88.73340606689453,65535.0
19430.72352383674,489.6147155761719,584.3129272460938,-46.31571578979492,-75.45928192138672,-18.890026092529297,45.77410888671875,19.5427188873291,78.80280303955078,94.09553527832031,65535.0
19430.723923845293,486.51556396484375,584.0740356445312,-47.679622650146484,-85.60647583007812,-26.809301376342773,39.744590759277344,15.25408935546875,70.76891326904297,96.07869720458984,65535.0
19430.724323853843,472.721923828125,590.3248901367188,-37.666412353515625,-85.85224914550781,-17.6737003326416,45.885154724121094,21.397438049316406,79.88790130615234,105.38011169433594,65535.0
19430.724723862397,455.7473449707031,574.6300659179688,-59.03361129760742,-80.37760162353516,-13.104240417480469,53.811378479003906,28.40999412536621,84.44245147705078,115.6458740234375,65535.0
