0,1
13627.206012458839,688.0
13627.206074956051,475.0
13627.206137453264,-519.0
13627.206199950477,-1817.0
13627.206262447688,-3050.0
13627.2063249449,-3431.0
13627.206387442113,-2168.0
13627.206449939325,839.0
13627.206512436538,4332.0
13627.20657493375,7016.0
13627.206637430963,8704.0
13627.206699928176,9439.0
13627.206762425389,9255.0
13627.206824922601,8298.0
13627.206887419812,7260.0
13627.206949917025,6263.0
13627.207012414237,5414.0
13627.20707491145,4792.0
13627.207137408663,4876.0
13627.207199905875,5350.0
13627.207262403088,5671.0
13627.2073249003,5516.0
13627.207387397513,5250.0
13627.207449894726,6422.0
13627.207512391939,9387.0
13627.207574889151,11891.0
13627.207637386362,12881.0
13627.207699883575,12451.0
13627.207762380787,10597.0
13627.207824878,8208.0
13627.207887375213,6643.0
13627.207949872425,6624.0
13627.208012369638,7041.0
13627.20807486685,7004.0
13627.208137364063,6909.0
13627.208199861276,6960.0
13627.208262358487,7213.0
13627.2083248557,7121.0
13627.208387352912,6357.0
13627.208449850124,5290.0
13627.208512347337,4415.0
13627.20857484455,3899.0
13627.208637341762,4056.0
13627.208699838975,4770.0
13627.208762336188,4981.0
13627.2088248334,3983.0
13627.208887330613,2473.0
13627.208949827824,1032.0
13627.209012325036,-122.0
13627.209074822249,-707.0
13627.209137319462,-765.0
13627.209199816674,-696.0
13627.209262313887,-694.0
13627.2093248111,-847.0
13627.209387308312,-1337.0
13627.209449805525,-2198.0
13627.209512302737,-3312.0
13627.20957479995,-4928.0
13627.209637297161,-6850.0
13627.209699794374,-8615.0
13627.209762291586,-10223.0
13627.209824788799,-11729.0
13627.209887286012,-13308.0
13627.209949783224,-15189.0
13627.210012280437,-17433.0
13627.21007477765,-19536.0
13627.210137274862,-21146.0
13627.210199772075,-21925.0
13627.210262269287,-22161.0
13627.210324766498,-22539.0
13627.21038726371,-24092.0
13627.210449760923,-25342.0
13627.210512258136,-23591.0
13627.210574755349,-17678.0
13627.210637252561,-9389.0
13627.210699749774,-1056.0
13627.210762246987,5186.0
13627.2108247442,8029.0
13627.210887241412,7859.0
13627.210949738625,6626.0
13627.211012235835,5715.0
13627.211074733048,4677.0
13627.21113723026,3168.0
13627.211199727473,1468.0
13627.211262224686,741.0
13627.211324721899,466.0
13627.211387219111,356.0
13627.211449716324,-463.0
13627.211512213536,-1819.0
13627.21157471075,-3674.0
13627.211637207962,-4666.0
13627.211699705173,-3430.0
13627.211762202385,54.0
13627.211824699598,4080.0
13627.21188719681,7391.0
13627.211949694023,9279.0
13627.212012191236,9896.0
13627.212074688448,9426.0
13627.212137185661,8359.0
13627.212199682874,7207.0
13627.212262180086,5977.0
13627.212324677299,5199.0
13627.21238717451,5322.0
13627.212449671722,6269.0
13627.212512168935,7477.0
13627.212574666148,8266.0
13627.21263716336,8155.0
13627.212699660573,7387.0
13627.212762157786,6349.0
13627.212824654998,5976.0
13627.21288715221,6431.0
13627.212949649424,7467.0
13627.213012146636,8597.0
13627.213074643847,9504.0
13627.21313714106,9895.0
13627.213199638272,9618.0
13627.213262135485,8823.0
13627.213324632698,7877.0
13627.21338712991,7006.0
13627.213449627123,6389.0
13627.213512124335,6186.0
13627.213574621548,6256.0
13627.21363711876,6333.0
13627.213699615973,6170.0
13627.213762113184,5594.0
13627.213824610397,4612.0
13627.21388710761,3430.0
13627.213949604822,2251.0
13627.214012102035,1466.0
13627.214074599247,1315.0
13627.21413709646,1520.0
13627.214199593673,1735.0
13627.214262090885,1712.0
13627.214324588098,1389.0
13627.21438708531,790.0
13627.214449582521,-72.0
13627.214512079734,-836.0
13627.214574576947,-1491.0
13627.21463707416,-2120.0
13627.214699571372,-2724.0
13627.214762068585,-3420.0
13627.214824565797,-4259.0
13627.21488706301,-5385.0
13627.214949560223,-7049.0
13627.215012057435,-9142.0
13627.215074554648,-11396.0
13627.215137051859,-13659.0
13627.215199549071,-15618.0
13627.215262046284,-17340.0
13627.215324543497,-18645.0
13627.21538704071,-19565.0
13627.215449537922,-20261.0
13627.215512035134,-20993.0
13627.215574532347,-22169.0
13627.21563702956,-24395.0
13627.215699526772,-26602.0
13627.215762023985,-25918.0
13627.215824521196,-20817.0
13627.215887018408,-12492.0
13627.215949515621,-3583.0
13627.216012012834,3842.0
13627.216074510046,8067.0
13627.216137007259,8966.0
13627.216199504472,7615.0
13627.216262001684,6028.0
13627.216324498897,4337.0
13627.21638699611,2579.0
13627.216449493322,843.0
13627.216511990533,418.0
13627.216574487746,754.0
13627.216636984958,1069.0
13627.216699482171,525.0
13627.216761979384,-908.0
13627.216824476596,-2772.0
13627.216886973809,-4097.0
13627.216949471022,-3529.0
13627.217011968234,-676.0
13627.217074465447,3251.0
13627.21713696266,6766.0
13627.21719945987,9150.0
13627.217261957083,10110.0
13627.217324454296,9809.0
13627.217386951508,8481.0
13627.21744944872,6903.0
13627.217511945933,5531.0
13627.217574443146,4585.0
13627.217636940359,4194.0
13627.217699437571,4718.0
13627.217761934784,5736.0
13627.217824431995,6577.0
13627.217886929207,7077.0
13627.21794942642,7751.0
13627.218011923633,8430.0
13627.218074420845,8835.0
13627.218136918058,9003.0
13627.21819941527,8957.0
13627.218261912483,8703.0
13627.218324409696,8417.0
13627.218386906909,8378.0
13627.218449404121,8369.0
13627.218511901334,8139.0
13627.218574398545,7598.0
13627.218636895757,6947.0
13627.21869939297,6512.0
13627.218761890183,6297.0
13627.218824387395,6243.0
13627.218886884608,6172.0
13627.21894938182,5990.0
13627.219011879033,5533.0
13627.219074376246,4931.0
13627.219136873458,4340.0
13627.21919937067,3782.0
13627.219261867882,3078.0
13627.219324365095,2357.0
13627.219386862307,1746.0
13627.21944935952,1162.0
13627.219511856732,756.0
13627.219574353945,523.0
13627.219636851158,294.0
13627.21969934837,-34.0
13627.219761845583,-536.0
13627.219824342796,-1122.0
13627.219886840006,-1780.0
13627.219949337219,-2506.0
13627.220011834432,-3294.0
13627.220074331644,-4203.0
13627.220136828857,-5306.0
13627.22019932607,-6590.0
13627.220261823282,-8186.0
13627.220324320495,-10127.0
13627.220386817708,-12294.0
13627.22044931492,-14708.0
13627.220511812133,-17015.0
13627.220574309344,-18878.0
13627.220636806556,-19953.0
13627.220699303769,-20331.0
13627.220761800982,-20310.0
13627.220824298194,-20636.0
13627.220886795407,-22050.0
13627.22094929262,-24579.0
13627.221011789832,-25781.0
13627.221074287045,-23304.0
13627.221136784257,-16776.0
13627.22119928147,-7955.0
13627.22126177868,425.0
13627.221324275893,6330.0
13627.221386773106,8891.0
13627.221449270319,8447.0
13627.221511767531,6698.0
13627.221574264744,4809.0
13627.221636761957,2987.0
13627.22169925917,1402.0
13627.221761756382,375.0
13627.221824253595,525.0
13627.221886750807,1148.0
13627.221949248018,1187.0
13627.22201174523,133.0
13627.222074242443,-1709.0
13627.222136739656,-3497.0
13627.222199236869,-4166.0
13627.222261734081,-2622.0
13627.222324231294,1023.0
13627.222386728507,5008.0
13627.22244922572,8053.0
13627.222511722932,9790.0
13627.222574220144,10130.0
13627.222636717355,9271.0
13627.222699214568,7853.0
13627.22276171178,6445.0
13627.222824208993,5406.0
13627.222886706206,5179.0
13627.222949203418,5614.0
13627.223011700631,6395.0
13627.223074197844,7351.0
13627.223136695056,7831.0
13627.223199192269,7394.0
13627.223261689482,6544.0
13627.223324186692,6055.0
13627.223386683905,6119.0
13627.223449181118,6507.0
13627.22351167833,7290.0
13627.223574175543,8212.0
13627.223636672756,8832.0
13627.223699169968,8948.0
13627.223761667181,8457.0
13627.223824164394,7614.0
13627.223886661606,6704.0
13627.223949158819,5999.0
13627.22401165603,5706.0
13627.224074153242,5997.0
13627.224136650455,6433.0
13627.224199147668,6534.0
13627.22426164488,5968.0
13627.224324142093,5035.0
13627.224386639306,3882.0
13627.224449136518,2735.0
13627.22451163373,1996.0
13627.224574130943,1640.0
13627.224636628156,1667.0
13627.224699125367,1952.0
13627.22476162258,2033.0
13627.224824119792,1898.0
13627.224886617005,1401.0
13627.224949114217,436.0
13627.22501161143,-727.0
13627.225074108643,-1718.0
13627.225136605855,-2354.0
13627.225199103068,-2733.0
13627.22526160028,-3004.0
13627.225324097493,-3314.0
13627.225386594704,-3965.0
13627.225449091917,-5151.0
13627.22551158913,-6703.0
13627.225574086342,-8628.0
13627.225636583555,-10668.0
13627.225699080767,-12551.0
13627.22576157798,-14346.0
13627.225824075193,-16069.0
13627.225886572405,-17526.0
13627.225949069618,-18556.0
13627.22601156683,-19430.0
13627.226074064041,-20421.0
13627.226136561254,-21471.0
13627.226199058467,-22918.0
13627.22626155568,-25044.0
13627.226324052892,-26079.0
13627.226386550105,-23230.0
13627.226449047317,-16271.0
13627.22651154453,-7513.0
13627.226574041742,485.0
13627.226636538955,6221.0
13627.226699036168,8669.0
13627.226761533379,8096.0
13627.226824030591,6480.0
13627.226886527804,5084.0
13627.226949025016,3643.0
13627.227011522229,2064.0
13627.227074019442,885.0
13627.227136516654,706.0
13627.227199013867,900.0
13627.22726151108,540.0
13627.227324008292,-654.0
13627.227386505505,-2410.0
13627.227449002716,-3976.0
13627.227511499928,-4258.0
13627.227573997141,-2528.0
13627.227636494354,1044.0
13627.227698991566,4967.0
13627.227761488779,7840.0
13627.227823985992,9466.0
13627.227886483204,9900.0
13627.227948980417,9288.0
13627.22801147763,8041.0
13627.228073974842,6860.0
13627.228136472053,6112.0
13627.228198969266,5826.0
13627.228261466478,5984.0
13627.22832396369,6543.0
13627.228386460903,7174.0
13627.228448958116,7382.0
13627.228511455329,7111.0
13627.228573952541,6495.0
13627.228636449754,6035.0
13627.228698946967,6148.0
13627.22876144418,6709.0
13627.22882394139,7578.0
13627.228886438603,8444.0
13627.228948935815,8871.0
13627.229011433028,8803.0
13627.22907393024,8364.0
13627.229136427453,7625.0
13627.229198924666,6925.0
13627.229261421879,6374.0
13627.229323919091,6060.0
13627.229386416304,5999.0
13627.229448913517,6080.0
13627.229511410727,6076.0
13627.22957390794,5701.0
13627.229636405153,4843.0
13627.229698902365,3813.0
13627.229761399578,2663.0
13627.22982389679,1698.0
13627.229886394003,1120.0
13627.229948891216,946.0
13627.230011388428,1060.0
13627.230073885641,1169.0
13627.230136382852,963.0
13627.230198880065,440.0
13627.230261377277,-335.0
13627.23032387449,-1193.0
13627.230386371702,-1962.0
13627.230448868915,-2553.0
13627.230511366128,-2829.0
13627.23057386334,-3080.0
13627.230636360553,-3680.0
13627.230698857766,-4666.0
13627.230761354978,-6154.0
13627.23082385219,-8101.0
13627.230886349402,-10346.0
13627.230948846614,-12533.0
13627.231011343827,-14396.0
13627.23107384104,-15979.0
13627.231136338252,-17401.0
13627.231198835465,-18588.0
13627.231261332678,-19433.0
13627.23132382989,-20144.0
13627.231386327103,-20791.0
13627.231448824316,-21733.0
13627.231511321526,-23177.0
13627.231573818739,-24487.0
13627.231636315952,-23213.0
13627.231698813164,-18009.0
13627.231761310377,-9991.0
13627.23182380759,-1787.0
13627.231886304802,4596.0
13627.231948802015,7966.0
13627.232011299227,8439.0
13627.23207379644,7008.0
13627.232136293653,5111.0
13627.232198790864,3361.0
13627.232261288076,1815.0
13627.232323785289,524.0
13627.232386282501,92.0
13627.232448779714,613.0
13627.232511276927,1097.0
13627.23257377414,602.0
13627.232636271352,-800.0
13627.232698768565,-2220.0
13627.232761265777,-3187.0
13627.23282376299,-2531.0
13627.2328862602,71.0
13627.232948757413,3641.0
13627.233011254626,6624.0
13627.233073751839,8586.0
13627.233136249051,9304.0
13627.233198746264,8971.0
13627.233261243477,7867.0
13627.23332374069,6689.0
13627.233386237902,5761.0
13627.233448735115,5301.0
13627.233511232327,5364.0
13627.233573729538,5915.0
13627.23363622675,6799.0
13627.233698723963,7528.0
13627.233761221176,7593.0
13627.233823718389,7151.0
13627.233886215601,6535.0
13627.233948712814,6096.0
13627.234011210026,6142.0
13627.234073707239,6737.0
13627.234136204452,7571.0
13627.234198701664,8204.0
13627.234261198875,8400.0
13627.234323696088,8074.0
13627.2343861933,7530.0
13627.234448690513,6967.0
13627.234511187726,6602.0
13627.234573684938,6296.0
13627.234636182151,6069.0
13627.234698679364,5931.0
13627.234761176576,5706.0
13627.234823673789,5282.0
13627.234886171002,4580.0
13627.234948668212,3643.0
13627.235011165425,2561.0
13627.235073662638,1482.0
13627.23513615985,749.0
13627.235198657063,531.0
13627.235261154276,668.0
13627.235323651488,827.0
13627.2353861487,722.0
13627.235448645913,301.0
13627.235511143126,-281.0
13627.235573640339,-936.0
13627.23563613755,-1499.0
13627.235698634762,-1857.0
13627.235761131975,-2141.0
13627.235823629188,-2554.0
13627.2358861264,-3330.0
13627.235948623613,-4502.0
13627.236011120825,-6138.0
13627.236073618038,-8235.0
13627.23613611525,-10622.0
13627.236198612463,-12793.0
13627.236261109676,-14655.0
13627.236323606887,-16220.0
13627.2363861041,-17385.0
13627.236448601312,-18133.0
13627.236511098525,-18411.0
13627.236573595737,-18720.0
13627.23663609295,-19555.0
13627.236698590163,-20811.0
13627.236761087375,-22935.0
13627.236823584588,-25156.0
13627.2368860818,-24566.0
13627.236948579013,-19724.0
13627.237011076224,-11748.0
13627.237073573437,-3412.0
13627.23713607065,3319.0
13627.237198567862,7123.0
13627.237261065075,7519.0
13627.237323562287,5842.0
13627.2373860595,4158.0
13627.237448556712,2484.0
13627.237511053925,1230.0
13627.237573551138,505.0
13627.23763604835,731.0
13627.237698545561,1727.0
13627.237761042774,2304.0
13627.237823539986,1900.0
13627.2378860372,304.0
13627.237948534412,-1957.0
13627.238011031624,-3693.0
13627.238073528837,-3398.0
13627.23813602605,-874.0
13627.238198523262,2872.0
13627.238261020475,6250.0
13627.238323517688,8708.0
13627.238386014898,9540.0
13627.238448512111,8953.0
13627.238511009324,7577.0
13627.238573506536,6291.0
13627.238636003749,5303.0
13627.238698500962,4824.0
13627.238760998174,5025.0
13627.238823495387,5984.0
13627.2388859926,7127.0
13627.238948489812,7851.0
13627.239010987025,7919.0
13627.239073484236,7471.0
13627.239135981448,6728.0
13627.239198478661,6083.0
13627.239260975874,6098.0
13627.239323473086,6686.0
13627.239385970299,7471.0
13627.239448467511,8037.0
13627.239510964724,8284.0
13627.239573461937,7991.0
13627.23963595915,7260.0
13627.239698456362,6395.0
13627.239760953573,5679.0
13627.239823450785,5275.0
13627.239885947998,5318.0
13627.23994844521,5533.0
13627.240010942423,5769.0
13627.240073439636,5776.0
13627.240135936849,5231.0
13627.240198434061,4258.0
13627.240260931274,3132.0
13627.240323428487,2006.0
13627.2403859257,1092.0
13627.24044842291,525.0
13627.240510920123,549.0
13627.240573417335,854.0
13627.240635914548,969.0
13627.24069841176,810.0
13627.240760908973,241.0
13627.240823406186,-675.0
13627.240885903399,-1693.0
13627.240948400611,-2552.0
13627.241010897824,-3030.0
13627.241073395035,-3241.0
13627.241135892247,-3452.0
13627.24119838946,-3972.0
13627.241260886673,-4977.0
13627.241323383885,-6436.0
13627.241385881098,-8349.0
13627.24144837831,-10534.0
13627.241510875523,-12514.0
13627.241573372736,-14248.0
13627.241635869948,-15639.0
13627.241698367161,-16543.0
13627.241760864374,-17164.0
13627.241823361584,-17548.0
13627.241885858797,-18140.0
13627.24194835601,-19106.0
13627.242010853222,-20575.0
13627.242073350435,-22816.0
13627.242135847648,-24656.0
13627.24219834486,-23614.0
13627.242260842073,-18529.0
13627.242323339286,-10835.0
13627.242385836498,-2879.0
13627.242448333709,3541.0
13627.242510830922,6863.0
13627.242573328134,6760.0
13627.242635825347,5086.0
13627.24269832256,3513.0
13627.242760819772,2285.0
13627.242823316985,1282.0
13627.242885814198,796.0
13627.24294831141,1029.0
13627.243010808623,1613.0
13627.243073305835,1782.0
13627.243135803046,1009.0
13627.243198300259,-695.0
13627.243260797472,-2711.0
13627.243323294684,-4053.0
13627.243385791897,-3500.0
13627.24344828911,-641.0
13627.243510786322,3211.0
13627.243573283535,6658.0
13627.243635780747,8854.0
13627.24369827796,9618.0
13627.243760775173,8871.0
13627.243823272383,7600.0
13627.243885769596,6477.0
13627.243948266809,5526.0
13627.244010764021,4917.0
13627.244073261234,5004.0
13627.244135758447,5682.0
13627.24419825566,6709.0
13627.244260752872,7533.0
13627.244323250085,7811.0
13627.244385747297,7331.0
13627.24444824451,6390.0
13627.24451074172,5813.0
13627.244573238933,5842.0
13627.244635736146,6426.0
13627.244698233359,7284.0
13627.244760730571,7992.0
13627.244823227784,8337.0
13627.244885724996,8116.0
13627.24494822221,7487.0
13627.245010719422,6903.0
13627.245073216634,6183.0
13627.245135713847,5446.0
13627.245198211058,5008.0
13627.24526070827,5061.0
13627.245323205483,5286.0
13627.245385702696,5361.0
13627.245448199908,4985.0
13627.245510697121,4155.0
13627.245573194334,2846.0
13627.245635691546,1446.0
13627.245698188759,574.0
13627.245760685972,299.0
13627.245823183184,390.0
13627.245885680395,568.0
13627.245948177608,680.0
13627.24601067482,537.0
13627.246073172033,-31.0
13627.246135669246,-953.0
13627.246198166458,-1950.0
13627.246260663671,-2761.0
13627.246323160884,-3266.0
13627.246385658096,-3583.0
13627.246448155309,-3839.0
13627.246510652521,-4211.0
13627.246573149732,-5137.0
13627.246635646945,-6740.0
13627.246698144158,-8849.0
13627.24676064137,-11222.0
13627.246823138583,-13378.0
13627.246885635795,-15038.0
13627.246948133008,-15985.0
13627.24701063022,-16421.0
13627.247073127433,-16690.0
13627.247135624646,-17067.0
13627.247198121859,-17688.0
13627.24726061907,-18716.0
13627.247323116282,-20416.0
13627.247385613495,-22730.0
13627.247448110707,-24126.0
13627.24751060792,-22346.0
13627.247573105133,-16712.0
13627.247635602345,-9108.0
13627.247698099558,-1746.0
13627.24776059677,3906.0
13627.247823093983,6882.0
13627.247885591196,7080.0
13627.247948088407,5524.0
13627.24801058562,3878.0
13627.248073082832,2388.0
13627.248135580045,1030.0
13627.248198077257,524.0
13627.24826057447,1016.0
13627.248323071683,1765.0
13627.248385568895,1944.0
13627.248448066108,782.0
13627.24851056332,-1127.0
13627.248573060533,-2990.0
13627.248635557744,-3639.0
13627.248698054957,-2608.0
13627.24876055217,83.0
13627.248823049382,3656.0
13627.248885546594,6681.0
13627.248948043807,8457.0
13627.24901054102,9159.0
13627.249073038232,8804.0
13627.249135535445,7683.0
13627.249198032658,6489.0
13627.24926052987,5639.0
13627.249323027081,5216.0
13627.249385524294,5333.0
13627.249448021506,6057.0
13627.249510518719,6950.0
13627.249573015932,7516.0
13627.249635513144,7433.0
13627.249698010357,6757.0
13627.24976050757,5932.0
13627.249823004782,5593.0
13627.249885501995,5761.0
13627.249947999208,6280.0
13627.250010496418,6966.0
13627.250072993631,7576.0
13627.250135490844,7808.0
13627.250197988056,7644.0
13627.250260485269,7289.0
13627.250322982482,6806.0
13627.250385479694,6283.0
13627.250447976907,5647.0
13627.25051047412,5224.0
13627.250572971332,5116.0
13627.250635468545,5147.0
13627.250697965756,5003.0
13627.250760462968,4462.0
13627.25082296018,3588.0
13627.250885457393,2526.0
13627.250947954606,1470.0
13627.251010451819,731.0
13627.251072949031,388.0
13627.251135446244,214.0
13627.251197943457,-59.0
13627.25126044067,-439.0
13627.251322937882,-841.0
13627.251385435093,-1296.0
13627.251447932305,-1670.0
13627.251510429518,-1966.0
13627.25157292673,-2398.0
13627.251635423943,-2914.0
13627.251697921156,-3464.0
13627.251760418369,-4054.0
13627.251822915581,-4691.0
13627.251885412794,-5692.0
13627.251947910006,-7145.0
13627.252010407217,-8874.0
13627.25207290443,-10655.0
13627.252135401643,-12517.0
13627.252197898855,-14245.0
13627.252260396068,-15656.0
13627.25232289328,-16920.0
13627.252385390493,-17793.0
13627.252447887706,-18319.0
13627.252510384918,-18824.0
13627.252572882131,-19459.0
13627.252635379344,-20651.0
13627.252697876556,-22379.0
13627.252760373767,-22906.0
13627.25282287098,-20121.0
13627.252885368192,-14016.0
13627.252947865405,-6812.0
13627.253010362618,-274.0
13627.25307285983,4245.0
13627.253135357043,5873.0
13627.253197854256,5530.0
13627.253260351468,4750.0
13627.25332284868,3925.0
13627.253385345892,2772.0
13627.253447843104,1568.0
13627.253510340317,832.0
13627.25357283753,661.0
13627.253635334742,825.0
13627.253697831955,906.0
13627.253760329168,100.0
13627.25382282638,-1227.0
13627.253885323593,-2517.0
13627.253947820805,-2610.0
13627.254010318018,-1200.0
13627.254072815229,1657.0
13627.254135312442,4871.0
13627.254197809654,7441.0
13627.254260306867,8684.0
13627.25432280408,8819.0
13627.254385301292,8189.0
13627.254447798505,7208.0
13627.254510295717,6277.0
13627.25457279293,5690.0
13627.254635290143,5550.0
13627.254697787355,5825.0
13627.254760284566,6416.0
13627.254822781779,7034.0
13627.254885278991,7583.0
13627.254947776204,7509.0
13627.255010273417,6780.0
13627.25507277063,6049.0
13627.255135267842,5896.0
13627.255197765055,6107.0
13627.255260262267,6633.0
13627.25532275948,7368.0
13627.255385256693,8010.0
13627.255447753903,8017.0
13627.255510251116,7632.0
13627.255572748329,7126.0
13627.255635245541,6550.0
13627.255697742754,6177.0
13627.255760239967,5930.0
13627.25582273718,5836.0
13627.255885234392,5881.0
13627.255947731604,5684.0
13627.256010228817,5055.0
13627.25607272603,4144.0
13627.25613522324,3088.0
13627.256197720453,2017.0
13627.256260217666,986.0
13627.256322714878,368.0
13627.256385212091,156.0
13627.256447709304,105.0
13627.256510206516,134.0
13627.256572703729,52.0
13627.256635200942,-335.0
13627.256697698154,-954.0
13627.256760195367,-1661.0
13627.256822692578,-2238.0
13627.25688518979,-2617.0
13627.256947687003,-2979.0
13627.257010184216,-3426.0
13627.257072681428,-4072.0
13627.257135178641,-5136.0
13627.257197675854,-6618.0
13627.257260173066,-8390.0
13627.257322670279,-10273.0
13627.257385167492,-12170.0
13627.257447664704,-13987.0
13627.257510161915,-15471.0
13627.257572659128,-16536.0
13627.25763515634,-17195.0
13627.257697653553,-17448.0
13627.257760150766,-17709.0
13627.257822647978,-18241.0
13627.25788514519,-19319.0
13627.257947642403,-21115.0
13627.258010139616,-22518.0
13627.258072636829,-21213.0
13627.258135134041,-16686.0
13627.258197631252,-10151.0
13627.258260128465,-3456.0
13627.258322625677,1904.0
13627.25838512289,5012.0
13627.258447620103,5648.0
13627.258510117315,4932.0
13627.258572614528,4024.0
13627.25863511174,2919.0
13627.258697608953,1775.0
13627.258760106166,930.0
13627.258822603379,875.0
13627.25888510059,1334.0
13627.258947597802,1463.0
13627.259010095015,894.0
13627.259072592227,-361.0
13627.25913508944,-1849.0
13627.259197586653,-2655.0
13627.259260083865,-1877.0
13627.259322581078,470.0
13627.25938507829,3407.0
13627.259447575503,5949.0
13627.259510072716,7802.0
13627.259572569927,8626.0
13627.25963506714,8480.0
13627.259697564352,7818.0
13627.259760061565,6951.0
13627.259822558777,6141.0
13627.25988505599,5583.0
13627.259947553202,5529.0
13627.260010050415,6016.0
13627.260072547628,6780.0
13627.26013504484,7333.0
13627.260197542053,7497.0
13627.260260039264,7277.0
13627.260322536476,6783.0
13627.260385033689,6413.0
13627.260447530902,6538.0
13627.260510028114,6959.0
13627.260572525327,7410.0
13627.26063502254,7684.0
13627.260697519752,7714.0
13627.260760016965,7505.0
13627.260822514178,7272.0
13627.26088501139,7095.0
13627.260947508601,6836.0
13627.261010005814,6552.0
13627.261072503026,6297.0
13627.261135000239,6032.0
13627.261197497452,5792.0
13627.261259994664,5467.0
13627.261322491877,4743.0
13627.26138498909,3776.0
13627.261447486302,2706.0
13627.261509983515,1760.0
13627.261572480727,1014.0
13627.261634977938,694.0
13627.26169747515,647.0
13627.261759972364,538.0
13627.261822469576,300.0
13627.261884966789,-43.0
13627.261947464001,-565.0
13627.262009961214,-1086.0
13627.262072458427,-1419.0
13627.26213495564,-1672.0
13627.262197452852,-1874.0
13627.262259950065,-2219.0
13627.262322447275,-2864.0
13627.262384944488,-3848.0
13627.2624474417,-5220.0
13627.262509938913,-6967.0
13627.262572436126,-9030.0
13627.262634933339,-11090.0
13627.262697430551,-12902.0
13627.262759927764,-14374.0
13627.262822424977,-15392.0
13627.26288492219,-16082.0
13627.2629474194,-16327.0
13627.263009916613,-16435.0
13627.263072413825,-16677.0
13627.263134911038,-17206.0
13627.26319740825,-18070.0
13627.263259905463,-19625.0
13627.263322402676,-21112.0
13627.263384899888,-20082.0
13627.263447397101,-15928.0
13627.263509894314,-10209.0
13627.263572391526,-4014.0
13627.263634888739,1306.0
13627.26369738595,4332.0
13627.263759883162,4973.0
13627.263822380375,4630.0
13627.263884877588,4182.0
13627.2639473748,3127.0
13627.264009872013,1997.0
13627.264072369226,1314.0
13627.264134866438,1155.0
13627.264197363651,1394.0
13627.264259860864,1667.0
13627.264322358074,1421.0
13627.264384855287,420.0
13627.2644473525,-1047.0
13627.264509849712,-1891.0
13627.264572346925,-1415.0
13627.264634844138,650.0
13627.26469734135,3455.0
13627.264759838563,6020.0
13627.264822335776,7868.0
13627.264884832988,8689.0
13627.2649473302,8601.0
13627.265009827412,8094.0
13627.265072324624,7508.0
13627.265134821837,6774.0
13627.26519731905,6170.0
13627.265259816262,6006.0
13627.265322313475,6326.0
13627.265384810687,6970.0
13627.2654473079,7558.0
13627.265509805113,7775.0
13627.265572302325,7520.0
13627.265634799538,6883.0
13627.265697296749,6485.0
13627.265759793961,6554.0
13627.265822291174,6959.0
13627.265884788387,7392.0
13627.2659472856,7754.0
13627.266009782812,7970.0
13627.266072280025,7954.0
13627.266134777237,7698.0
13627.26619727445,7433.0
13627.266259771663,7137.0
13627.266322268875,6685.0
13627.266384766086,6265.0
13627.266447263299,6068.0
13627.266509760511,6009.0
13627.266572257724,5706.0
13627.266634754937,5058.0
13627.26669725215,4207.0
13627.266759749362,3138.0
13627.266822246575,2128.0
13627.266884743787,1456.0
13627.266947241,1222.0
13627.267009738212,1150.0
13627.267072235423,997.0
13627.267134732636,712.0
13627.267197229849,364.0
13627.267259727061,-101.0
13627.267322224274,-672.0
13627.267384721486,-1185.0
13627.267447218699,-1567.0
13627.267509715912,-1743.0
13627.267572213124,-1971.0
13627.267634710337,-2441.0
13627.26769720755,-3201.0
13627.26775970476,-4488.0
13627.267822201973,-6270.0
13627.267884699186,-8278.0
13627.267947196398,-10183.0
13627.268009693611,-11876.0
13627.268072190824,-13410.0
13627.268134688036,-14635.0
13627.268197185249,-15330.0
13627.268259682462,-15435.0
13627.268322179674,-15335.0
13627.268384676887,-15312.0
13627.268447174098,-15749.0
13627.26850967131,-16723.0
13627.268572168523,-18525.0
13627.268634665736,-20326.0
13627.268697162948,-19849.0
13627.26875966016,-16319.0
13627.268822157374,-11077.0
13627.268884654586,-5297.0
13627.268947151799,-157.0
13627.269009649011,3238.0
13627.269072146224,4405.0
13627.269134643435,4263.0
13627.269197140648,3775.0
13627.26925963786,2939.0
13627.269322135073,1960.0
13627.269384632285,1300.0
13627.269447129498,1230.0
13627.26950962671,1824.0
13627.269572123923,2192.0
13627.269634621136,1879.0
13627.269697118349,934.0
13627.269759615561,-412.0
13627.269822112772,-1512.0
13627.269884609985,-1400.0
13627.269947107197,353.0
13627.27000960441,3093.0
13627.270072101623,5643.0
13627.270134598835,7518.0
13627.270197096048,8431.0
13627.27025959326,8682.0
13627.270322090473,8308.0
13627.270384587686,7629.0
13627.270447084898,6851.0
13627.27050958211,6227.0
13627.270572079322,5890.0
13627.270634576535,6129.0
13627.270697073747,6954.0
13627.27075957096,7758.0
13627.270822068172,8168.0
13627.270884565385,8018.0
13627.270947062598,7336.0
13627.27100955981,6716.0
13627.271072057023,6690.0
13627.271134554236,7014.0
13627.271197051447,7630.0
13627.27125954866,8242.0
13627.271322045872,8666.0
13627.271384543084,8680.0
13627.271447040297,8355.0
13627.27150953751,7825.0
13627.271572034722,7202.0
13627.271634531935,6483.0
13627.271697029148,5976.0
13627.27175952636,5713.0
13627.271822023573,5753.0
13627.271884520784,5750.0
13627.271947017996,5306.0
13627.272009515209,4543.0
13627.272072012422,3603.0
13627.272134509634,2547.0
13627.272197006847,1620.0
13627.27225950406,1141.0
13627.272322001272,997.0
13627.272384498485,934.0
13627.272446995697,771.0
13627.27250949291,590.0
13627.272571990121,212.0
13627.272634487334,-285.0
13627.272696984546,-839.0
13627.272759481759,-1407.0
13627.272821978971,-1885.0
13627.272884476184,-2358.0
13627.272946973397,-2978.0
13627.27300947061,-3775.0
13627.273071967822,-4902.0
13627.273134465035,-6472.0
13627.273196962247,-8494.0
13627.273259459458,-10728.0
13627.27332195667,-12815.0
13627.273384453883,-14368.0
13627.273446951096,-15264.0
13627.273509448309,-15451.0
13627.273571945521,-15227.0
13627.273634442734,-15334.0
13627.273696939947,-15991.0
13627.27375943716,-16876.0
13627.273821934372,-18043.0
13627.273884431583,-19921.0
13627.273946928795,-20936.0
13627.274009426008,-18975.0
13627.27407192322,-14313.0
13627.274134420433,-8809.0
13627.274196917646,-3084.0
13627.274259414859,1898.0
13627.274321912071,4472.0
13627.274384409284,4311.0
13627.274446906496,3664.0
13627.274509403709,3350.0
13627.274571900922,2423.0
13627.274634398133,1202.0
13627.274696895345,1145.0
13627.274759392558,1828.0
13627.27482188977,2065.0
13627.274884386983,1944.0
13627.274946884196,1609.0
13627.275009381408,580.0
13627.275071878621,-996.0
13627.275134375834,-1549.0
13627.275196873046,-598.0
13627.275259370257,1516.0
13627.27532186747,3916.0
13627.275384364682,6215.0
13627.275446861895,7753.0
13627.275509359108,8462.0
13627.27557185632,8208.0
13627.275634353533,7715.0
13627.275696850746,7198.0
13627.275759347958,6513.0
13627.27582184517,5963.0
13627.275884342384,6180.0
13627.275946839594,6807.0
13627.276009336807,7317.0
13627.27607183402,7868.0
13627.276134331232,8149.0
13627.276196828445,7761.0
13627.276259325658,7020.0
13627.27632182287,6774.0
13627.276384320083,6872.0
13627.276446817295,7111.0
13627.276509314508,7541.0
13627.27657181172,8054.0
13627.276634308932,8277.0
13627.276696806144,8183.0
13627.276759303357,7775.0
13627.27682180057,7404.0
13627.276884297782,7051.0
13627.276946794995,6624.0
13627.277009292207,6238.0
13627.27707178942,6149.0
13627.277134286633,6110.0
13627.277196783845,5614.0
13627.277259281058,4823.0
13627.277321778269,3917.0
13627.277384275481,2881.0
13627.277446772694,1811.0
13627.277509269907,1272.0
13627.27757176712,1173.0
13627.277634264332,1165.0
13627.277696761545,1060.0
13627.277759258757,866.0
13627.27782175597,557.0
13627.277884253182,164.0
13627.277946750395,-377.0
13627.278009247606,-933.0
13627.278071744819,-1353.0
13627.278134242031,-1796.0
13627.278196739244,-2395.0
13627.278259236457,-3243.0
13627.27832173367,-4290.0
13627.278384230882,-5744.0
13627.278446728094,-7561.0
13627.278509225307,-9481.0
13627.27857172252,-11335.0
13627.278634219732,-12839.0
13627.278696716943,-13802.0
13627.278759214156,-14437.0
13627.278821711368,-14803.0
13627.278884208581,-15025.0
13627.278946705794,-15297.0
13627.279009203006,-15655.0
13627.279071700219,-16157.0
13627.279134197432,-16788.0
13627.279196694644,-18211.0
13627.279259191857,-19489.0
13627.27932168907,-18382.0
13627.27938418628,-14584.0
13627.279446683493,-9696.0
13627.279509180706,-4341.0
13627.279571677918,405.0
13627.279634175131,3417.0
13627.279696672344,4181.0
13627.279759169556,4146.0
13627.279821666769,3995.0
13627.279884163981,3183.0
13627.279946661194,2022.0
13627.280009158407,1467.0
13627.280071655618,1587.0
13627.28013415283,1853.0
13627.280196650043,1901.0
13627.280259147255,1667.0
13627.280321644468,902.0
13627.28038414168,-446.0
13627.280446638893,-1251.0
13627.280509136106,-840.0
13627.280571633319,858.0
13627.280634130531,2932.0
13627.280696627744,5135.0
13627.280759124955,7007.0
13627.280821622167,8091.0
13627.28088411938,8373.0
13627.280946616593,8333.0
13627.281009113805,7816.0
13627.281071611018,7033.0
13627.28113410823,6347.0
13627.281196605443,6165.0
13627.281259102656,6501.0
13627.281321599869,7175.0
13627.281384097081,8008.0
13627.281446594292,8431.0
13627.281509091505,8236.0
13627.281571588717,7572.0
13627.28163408593,7030.0
13627.281696583143,6828.0
13627.281759080355,6736.0
13627.281821577568,6948.0
13627.28188407478,7573.0
13627.281946571993,8145.0
13627.282009069206,8451.0
13627.282071566418,8570.0
13627.28213406363,8452.0
13627.282196560842,7973.0
13627.282259058054,7097.0
13627.282321555267,6311.0
13627.28238405248,5790.0
13627.282446549692,5481.0
13627.282509046905,5166.0
13627.282571544118,4738.0
13627.28263404133,4127.0
13627.282696538543,3313.0
13627.282759035756,2272.0
13627.282821532966,1419.0
13627.282884030179,929.0
13627.282946527392,626.0
13627.283009024604,484.0
13627.283071521817,511.0
13627.28313401903,567.0
13627.283196516242,446.0
13627.283259013455,91.0
13627.283321510668,-472.0
13627.28338400788,-1210.0
13627.283446505093,-2151.0
13627.283509002304,-3065.0
13627.283571499516,-4049.0
13627.283633996729,-5112.0
13627.283696493942,-6410.0
13627.283758991154,-8127.0
13627.283821488367,-10117.0
13627.28388398558,-12077.0
13627.283946482792,-13727.0
13627.284008980005,-14734.0
13627.284071477217,-15053.0
13627.28413397443,-14823.0
13627.28419647164,-14557.0
13627.284258968853,-14744.0
13627.284321466066,-15429.0
13627.284383963279,-16413.0
13627.284446460491,-17815.0
13627.284508957704,-19211.0
13627.284571454917,-18787.0
13627.28463395213,-15699.0
13627.284696449342,-10758.0
13627.284758946555,-5261.0
13627.284821443767,-289.0
13627.284883940978,3076.0
13627.28494643819,4249.0
13627.285008935403,4001.0
13627.285071432616,3503.0
13627.285133929829,2934.0
13627.285196427041,2316.0
13627.285258924254,1754.0
13627.285321421467,1647.0
13627.28538391868,2077.0
13627.285446415892,2379.0
13627.285508913104,2254.0
13627.285571410315,1508.0
13627.285633907528,477.0
13627.28569640474,-494.0
13627.285758901953,-576.0
13627.285821399166,758.0
13627.285883896378,3013.0
13627.285946393591,5231.0
13627.286008890804,7107.0
13627.286071388016,8185.0
13627.286133885229,8434.0
13627.28619638244,8120.0
13627.286258879652,7660.0
13627.286321376865,7163.0
13627.286383874078,6670.0
13627.28644637129,6422.0
13627.286508868503,6563.0
13627.286571365716,7150.0
13627.286633862928,7785.0
13627.286696360141,8281.0
13627.286758857354,8319.0
13627.286821354566,8057.0
13627.286883851779,7708.0
13627.28694634899,7444.0
13627.287008846202,7349.0
13627.287071343415,7549.0
13627.287133840628,7835.0
13627.28719633784,8186.0
13627.287258835053,8406.0
13627.287321332265,8481.0
13627.287383829478,8309.0
13627.28744632669,7796.0
13627.287508823903,7194.0
13627.287571321114,6556.0
13627.287633818327,5990.0
13627.28769631554,5640.0
13627.287758812752,5331.0
13627.287821309965,5007.0
13627.287883807177,4560.0
13627.28794630439,3944.0
13627.288008801603,3307.0
13627.288071298815,2686.0
13627.288133796028,2119.0
13627.28819629324,1623.0
13627.288258790451,1124.0
13627.288321287664,642.0
13627.288383784877,253.0
13627.28844628209,-59.0
13627.288508779302,-297.0
13627.288571276515,-633.0
13627.288633773727,-1110.0
13627.28869627094,-1607.0
13627.288758768153,-2215.0
13627.288821265365,-2889.0
13627.288883762578,-3728.0
13627.288946259789,-4911.0
13627.289008757001,-6434.0
13627.289071254214,-8390.0
13627.289133751427,-10599.0
13627.28919624864,-12521.0
13627.289258745852,-13844.0
13627.289321243064,-14374.0
13627.289383740277,-14268.0
13627.28944623749,-14103.0
13627.289508734702,-14073.0
13627.289571231915,-14533.0
13627.289633729126,-15453.0
13627.289696226338,-16475.0
13627.289758723551,-17783.0
13627.289821220764,-18620.0
13627.289883717976,-17502.0
13627.289946215189,-14125.0
13627.290008712402,-9210.0
13627.290071209614,-3879.0
13627.290133706827,634.0
13627.29019620404,3274.0
13627.290258701252,4022.0
13627.290321198463,3726.0
13627.290383695676,3050.0
13627.290446192888,2078.0
13627.290508690101,1479.0
13627.290571187314,1274.0
13627.290633684526,1401.0
13627.290696181739,1774.0
13627.290758678952,2116.0
13627.290821176164,1761.0
13627.290883673377,899.0
13627.29094617059,-199.0
13627.2910086678,-751.0
13627.291071165013,-240.0
13627.291133662226,1524.0
13627.291196159438,3752.0
13627.29125865665,5933.0
13627.291321153863,7707.0
13627.291383651076,8672.0
13627.291446148289,8649.0
13627.291508645501,8186.0
13627.291571142714,7541.0
13627.291633639927,6722.0
13627.291696137137,6176.0
13627.29175863435,6103.0
13627.291821131563,6497.0
13627.291883628775,7032.0
13627.291946125988,7556.0
13627.2920086232,7754.0
13627.292071120413,7574.0
13627.292133617626,7296.0
13627.292196114839,7189.0
13627.292258612051,7242.0
13627.292321109264,7566.0
13627.292383606475,7946.0
13627.292446103687,8272.0
13627.2925086009,8508.0
13627.292571098113,8524.0
13627.292633595325,8268.0
13627.292696092538,7858.0
13627.29275858975,7278.0
13627.292821086963,6656.0
13627.292883584176,6164.0
13627.292946081388,5962.0
13627.293008578601,5866.0
13627.293071075812,5648.0
13627.293133573025,5238.0
13627.293196070237,4629.0
13627.29325856745,3836.0
13627.293321064662,3058.0
13627.293383561875,2418.0
13627.293446059088,1924.0
13627.2935085563,1583.0
13627.293571053513,1207.0
13627.293633550726,784.0
13627.293696047938,367.0
13627.29375854515,-95.0
13627.293821042362,-499.0
13627.293883539574,-921.0
13627.293946036787,-1406.0
13627.294008534,-1955.0
13627.294071031212,-2610.0
13627.294133528425,-3290.0
13627.294196025638,-4112.0
13627.29425852285,-5340.0
13627.294321020063,-6991.0
13627.294383517275,-8858.0
13627.294446014486,-10711.0
13627.294508511699,-12252.0
13627.294571008912,-13331.0
13627.294633506124,-13784.0
13627.294696003337,-13679.0
13627.29475850055,-13547.0
13627.294820997762,-13782.0
13627.294883494975,-14417.0
13627.294945992187,-15293.0
13627.2950084894,-16309.0
13627.295070986613,-17792.0
13627.295133483824,-18709.0
13627.295195981036,-17306.0
13627.295258478249,-13568.0
13627.295320975461,-8777.0
13627.295383472674,-3860.0
13627.295445969887,450.0
13627.2955084671,3214.0
13627.295570964312,3662.0
13627.295633461525,3233.0
13627.295695958737,3181.0
13627.29575845595,2940.0
13627.29582095316,2222.0
13627.295883450373,1991.0
13627.295945947586,2369.0
13627.296008444799,2366.0
13627.296070942011,1900.0
13627.296133439224,1515.0
13627.296195936437,964.0
13627.29625843365,-163.0
13627.296320930862,-838.0
13627.296383428074,-82.0
13627.296445925287,1682.0
13627.296508422498,3813.0
13627.29657091971,5952.0
13627.296633416923,7673.0
13627.296695914136,8494.0
13627.296758411348,8457.0
13627.296820908561,8169.0
13627.296883405774,7857.0
13627.296945902986,7302.0
13627.297008400199,6697.0
13627.297070897412,6424.0
13627.297133394623,6604.0
13627.297195891835,6976.0
13627.297258389048,7428.0
13627.29732088626,7759.0
13627.297383383473,7689.0
13627.297445880686,7355.0
13627.297508377898,7212.0
13627.297570875111,7308.0
13627.297633372324,7464.0
13627.297695869536,7773.0
13627.297758366749,8068.0
13627.297820863962,8274.0
13627.297883361172,8253.0
13627.297945858385,8136.0
13627.298008355598,7942.0
13627.29807085281,7571.0
13627.298133350023,6972.0
13627.298195847236,6350.0
13627.298258344448,5813.0
13627.29832084166,5408.0
13627.298383338873,4983.0
13627.298445836086,4504.0
13627.298508333297,4078.0
13627.29857083051,3580.0
13627.298633327722,2951.0
13627.298695824935,2378.0
13627.298758322147,1859.0
13627.29882081936,1337.0
13627.298883316573,797.0
13627.298945813785,306.0
13627.299008310998,-109.0
13627.29907080821,-559.0
13627.299133305423,-1029.0
13627.299195802634,-1576.0
13627.299258299847,-2094.0
13627.29932079706,-2503.0
13627.299383294272,-2930.0
13627.299445791485,-3456.0
13627.299508288697,-4103.0
13627.29957078591,-5287.0
13627.299633283123,-7071.0
13627.299695780335,-9167.0
13627.299758277548,-11338.0
13627.29982077476,-13132.0
13627.299883271971,-14275.0
13627.299945769184,-14554.0
13627.300008266397,-14255.0
13627.30007076361,-13723.0
13627.300133260822,-13414.0
13627.300195758035,-13817.0
13627.300258255247,-14847.0
13627.30032075246,-16663.0
13627.300383249672,-18634.0
13627.300445746885,-18880.0
13627.300508244098,-16328.0
13627.300570741309,-11678.0
13627.300633238521,-6296.0
13627.300695735734,-1274.0
13627.300758232946,2155.0
13627.30082073016,3598.0
13627.300883227372,3641.0
13627.300945724584,3319.0
13627.301008221797,2828.0
13627.30107071901,2204.0
13627.301133216222,1735.0
13627.301195713435,1892.0
13627.301258210646,2454.0
13627.301320707858,3001.0
13627.301383205071,2968.0
13627.301445702284,2333.0
13627.301508199496,990.0
13627.301570696709,-380.0
13627.301633193922,-880.0
13627.301695691134,58.0
13627.301758188347,1993.0
13627.30182068556,4316.0
13627.301883182772,6430.0
13627.301945679983,7882.0
13627.302008177196,8621.0
13627.302070674408,8662.0
13627.30213317162,8231.0
13627.302195668834,7623.0
13627.302258166046,7065.0
13627.302320663259,6616.0
13627.302383160471,6629.0
13627.302445657684,7093.0
13627.302508154897,7756.0
13627.30257065211,8096.0
13627.30263314932,7923.0
13627.302695646533,7470.0
13627.302758143745,7088.0
13627.302820640958,6917.0
13627.30288313817,7131.0
13627.302945635383,7649.0
13627.303008132596,8199.0
13627.303070629809,8583.0
13627.303133127021,8705.0
13627.303195624234,8678.0
13627.303258121447,8388.0
13627.303320618657,7863.0
13627.30338311587,7217.0
13627.303445613083,6539.0
13627.303508110295,6060.0
13627.303570607508,5782.0
13627.30363310472,5592.0
13627.303695601933,5349.0
13627.303758099146,4871.0
13627.303820596358,4118.0
13627.303883093571,3181.0
13627.303945590784,2308.0
13627.304008087995,1734.0
13627.304070585207,1396.0
13627.30413308242,1188.0
13627.304195579633,905.0
13627.304258076845,532.0
13627.304320574058,26.0
13627.30438307127,-515.0
13627.304445568483,-1063.0
13627.304508065696,-1456.0
13627.304570562908,-1866.0
13627.304633060121,-2380.0
13627.304695557332,-3006.0
13627.304758054544,-3823.0
13627.304820551757,-4972.0
13627.30488304897,-6545.0
13627.304945546182,-8473.0
13627.305008043395,-10556.0
13627.305070540608,-12328.0
13627.30513303782,-13628.0
13627.305195535033,-14149.0
13627.305258032246,-13969.0
13627.305320529458,-13581.0
13627.305383026669,-13423.0
13627.305445523882,-13727.0
13627.305508021094,-14490.0
13627.305570518307,-15629.0
13627.30563301552,-17100.0
13627.305695512732,-18002.0
13627.305758009945,-17084.0
13627.305820507157,-14000.0
13627.30588300437,-9611.0
13627.305945501583,-4820.0
13627.306007998795,-495.0
13627.306070496006,2376.0
13627.306132993219,3454.0
13627.306195490431,3440.0
13627.306257987644,2928.0
13627.306320484857,2120.0
13627.30638298207,1437.0
13627.306445479282,1350.0
13627.306507976495,1885.0
13627.306570473707,2450.0
13627.30663297092,2646.0
13627.306695468133,2294.0
13627.306757965343,1249.0
13627.306820462556,182.0
13627.306882959769,-391.0
13627.306945456981,-111.0
13627.307007954194,1065.0
13627.307070451407,2997.0
13627.30713294862,5093.0
13627.307195445832,6834.0
13627.307257943045,8018.0
13627.307320440257,8578.0
13627.30738293747,8398.0
13627.30744543468,7691.0
13627.307507931893,6889.0
13627.307570429106,6407.0
13627.307632926319,6391.0
13627.307695423531,6715.0
13627.307757920744,7322.0
13627.307820417956,8005.0
13627.30788291517,8219.0
13627.307945412382,7897.0
13627.308007909594,7523.0
13627.308070406805,7224.0
13627.308132904018,7035.0
13627.30819540123,6979.0
13627.308257898443,7361.0
13627.308320395656,7819.0
13627.308382892868,8138.0
13627.308445390081,8385.0
13627.308507887294,8564.0
13627.308570384506,8472.0
13627.308632881719,8033.0
13627.308695378932,7378.0
13627.308757876144,6659.0
13627.308820373355,6044.0
13627.308882870568,5547.0
13627.30894536778,5167.0
13627.309007864993,4808.0
13627.309070362206,4373.0
13627.309132859418,3684.0
13627.30919535663,2924.0
13627.309257853844,2193.0
13627.309320351056,1591.0
13627.309382848269,1117.0
13627.30944534548,708.0
13627.309507842692,325.0
13627.309570339905,-2.0
13627.309632837118,-265.0
13627.30969533433,-499.0
13627.309757831543,-850.0
13627.309820328755,-1292.0
13627.309882825968,-1881.0
13627.30994532318,-2685.0
13627.310007820393,-3607.0
13627.310070317606,-4795.0
13627.310132814817,-6288.0
13627.31019531203,-8139.0
13627.310257809242,-10281.0
13627.310320306455,-12268.0
13627.310382803667,-13621.0
13627.31044530088,-14185.0
13627.310507798093,-14062.0
13627.310570295305,-13661.0
13627.310632792518,-13359.0
13627.31069528973,-13571.0
13627.310757786943,-14500.0
13627.310820284154,-15615.0
13627.310882781367,-16859.0
13627.31094527858,-17866.0
13627.311007775792,-17287.0
13627.311070273005,-14521.0
13627.311132770217,-10352.0
13627.31119526743,-5888.0
13627.311257764643,-1876.0
13627.311320261855,1047.0
13627.311382759068,2175.0
13627.31144525628,2391.0
13627.311507753491,2625.0
13627.311570250704,2587.0
13627.311632747917,2377.0
13627.31169524513,2294.0
13627.311757742342,2467.0
13627.311820239554,2560.0
13627.311882736767,2452.0
13627.31194523398,2043.0
13627.312007731192,1162.0
13627.312070228405,108.0
13627.312132725618,-512.0
13627.312195222828,-191.0
13627.312257720041,1234.0
13627.312320217254,3082.0
13627.312382714466,5029.0
13627.312445211679,6570.0
13627.312507708892,7519.0
13627.312570206104,7746.0
13627.312632703317,7566.0
13627.31269520053,7304.0
13627.312757697742,6920.0
13627.312820194955,6622.0
13627.312882692166,6786.0
13627.312945189378,7186.0
13627.313007686591,7556.0
13627.313070183804,7973.0
13627.313132681016,8162.0
13627.313195178229,7996.0
13627.313257675441,7537.0
13627.313320172654,7260.0
13627.313382669867,7207.0
13627.31344516708,7314.0
13627.313507664292,7638.0
13627.313570161503,8098.0
13627.313632658716,8345.0
13627.313695155928,8435.0
13627.31375765314,8224.0
13627.313820150353,7905.0
13627.313882647566,7464.0
13627.313945144779,6936.0
13627.314007641991,6375.0
13627.314070139204,5924.0
13627.314132636417,5625.0
13627.31419513363,5368.0
13627.31425763084,5043.0
13627.314320128053,4678.0
13627.314382625265,4150.0
13627.314445122478,3347.0
13627.31450761969,2595.0
13627.314570116903,1936.0
13627.314632614116,1336.0
13627.314695111329,858.0
13627.314757608541,486.0
13627.314820105754,138.0
13627.314882602966,-238.0
13627.314945100177,-643.0
13627.31500759739,-1125.0
13627.315070094603,-1653.0
13627.315132591815,-2128.0
13627.315195089028,-2771.0
13627.31525758624,-3535.0
13627.315320083453,-4412.0
13627.315382580666,-5680.0
13627.315445077878,-7326.0
13627.315507575091,-9143.0
13627.315570072304,-10999.0
13627.315632569514,-12500.0
13627.315695066727,-13173.0
13627.31575756394,-13133.0
13627.315820061152,-12896.0
13627.315882558365,-12866.0
13627.315945055578,-13203.0
13627.31600755279,-13927.0
13627.316070050003,-14847.0
13627.316132547216,-16011.0
13627.316195044428,-17415.0
13627.31625754164,-17880.0
13627.316320038852,-16475.0
13627.316382536064,-13040.0
13627.316445033277,-8624.0
13627.31650753049,-4003.0
13627.316570027702,-180.0
13627.316632524915,1946.0
13627.316695022128,2889.0
13627.31675751934,3120.0
13627.316820016553,2874.0
13627.316882513765,2417.0
13627.316945010978,1943.0
13627.317007508189,1931.0
13627.317070005402,2171.0
13627.317132502614,2441.0
13627.317194999827,2504.0
13627.31725749704,1871.0
13627.317319994252,997.0
13627.317382491465,47.0
13627.317444988677,-185.0
13627.31750748589,475.0
13627.317569983103,1918.0
13627.317632480315,3661.0
13627.317694977526,5484.0
13627.317757474739,6804.0
13627.317819971951,7735.0
13627.317882469164,8122.0
13627.317944966377,8231.0
13627.31800746359,7852.0
13627.318069960802,7321.0
13627.318132458015,6883.0
13627.318194955227,6667.0
13627.31825745244,6821.0
13627.318319949653,7307.0
13627.318382446863,7895.0
13627.318444944076,7997.0
13627.318507441289,7881.0
13627.318569938501,7656.0
13627.318632435714,7469.0
13627.318694932927,7314.0
13627.31875743014,7389.0
13627.318819927352,7545.0
13627.318882424564,7795.0
13627.318944921777,7990.0
13627.319007418988,8236.0
13627.3190699162,8255.0
13627.319132413413,8025.0
13627.319194910626,7390.0
13627.319257407838,6576.0
13627.319319905051,5947.0
13627.319382402264,5583.0
13627.319444899476,5312.0
13627.319507396689,5114.0
13627.319569893902,4854.0
13627.319632391114,4304.0
13627.319694888327,3559.0
13627.319757385538,2714.0
13627.31981988275,1968.0
13627.319882379963,1403.0
13627.319944877176,1014.0
13627.320007374388,758.0
13627.320069871601,557.0
13627.320132368814,263.0
13627.320194866026,-95.0
13627.320257363239,-643.0
13627.320319860451,-1300.0
13627.320382357662,-2071.0
13627.320444854875,-3025.0
13627.320507352088,-3819.0
13627.3205698493,-4438.0
13627.320632346513,-5150.0
13627.320694843726,-6112.0
13627.320757340938,-7627.0
13627.32081983815,-9559.0
13627.320882335363,-11397.0
13627.320944832576,-12805.0
13627.321007329789,-13667.0
13627.321069827,-14113.0
13627.321132324212,-14209.0
13627.321194821425,-14150.0
13627.321257318637,-14107.0
13627.32131981585,-14254.0
13627.321382313063,-14674.0
13627.321444810275,-15731.0
13627.321507307488,-16732.0
13627.3215698047,-16412.0
13627.321632301913,-14022.0
13627.321694799126,-10203.0
13627.321757296337,-6235.0
13627.32181979355,-2521.0
13627.321882290762,515.0
13627.321944787975,2213.0
13627.322007285187,3100.0
13627.3220697824,3426.0
13627.322132279613,3183.0
13627.322194776825,2328.0
13627.322257274038,1661.0
13627.32231977125,1784.0
13627.322382268463,2079.0
13627.322444765674,2386.0
13627.322507262887,2418.0
13627.3225697601,1835.0
13627.322632257312,834.0
13627.322694754524,245.0
13627.322757251737,375.0
13627.32281974895,1332.0
13627.322882246162,2827.0
13627.322944743375,4540.0
13627.323007240588,5925.0
13627.3230697378,7154.0
13627.323132235011,7883.0
13627.323194732224,8165.0
13627.323257229436,7943.0
13627.323319726649,7435.0
13627.323382223862,6957.0
13627.323444721074,6720.0
13627.323507218287,6932.0
13627.3235697155,7532.0
13627.323632212712,8130.0
13627.323694709925,8463.0
13627.323757207138,8372.0
13627.323819704348,8096.0
13627.323882201561,7782.0
13627.323944698774,7480.0
13627.324007195986,7403.0
13627.324069693199,7429.0
13627.324132190412,7584.0
13627.324194687624,7788.0
13627.324257184837,8011.0
13627.32431968205,8131.0
13627.324382179262,7970.0
13627.324444676475,7464.0
13627.324507173686,6781.0
13627.324569670898,6105.0
13627.32463216811,5606.0
13627.324694665323,5413.0
13627.324757162536,5383.0
13627.324819659749,5254.0
13627.324882156961,4807.0
13627.324944654174,4100.0
13627.325007151387,3270.0
13627.3250696486,2407.0
13627.325132145812,1592.0
13627.325194643023,981.0
13627.325257140235,550.0
13627.325319637448,206.0
13627.32538213466,-2.0
13627.325444631873,-216.0
13627.325507129086,-614.0
13627.325569626299,-1231.0
13627.325632123511,-2062.0
13627.325694620724,-2845.0
13627.325757117937,-3486.0
13627.32581961515,-4073.0
13627.32588211236,-4836.0
13627.325944609573,-6037.0
13627.326007106785,-7723.0
13627.326069603998,-9664.0
13627.32613210121,-11469.0
13627.326194598423,-12615.0
13627.326257095636,-13045.0
13627.326319592848,-13121.0
13627.326382090061,-13132.0
13627.326444587274,-13175.0
13627.326507084486,-13523.0
13627.326569581697,-14253.0
13627.32663207891,-15354.0
13627.326694576122,-17036.0
13627.326757073335,-18214.0
13627.326819570548,-17352.0
13627.32688206776,-14534.0
13627.326944564973,-10276.0
13627.327007062186,-5553.0
13627.327069559398,-1278.0
13627.327132056611,1478.0
13627.327194553824,2449.0
13627.327257051034,2825.0
13627.327319548247,2834.0
13627.32738204546,2338.0
13627.327444542672,1868.0
13627.327507039885,1740.0
13627.327569537098,1936.0
13627.32763203431,2075.0
13627.327694531523,2155.0
13627.327757028736,1829.0
13627.327819525948,1040.0
13627.32788202316,134.0
13627.327944520372,-568.0
13627.328007017584,-286.0
13627.328069514797,1070.0
13627.32813201201,2980.0
13627.328194509222,4930.0
13627.328257006435,6531.0
13627.328319503647,7576.0
13627.32838200086,7925.0
13627.328444498073,7702.0
13627.328506995285,7461.0
13627.328569492498,7099.0
13627.328631989709,6830.0
13627.328694486921,6796.0
13627.328756984134,7051.0
13627.328819481347,7382.0
13627.32888197856,7687.0
13627.328944475772,7677.0
13627.329006972985,7482.0
13627.329069470197,7197.0
13627.32913196741,7021.0
13627.329194464623,7107.0
13627.329256961835,7442.0
13627.329319459046,7897.0
13627.329381956259,8316.0
13627.329444453471,8494.0
13627.329506950684,8467.0
13627.329569447897,8218.0
13627.32963194511,7788.0
13627.329694442322,7302.0
13627.329756939534,6612.0
13627.329819436747,6016.0
13627.32988193396,5630.0
13627.32994443117,5436.0
13627.330006928383,5325.0
13627.330069425596,5229.0
13627.330131922809,4904.0
13627.330194420021,4296.0
13627.330256917234,3455.0
13627.330319414446,2641.0
13627.330381911659,1960.0
13627.330444408872,1413.0
13627.330506906084,1020.0
13627.330569403297,668.0
13627.33063190051,261.0
13627.33069439772,-158.0
13627.330756894933,-640.0
13627.330819392146,-1151.0
13627.330881889358,-1716.0
13627.330944386571,-2377.0
13627.331006883784,-3087.0
13627.331069380996,-3781.0
13627.331131878209,-4572.0
13627.331194375422,-5608.0
13627.331256872634,-7019.0
13627.331319369845,-8735.0
13627.331381867058,-10592.0
13627.33144436427,-12378.0
13627.331506861483,-13436.0
13627.331569358696,-13796.0
13627.331631855908,-13663.0
13627.33169435312,-13261.0
13627.331756850333,-13057.0
13627.331819347546,-13389.0
13627.331881844759,-14500.0
13627.331944341971,-16066.0
13627.332006839182,-17611.0
13627.332069336395,-17994.0
13627.332131833607,-16033.0
13627.33219433082,-12229.0
13627.332256828033,-7648.0
13627.332319325245,-2986.0
13627.332381822458,873.0
13627.33244431967,2901.0
13627.332506816883,3004.0
13627.332569314096,2442.0
13627.332631811309,1890.0
13627.33269430852,1242.0
13627.332756805732,742.0
13627.332819302945,1289.0
13627.332881800157,2266.0
13627.33294429737,2921.0
13627.333006794583,2883.0
13627.333069291795,2462.0
13627.333131789008,1541.0
13627.33319428622,281.0
13627.333256783433,-606.0
13627.333319280646,-110.0
13627.333381777857,1479.0
13627.33344427507,3454.0
13627.333506772282,5554.0
13627.333569269495,7430.0
13627.333631766707,8340.0
13627.33369426392,8347.0
13627.333756761132,7892.0
13627.333819258345,7283.0
13627.333881755558,6651.0
13627.33394425277,6367.0
13627.334006749983,6606.0
13627.334069247194,7152.0
13627.334131744406,7801.0
13627.33419424162,8296.0
13627.334256738832,8255.0
13627.334319236044,7822.0
13627.334381733257,7291.0
13627.33444423047,6831.0
13627.334506727682,6789.0
13627.334569224895,7088.0
13627.334631722108,7502.0
13627.33469421932,7915.0
13627.334756716531,8186.0
13627.334819213744,8258.0
13627.334881710956,8108.0
13627.334944208169,7788.0
13627.335006705382,7249.0
13627.335069202594,6481.0
13627.335131699807,5758.0
13627.33519419702,5333.0
13627.335256694232,5056.0
13627.335319191445,4855.0
13627.335381688657,4660.0
13627.335444185868,4201.0
13627.33550668308,3560.0
13627.335569180294,2821.0
13627.335631677506,2075.0
13627.335694174719,1556.0
13627.335756671931,1069.0
13627.335819169144,523.0
13627.335881666357,-40.0
13627.33594416357,-569.0
13627.336006660782,-990.0
13627.336069157995,-1387.0
13627.336131655205,-1822.0
13627.336194152418,-2351.0
13627.33625664963,-3012.0
13627.336319146843,-3731.0
13627.336381644056,-4472.0
13627.336444141269,-5349.0
13627.336506638481,-6500.0
13627.336569135694,-8148.0
13627.336631632907,-10017.0
13627.33669413012,-11624.0
13627.336756627332,-12683.0
13627.336819124543,-13019.0
13627.336881621755,-12841.0
13627.336944118968,-12673.0
13627.33700661618,-12683.0
13627.337069113393,-13056.0
13627.337131610606,-13948.0
13627.337194107819,-15283.0
13627.337256605031,-17014.0
13627.337319102244,-18186.0
13627.337381599456,-17319.0
13627.337444096669,-14364.0
13627.33750659388,-9841.0
13627.337569091093,-4879.0
13627.337631588305,-456.0
13627.337694085518,2335.0
13627.33775658273,3234.0
13627.337819079943,3140.0
13627.337881577156,2638.0
13627.337944074368,1951.0
13627.338006571581,1380.0
13627.338069068794,1433.0
13627.338131566006,2205.0
13627.338194063217,2919.0
13627.33825656043,3035.0
13627.338319057642,2495.0
13627.338381554855,1554.0
13627.338444052068,193.0
13627.33850654928,-834.0
13627.338569046493,-658.0
13627.338631543706,667.0
13627.338694040918,2628.0
13627.33875653813,4724.0
13627.338819035343,6699.0
13627.338881532554,7959.0
13627.338944029767,8352.0
13627.33900652698,8029.0
13627.339069024192,7375.0
13627.339131521405,6569.0
13627.339194018617,6198.0
13627.33925651583,6309.0
13627.339319013043,6939.0
13627.339381510255,7764.0
13627.339444007468,8241.0
13627.33950650468,8150.0
13627.339569001892,7620.0
13627.339631499104,6884.0
13627.339693996317,6510.0
13627.33975649353,6572.0
13627.339818990742,6909.0
13627.339881487955,7383.0
13627.339943985167,7914.0
13627.34000648238,8273.0
13627.340068979593,8334.0
13627.340131476805,8162.0
13627.340193974018,7706.0
13627.340256471229,6968.0
13627.340318968441,6061.0
13627.340381465654,5445.0
13627.340443962867,5278.0
13627.34050646008,5433.0
13627.340568957292,5520.0
13627.340631454505,5297.0
13627.340693951717,4678.0
13627.34075644893,3747.0
13627.340818946142,2799.0
13627.340881443355,2081.0
13627.340943940566,1652.0
13627.341006437779,1387.0
13627.341068934991,1101.0
13627.341131432204,752.0
13627.341193929416,385.0
13627.34125642663,-59.0
13627.341318923842,-649.0
13627.341381421054,-1363.0
13627.341443918267,-2130.0
13627.34150641548,-2783.0
13627.341568912692,-3362.0
13627.341631409903,-3894.0
13627.341693907116,-4527.0
13627.341756404328,-5699.0
13627.341818901541,-7404.0
13627.341881398754,-9445.0
13627.341943895966,-11446.0
13627.342006393179,-12836.0
13627.342068890392,-13409.0
13627.342131387604,-13296.0
13627.342193884817,-12888.0
13627.342256382028,-12620.0
13627.34231887924,-12438.0
13627.342381376453,-12704.0
13627.342443873666,-13578.0
13627.342506370878,-15033.0
13627.34256886809,-16617.0
13627.342631365304,-16909.0
13627.342693862516,-14872.0
13627.342756359729,-10976.0
13627.342818856941,-6401.0
13627.342881354154,-2299.0
13627.342943851367,626.0
13627.343006348578,1939.0
13627.34306884579,2122.0
13627.343131343003,1947.0
13627.343193840215,1800.0
13627.343256337428,1457.0
13627.34331883464,975.0
13627.343381331853,1079.0
13627.343443829066,1821.0
13627.343506326279,2595.0
13627.343568823491,2874.0
13627.343631320702,2667.0
13627.343693817915,1835.0
13627.343756315127,565.0
13627.34381881234,-241.0
13627.343881309553,361.0
13627.343943806765,1923.0
13627.344006303978,3710.0
13627.34406880119,5362.0
13627.344131298403,6755.0
13627.344193795616,7490.0
13627.344256292829,7695.0
13627.34431879004,7502.0
13627.344381287252,7236.0
13627.344443784465,6802.0
13627.344506281677,6432.0
13627.34456877889,6419.0
13627.344631276103,6920.0
13627.344693773315,7549.0
13627.344756270528,7958.0
13627.34481876774,8102.0
13627.344881264953,7900.0
13627.344943762166,7446.0
13627.345006259377,7077.0
13627.34506875659,6985.0
13627.345131253802,7143.0
13627.345193751014,7418.0
13627.345256248227,7601.0
13627.34531874544,7786.0
13627.345381242652,7880.0
13627.345443739865,7747.0
13627.345506237078,7439.0
13627.34556873429,7014.0
13627.345631231503,6431.0
13627.345693728714,5779.0
13627.345756225926,5285.0
13627.345818723139,5050.0
13627.345881220352,4842.0
13627.345943717564,4468.0
13627.346006214777,4013.0
13627.34606871199,3429.0
13627.346131209202,2670.0
13627.346193706415,1983.0
13627.346256203627,1416.0
13627.34631870084,885.0
13627.346381198051,373.0
13627.346443695264,-133.0
13627.346506192476,-535.0
13627.346568689689,-871.0
13627.346631186902,-1280.0
13627.346693684114,-1726.0
13627.346756181327,-2201.0
13627.34681867854,-2830.0
13627.346881175752,-3664.0
13627.346943672965,-4706.0
13627.347006170177,-6016.0
13627.347068667388,-7624.0
13627.3471311646,-9491.0
13627.347193661813,-11194.0
13627.347256159026,-12458.0
13627.347318656239,-13082.0
13627.347381153451,-13170.0
13627.347443650664,-12878.0
13627.347506147877,-12580.0
13627.34756864509,-12651.0
13627.347631142302,-13197.0
13627.347693639515,-13946.0
13627.347756136725,-15085.0
13627.347818633938,-16446.0
13627.34788113115,-16652.0
13627.347943628363,-14919.0
13627.348006125576,-11608.0
13627.348068622789,-7481.0
13627.348131120001,-3354.0
13627.348193617214,-26.0
13627.348256114426,1758.0
13627.34831861164,2327.0
13627.348381108852,2333.0
13627.348443606063,1847.0
13627.348506103275,1512.0
13627.348568600488,1372.0
13627.3486310977,1477.0
13627.348693594913,1861.0
13627.348756092126,2404.0
13627.348818589338,2517.0
13627.348881086551,2120.0
13627.348943583764,1318.0
13627.349006080976,565.0
13627.349068578189,112.0
13627.3491310754,648.0
13627.349193572612,1982.0
13627.349256069825,3743.0
13627.349318567038,5420.0
13627.34938106425,6698.0
13627.349443561463,7359.0
13627.349506058676,7596.0
13627.349568555888,7464.0
13627.3496310531,7037.0
13627.349693550314,6542.0
13627.349756047526,6287.0
13627.349818544737,6377.0
13627.34988104195,6725.0
13627.349943539162,7419.0
13627.350006036375,7965.0
13627.350068533588,8140.0
13627.3501310308,7864.0
13627.350193528013,7402.0
13627.350256025225,7100.0
13627.350318522438,7013.0
13627.35038101965,7133.0
13627.350443516863,7246.0
13627.350506014074,7450.0
13627.350568511287,7549.0
13627.3506310085,7383.0
13627.350693505712,7194.0
13627.350756002925,6917.0
13627.350818500137,6464.0
13627.35088099735,5863.0
13627.350943494563,5345.0
13627.351005991775,5113.0
13627.351068488988,4973.0
13627.3511309862,4960.0
13627.351193483411,4785.0
13627.351255980624,4334.0
13627.351318477837,3708.0
13627.35138097505,2969.0
13627.351443472262,2179.0
13627.351505969475,1493.0
13627.351568466687,920.0
13627.3516309639,338.0
13627.351693461113,-256.0
13627.351755958325,-845.0
13627.351818455538,-1309.0
13627.351880952749,-1732.0
13627.351943449961,-2135.0
13627.352005947174,-2512.0
13627.352068444387,-2899.0
13627.3521309416,-3386.0
13627.352193438812,-4054.0
13627.352255936024,-4995.0
13627.352318433237,-6276.0
13627.35238093045,-7835.0
13627.352443427662,-9524.0
13627.352505924875,-10953.0
13627.352568422086,-11892.0
13627.352630919298,-12461.0
13627.352693416511,-12643.0
13627.352755913724,-12699.0
13627.352818410936,-12820.0
13627.352880908149,-13174.0
13627.352943405362,-13916.0
13627.353005902574,-15004.0
13627.353068399787,-16546.0
13627.353130897,-17518.0
13627.35319339421,-16735.0
13627.353255891423,-13901.0
13627.353318388636,-9815.0
13627.353380885848,-5569.0
13627.353443383061,-1625.0
13627.353505880274,1374.0
13627.353568377486,2717.0
13627.353630874699,2869.0
13627.353693371912,2649.0
13627.353755869124,2214.0
13627.353818366337,1360.0
13627.35388086355,797.0
13627.35394336076,1120.0
13627.354005857973,1702.0
13627.354068355186,2001.0
13627.354130852398,1949.0
13627.35419334961,1636.0
13627.354255846823,658.0
13627.354318344036,-371.0
13627.354380841249,-480.0
13627.354443338461,533.0
13627.354505835674,2121.0
13627.354568332885,3951.0
13627.354630830097,5572.0
13627.35469332731,6905.0
13627.354755824523,7539.0
13627.354818321735,7789.0
13627.354880818948,7584.0
13627.35494331616,7125.0
13627.355005813373,6548.0
13627.355068310586,6127.0
13627.355130807799,6134.0
13627.355193305011,6614.0
13627.355255802222,7183.0
13627.355318299435,7672.0
13627.355380796647,7781.0
13627.35544329386,7556.0
13627.355505791073,7224.0
13627.355568288285,6909.0
13627.355630785498,6722.0
13627.35569328271,6647.0
13627.355755779923,6729.0
13627.355818277136,6900.0
13627.355880774348,7120.0
13627.35594327156,7249.0
13627.356005768772,7314.0
13627.356068265985,7092.0
13627.356130763197,6534.0
13627.35619326041,5821.0
13627.356255757622,5199.0
13627.356318254835,4795.0
13627.356380752048,4539.0
13627.35644324926,4274.0
13627.356505746473,4033.0
13627.356568243686,3562.0
13627.356630740896,2919.0
13627.356693238109,2272.0
13627.356755735322,1671.0
13627.356818232534,1228.0
13627.356880729747,774.0
13627.35694322696,255.0
13627.357005724172,-204.0
13627.357068221385,-631.0
13627.357130718598,-1056.0
13627.35719321581,-1529.0
13627.357255713023,-2075.0
13627.357318210234,-2700.0
13627.357380707446,-3342.0
13627.357443204659,-4104.0
13627.357505701872,-4932.0
13627.357568199084,-6059.0
13627.357630696297,-7555.0
13627.35769319351,-9273.0
13627.357755690722,-10936.0
13627.357818187935,-12223.0
13627.357880685147,-12976.0
13627.35794318236,-13135.0
13627.35800567957,-12959.0
13627.358068176783,-12745.0
13627.358130673996,-12704.0
13627.358193171209,-13076.0
13627.358255668421,-13976.0
13627.358318165634,-15580.0
13627.358380662847,-16984.0
13627.35844316006,-16882.0
13627.358505657272,-15096.0
13627.358568154485,-12208.0
13627.358630651697,-8385.0
13627.358693148908,-4058.0
13627.35875564612,-543.0
13627.358818143333,1323.0
13627.358880640546,2483.0
13627.358943137759,3149.0
13627.359005634971,2825.0
13627.359068132184,1889.0
13627.359130629397,1327.0
13627.35919312661,1410.0
13627.359255623822,1557.0
13627.359318121034,1504.0
13627.359380618245,1615.0
13627.359443115458,1530.0
13627.35950561267,832.0
13627.359568109883,-190.0
13627.359630607096,-328.0
13627.359693104308,608.0
13627.359755601521,1684.0
13627.359818098734,2943.0
13627.359880595946,4722.0
13627.359943093159,6198.0
13627.360005590372,6886.0
13627.360068087582,7337.0
13627.360130584795,7765.0
13627.360193082008,7542.0
13627.36025557922,6828.0
13627.360318076433,6284.0
13627.360380573646,6241.0
13627.360443070858,6501.0
13627.360505568071,6978.0
13627.360568065284,7458.0
13627.360630562496,7625.0
13627.360693059709,7391.0
13627.36075555692,6974.0
13627.360818054132,6651.0
13627.360880551345,6613.0
13627.360943048558,6689.0
13627.36100554577,6891.0
13627.361068042983,7255.0
13627.361130540196,7536.0
13627.361193037408,7574.0
13627.36125553462,7404.0
13627.361318031833,7074.0
13627.361380529046,6429.0
13627.361443026257,5597.0
13627.36150552347,5108.0
13627.361568020682,4877.0
13627.361630517895,4645.0
13627.361693015107,4531.0
13627.36175551232,4374.0
13627.361818009533,4020.0
13627.361880506745,3361.0
13627.361943003958,2618.0
13627.36200550117,1861.0
13627.362067998383,1224.0
13627.362130495594,583.0
13627.362192992807,4.0
13627.36225549002,-415.0
13627.362317987232,-759.0
13627.362380484445,-1178.0
13627.362442981657,-1665.0
13627.36250547887,-1992.0
13627.362567976083,-2388.0
13627.362630473295,-3028.0
13627.362692970508,-3728.0
13627.36275546772,-4644.0
13627.362817964931,-5889.0
13627.362880462144,-7406.0
13627.362942959357,-9123.0
13627.36300545657,-10776.0
13627.363067953782,-12132.0
13627.363130450995,-12857.0
13627.363192948207,-12863.0
13627.36325544542,-12595.0
13627.363317942632,-12558.0
13627.363380439845,-12804.0
13627.363442937058,-13371.0
13627.363505434269,-14194.0
13627.363567931481,-15405.0
13627.363630428694,-16790.0
13627.363692925906,-16988.0
13627.363755423119,-15405.0
13627.363817920332,-12499.0
13627.363880417544,-8846.0
13627.363942914757,-4942.0
13627.36400541197,-1574.0
13627.364067909182,357.0
13627.364130406393,1206.0
13627.364192903606,1833.0
13627.364255400818,1979.0
13627.364317898031,1519.0
13627.364380395244,1126.0
13627.364442892456,1355.0
13627.364505389669,1604.0
13627.364567886882,1715.0
13627.364630384094,1763.0
13627.364692881307,1717.0
13627.36475537852,1126.0
13627.364817875732,304.0
13627.364880372943,-13.0
13627.364942870156,474.0
13627.365005367368,1478.0
13627.36506786458,2900.0
13627.365130361793,4399.0
13627.365192859006,5770.0
13627.365255356219,6528.0
13627.365317853431,6887.0
13627.365380350644,6996.0
13627.365442847857,6934.0
13627.365505345068,6745.0
13627.36556784228,6552.0
13627.365630339493,6498.0
13627.365692836705,6779.0
13627.365755333918,7209.0
13627.36581783113,7607.0
13627.365880328343,7739.0
13627.365942825556,7549.0
13627.366005322769,7220.0
13627.366067819981,6820.0
13627.366130317194,6610.0
13627.366192814405,6693.0
13627.366255311617,6946.0
13627.36631780883,7099.0
13627.366380306043,7189.0
13627.366442803255,7072.0
13627.366505300468,6911.0
13627.36656779768,6628.0
13627.366630294893,6197.0
13627.366692792106,5699.0
13627.366755289318,5216.0
13627.366817786531,4846.0
13627.366880283742,4655.0
13627.366942780955,4485.0
13627.367005278167,4293.0
13627.36706777538,3932.0
13627.367130272592,3348.0
13627.367192769805,2658.0
13627.367255267018,1958.0
13627.36731776423,1391.0
13627.367380261443,903.0
13627.367442758656,315.0
13627.367505255868,-225.0
13627.36756775308,-748.0
13627.367630250292,-1325.0
13627.367692747504,-1840.0
13627.367755244717,-2253.0
13627.36781774193,-2716.0
13627.367880239142,-3399.0
13627.367942736355,-4137.0
13627.368005233568,-4827.0
13627.36806773078,-5651.0
13627.368130227993,-6805.0
13627.368192725206,-8320.0
13627.368255222416,-9980.0
13627.368317719629,-11530.0
13627.368380216842,-12798.0
13627.368442714054,-13361.0
13627.368505211267,-13261.0
13627.36856770848,-12960.0
13627.368630205692,-12850.0
13627.368692702905,-13102.0
13627.368755200117,-13815.0
13627.36881769733,-15081.0
13627.368880194543,-16482.0
13627.368942691754,-16938.0
13627.369005188966,-15765.0
13627.369067686179,-12958.0
13627.369130183391,-9331.0
13627.369192680604,-5461.0
13627.369255177817,-2026.0
13627.36931767503,180.0
13627.369380172242,1305.0
13627.369442669455,1687.0
13627.369505166667,1683.0
13627.36956766388,1438.0
13627.36963016109,1016.0
13627.369692658303,877.0
13627.369755155516,1117.0
13627.369817652729,1549.0
13627.369880149941,1784.0
13627.369942647154,1570.0
13627.370005144367,1240.0
13627.37006764158,670.0
13627.370130138792,156.0
13627.370192636005,341.0
13627.370255133217,1388.0
13627.370317630428,2716.0
13627.37038012764,4035.0
13627.370442624853,5290.0
13627.370505122066,6346.0
13627.370567619279,6827.0
13627.370630116491,6978.0
13627.370692613704,6852.0
13627.370755110916,6596.0
13627.370817608129,6333.0
13627.370880105342,6330.0
13627.370942602554,6639.0
13627.371005099765,7134.0
13627.371067596978,7488.0
13627.37113009419,7559.0
13627.371192591403,7371.0
13627.371255088616,7075.0
13627.371317585828,6798.0
13627.371380083041,6710.0
13627.371442580254,6714.0
13627.371505077466,6825.0
13627.371567574679,6923.0
13627.371630071892,7057.0
13627.371692569102,7158.0
13627.371755066315,7047.0
13627.371817563528,6727.0
13627.37188006074,6110.0
13627.371942557953,5374.0
13627.372005055166,4808.0
13627.372067552378,4569.0
13627.37213004959,4603.0
13627.372192546803,4601.0
13627.372255044016,4409.0
13627.372317541229,4018.0
13627.37238003844,3411.0
13627.372442535652,2701.0
13627.372505032865,2025.0
13627.372567530078,1425.0
13627.37263002729,928.0
13627.372692524503,498.0
13627.372755021715,-9.0
13627.372817518928,-509.0
13627.37288001614,-1121.0
13627.372942513353,-1911.0
13627.373005010566,-2709.0
13627.373067507777,-3354.0
13627.37313000499,-3877.0
13627.373192502202,-4301.0
13627.373254999415,-4808.0
13627.373317496627,-5641.0
13627.37337999384,-6959.0
13627.373442491053,-8622.0
13627.373504988265,-10232.0
13627.373567485478,-11553.0
13627.37362998269,-12480.0
13627.373692479903,-12972.0
13627.373754977114,-13152.0
13627.373817474327,-13100.0
13627.37387997154,-13106.0
13627.373942468752,-13486.0
13627.374004965965,-14270.0
13627.374067463177,-15465.0
13627.37412996039,-17012.0
13627.374192457602,-17472.0
13627.374254954815,-15922.0
13627.374317452028,-12757.0
13627.37437994924,-9043.0
13627.374442446451,-5420.0
13627.374504943664,-2149.0
13627.374567440876,112.0
13627.37462993809,1216.0
13627.374692435302,1745.0
13627.374754932514,1693.0
13627.374817429727,1151.0
13627.37487992694,430.0
13627.374942424152,324.0
13627.375004921365,838.0
13627.375067418576,1460.0
13627.375129915788,1620.0
13627.375192413001,1442.0
13627.375254910214,1045.0
13627.375317407426,378.0
13627.375379904639,-73.0
13627.375442401852,354.0
13627.375504899064,1566.0
13627.375567396277,2923.0
13627.37562989349,4165.0
13627.375692390702,5480.0
13627.375754887915,6587.0
13627.375817385126,7082.0
13627.375879882338,7079.0
13627.37594237955,6621.0
13627.376004876764,6162.0
13627.376067373976,5717.0
13627.376129871189,5723.0
13627.376192368401,6226.0
13627.376254865614,6895.0
13627.376317362827,7288.0
13627.37637986004,7408.0
13627.37644235725,7189.0
13627.376504854463,6972.0
13627.376567351675,6653.0
13627.376629848888,6470.0
13627.3766923461,6475.0
13627.376754843313,6603.0
13627.376817340526,6937.0
13627.376879837739,7331.0
13627.376942334951,7559.0
13627.377004832164,7524.0
13627.377067329377,7145.0
13627.377129826587,6395.0
13627.3771923238,5496.0
13627.377254821013,4696.0
13627.377317318225,4226.0
13627.377379815438,4136.0
13627.37744231265,4138.0
13627.377504809863,4118.0
13627.377567307076,3966.0
13627.377629804289,3564.0
13627.377692301501,2966.0
13627.377754798714,2154.0
13627.377817295925,1370.0
13627.377879793137,693.0
13627.37794229035,95.0
13627.378004787563,-337.0
13627.378067284775,-624.0
13627.378129781988,-948.0
13627.3781922792,-1413.0
13627.378254776413,-2070.0
13627.378317273626,-2826.0
13627.378379770838,-3644.0
13627.378442268051,-4634.0
13627.378504765262,-5681.0
13627.378567262474,-6764.0
13627.378629759687,-8073.0
13627.3786922569,-9409.0
13627.378754754112,-10712.0
13627.378817251325,-11776.0
13627.378879748538,-12453.0
13627.37894224575,-12803.0
13627.379004742963,-12914.0
13627.379067240176,-12792.0
13627.379129737388,-12739.0
13627.379192234599,-13069.0
13627.379254731812,-13942.0
13627.379317229024,-15304.0
13627.379379726237,-16908.0
13627.37944222345,-17657.0
13627.379504720662,-16309.0
13627.379567217875,-13191.0
13627.379629715088,-9413.0
13627.3796922123,-5412.0
13627.379754709513,-2235.0
13627.379817206725,-246.0
13627.379879703936,785.0
13627.379942201149,1431.0
13627.380004698362,1644.0
13627.380067195574,1312.0
13627.380129692787,863.0
13627.38019219,778.0
13627.380254687212,1125.0
13627.380317184425,1682.0
13627.380379681637,1991.0
13627.38044217885,1848.0
13627.380504676063,1228.0
13627.380567173273,293.0
13627.380629670486,-459.0
13627.380692167699,-140.0
13627.380754664911,1096.0
13627.380817162124,2551.0
13627.380879659337,3998.0
13627.38094215655,5320.0
13627.381004653762,6283.0
13627.381067150975,6776.0
13627.381129648187,6977.0
13627.3811921454,6822.0
13627.38125464261,6321.0
13627.381317139823,5692.0
13627.381379637036,5578.0
13627.381442134249,5991.0
13627.381504631461,6850.0
13627.381567128674,7597.0
13627.381629625886,7953.0
13627.3816921231,7843.0
13627.381754620312,7386.0
13627.381817117524,6832.0
13627.381879614737,6525.0
13627.381942111948,6325.0
13627.38200460916,6254.0
13627.382067106373,6326.0
13627.382129603586,6586.0
13627.382192100798,6822.0
13627.382254598011,6953.0
13627.382317095224,6783.0
13627.382379592436,6229.0
13627.382442089649,5367.0
13627.382504586862,4663.0
13627.382567084074,4276.0
13627.382629581285,4127.0
13627.382692078498,4076.0
13627.38275457571,3900.0
13627.382817072923,3564.0
13627.382879570136,3099.0
13627.382942067348,2472.0
13627.38300456456,1741.0
13627.383067061774,1088.0
13627.383129558986,488.0
13627.383192056199,-149.0
13627.383254553411,-714.0
13627.383317050622,-1122.0
13627.383379547835,-1412.0
13627.383442045048,-1798.0
13627.38350454226,-2241.0
13627.383567039473,-2814.0
13627.383629536685,-3630.0
13627.383692033898,-4607.0
13627.38375453111,-5876.0
13627.383817028323,-7463.0
13627.383879525536,-9181.0
13627.383942022749,-10785.0
13627.38400451996,-12129.0
13627.384067017172,-12949.0
13627.384129514385,-13275.0
13627.384192011597,-13269.0
13627.38425450881,-13172.0
13627.384317006023,-13304.0
13627.384379503235,-13652.0
13627.384442000448,-14385.0
13627.38450449766,-15545.0
13627.384566994873,-17098.0
13627.384629492086,-18027.0
13627.384691989297,-16910.0
13627.38475448651,-14006.0
13627.384816983722,-10187.0
13627.384879480935,-6238.0
13627.384941978147,-3081.0
13627.38500447536,-1144.0
13627.385066972573,-159.0
13627.385129469785,474.0
13627.385191966998,789.0
13627.38525446421,860.0
13627.385316961423,840.0
13627.385379458634,963.0
13627.385441955847,1247.0
13627.38550445306,1823.0
13627.385566950272,2034.0
13627.385629447484,1514.0
13627.385691944697,637.0
13627.38575444191,-68.0
13627.385816939122,-410.0
13627.385879436335,-10.0
13627.385941933548,1210.0
13627.38600443076,2789.0
13627.386066927971,4169.0
13627.386129425184,5244.0
13627.386191922396,6049.0
13627.386254419609,6562.0
13627.386316916822,6659.0
13627.386379414034,6347.0
13627.386441911247,5996.0
13627.38650440846,5891.0
13627.386566905672,5914.0
13627.386629402885,6262.0
13627.386691900098,7003.0
13627.386754397308,7441.0
13627.386816894521,7385.0
13627.386879391734,7121.0
13627.386941888946,6830.0
13627.387004386159,6575.0
13627.387066883372,6524.0
13627.387129380584,6731.0
13627.387191877797,6988.0
13627.38725437501,7259.0
13627.387316872222,7490.0
13627.387379369433,7659.0
13627.387441866646,7561.0
13627.387504363858,7155.0
13627.38756686107,6429.0
13627.387629358283,5486.0
13627.387691855496,4684.0
13627.387754352709,4133.0
13627.387816849921,3979.0
13627.387879347134,4113.0
13627.387941844347,4127.0
13627.38800434156,3850.0
13627.38806683877,3376.0
13627.388129335983,2750.0
13627.388191833195,2071.0
13627.388254330408,1484.0
13627.38831682762,965.0
13627.388379324833,428.0
13627.388441822046,-114.0
13627.388504319259,-552.0
13627.388566816471,-966.0
13627.388629313684,-1393.0
13627.388691810896,-1949.0
13627.388754308107,-2819.0
13627.38881680532,-3859.0
13627.388879302533,-4912.0
13627.388941799745,-5944.0
13627.389004296958,-7090.0
13627.38906679417,-8528.0
13627.389129291383,-10132.0
13627.389191788596,-11716.0
13627.389254285808,-12927.0
13627.389316783021,-13559.0
13627.389379280234,-13742.0
13627.389441777445,-13726.0
13627.389504274657,-13727.0
13627.38956677187,-13940.0
13627.389629269082,-14612.0
13627.389691766295,-15481.0
13627.389754263508,-16697.0
13627.38981676072,-17727.0
13627.389879257933,-17307.0
13627.389941755146,-15158.0
13627.390004252358,-11964.0
13627.39006674957,-8320.0
13627.390129246782,-4641.0
13627.390191743994,-1763.0
13627.390254241207,-246.0
13627.39031673842,821.0
13627.390379235632,1560.0
13627.390441732845,1650.0
13627.390504230058,1249.0
13627.39056672727,1066.0
13627.390629224483,1083.0
13627.390691721695,1154.0
13627.390754218908,1283.0
13627.390816716119,1282.0
13627.390879213332,866.0
13627.390941710544,385.0
13627.391004207757,59.0
13627.39106670497,355.0
13627.391129202182,1190.0
13627.391191699395,2368.0
13627.391254196607,3458.0
13627.39131669382,4433.0
13627.391379191033,5340.0
13627.391441688245,5893.0
13627.391504185456,6261.0
13627.391566682669,6367.0
13627.391629179881,6186.0
13627.391691677094,5996.0
13627.391754174307,6001.0
13627.39181667152,6210.0
13627.391879168732,6753.0
13627.391941665945,7291.0
13627.392004163157,7564.0
13627.39206666037,7551.0
13627.392129157583,7587.0
13627.392191654793,7517.0
13627.392254152006,7391.0
13627.392316649219,7294.0
13627.392379146431,7256.0
13627.392441643644,7106.0
13627.392504140857,7155.0
13627.39256663807,7292.0
13627.392629135282,7292.0
13627.392691632494,7027.0
13627.392754129707,6440.0
13627.39281662692,5624.0
13627.39287912413,4795.0
13627.392941621343,4195.0
13627.393004118556,4011.0
13627.393066615768,4075.0
13627.393129112981,4110.0
13627.393191610194,3986.0
13627.393254107406,3685.0
13627.393316604619,3179.0
13627.393379101832,2519.0
13627.393441599044,1688.0
13627.393504096257,917.0
13627.393566593468,139.0
13627.39362909068,-646.0
13627.393691587893,-1152.0
13627.393754085106,-1489.0
13627.393816582318,-1828.0
13627.393879079531,-2294.0
13627.393941576744,-2968.0
13627.394004073956,-3777.0
13627.394066571169,-4672.0
13627.394129068382,-5755.0
13627.394191565594,-7067.0
13627.394254062805,-8595.0
13627.394316560018,-10285.0
13627.39437905723,-11848.0
13627.394441554443,-12959.0
13627.394504051656,-13471.0
13627.394566548868,-13605.0
13627.39462904608,-13696.0
13627.394691543293,-13705.0
13627.394754040506,-13853.0
13627.394816537719,-14270.0
13627.394879034931,-14978.0
13627.394941532142,-16226.0
13627.395004029355,-17467.0
13627.395066526567,-17525.0
13627.39512902378,-15862.0
13627.395191520993,-12695.0
13627.395254018205,-8780.0
13627.395316515418,-4878.0
13627.39537901263,-1902.0
13627.395441509843,-279.0
13627.395504007056,781.0
13627.395566504269,1406.0
13627.39562900148,1313.0
13627.395691498692,918.0
13627.395753995905,885.0
13627.395816493117,1101.0
13627.39587899033,1237.0
13627.395941487543,1641.0
13627.396003984755,2128.0
13627.396066481968,1897.0
13627.39612897918,1079.0
13627.396191476393,345.0
13627.396253973606,82.0
13627.396316470817,261.0
13627.39637896803,1168.0
13627.396441465242,2580.0
13627.396503962455,4025.0
13627.396566459667,5227.0
13627.39662895688,6091.0
13627.396691454092,6699.0
13627.396753951305,6913.0
13627.396816448518,6660.0
13627.39687894573,6197.0
13627.396941442943,5847.0
13627.397003940154,5922.0
13627.397066437366,6363.0
13627.397128934579,6987.0
13627.397191431792,7594.0
13627.397253929004,7858.0
13627.397316426217,7798.0
13627.39737892343,7509.0
13627.397441420642,7201.0
13627.397503917855,7022.0
13627.397566415068,6909.0
13627.39762891228,6777.0
13627.397691409491,6722.0
13627.397753906704,6694.0
13627.397816403916,6738.0
13627.397878901129,6625.0
13627.397941398342,6381.0
13627.398003895554,5962.0
13627.398066392767,5457.0
13627.39812888998,4985.0
13627.398191387192,4675.0
13627.398253884405,4415.0
13627.398316381616,4167.0
13627.398378878828,3840.0
13627.39844137604,3278.0
13627.398503873254,2693.0
13627.398566370466,2073.0
13627.398628867679,1304.0
13627.398691364891,607.0
13627.398753862104,89.0
13627.398816359317,-258.0
13627.39887885653,-481.0
13627.398941353742,-770.0
13627.399003850955,-1171.0
13627.399066348165,-1793.0
13627.399128845378,-2599.0
13627.39919134259,-3401.0
13627.399253839803,-4271.0
13627.399316337016,-5336.0
13627.399378834229,-6655.0
13627.399441331441,-8396.0
13627.399503828654,-10285.0
13627.399566325867,-11931.0
13627.39962882308,-13110.0
13627.39969132029,-13619.0
13627.399753817503,-13582.0
13627.399816314715,-13488.0
13627.399878811928,-13560.0
13627.39994130914,-13894.0
13627.400003806353,-14682.0
13627.400066303566,-15719.0
13627.400128800778,-17106.0
13627.400191297991,-18250.0
13627.400253795204,-18000.0
13627.400316292416,-15948.0
13627.400378789627,-12384.0
13627.40044128684,-8393.0
13627.400503784052,-4450.0
13627.400566281265,-1413.0
13627.400628778478,187.0
13627.40069127569,1053.0
13627.400753772903,1472.0
13627.400816270116,1501.0
13627.400878767328,1177.0
13627.400941264541,980.0
13627.401003761754,1196.0
13627.401066258964,1456.0
13627.401128756177,1747.0
13627.40119125339,1817.0
13627.401253750602,1600.0
13627.401316247815,1017.0
13627.401378745028,326.0
13627.40144124224,98.0
13627.401503739453,644.0
13627.401566236666,1695.0
13627.401628733878,2952.0
13627.40169123109,4333.0
13627.401753728302,5681.0
13627.401816225514,6437.0
13627.401878722727,6644.0
13627.40194121994,6629.0
13627.402003717152,6480.0
13627.402066214365,6163.0
13627.402128711577,5966.0
13627.40219120879,6240.0
13627.402253706003,6853.0
13627.402316203215,7518.0
13627.402378700428,7952.0
13627.402441197639,8120.0
13627.402503694851,8019.0
13627.402566192064,7613.0
13627.402628689277,7130.0
13627.40269118649,6903.0
13627.402753683702,6780.0
13627.402816180915,6847.0
13627.402878678127,7054.0
13627.40294117534,7422.0
13627.403003672553,7632.0
13627.403066169765,7466.0
13627.403128666976,6973.0
13627.403191164189,6233.0
13627.403253661401,5351.0
13627.403316158614,4647.0
13627.403378655827,4288.0
13627.40344115304,4147.0
13627.403503650252,3989.0
13627.403566147465,3719.0
13627.403628644677,3335.0
13627.40369114189,2817.0
13627.403753639102,2102.0
13627.403816136313,1327.0
13627.403878633526,679.0
13627.403941130739,183.0
13627.404003627951,-133.0
13627.404066125164,-238.0
13627.404128622376,-319.0
13627.404191119589,-599.0
13627.404253616802,-1285.0
13627.404316114014,-2313.0
13627.404378611227,-3487.0
13627.40444110844,-4784.0
13627.40450360565,-6092.0
13627.404566102863,-7525.0
13627.404628600076,-9124.0
13627.404691097288,-10695.0
13627.404753594501,-11994.0
13627.404816091714,-12857.0
13627.404878588926,-13421.0
13627.404941086139,-13794.0
13627.405003583352,-14058.0
13627.405066080564,-14210.0
13627.405128577777,-14469.0
13627.405191074988,-14798.0
13627.4052535722,-15384.0
13627.405316069413,-16763.0
13627.405378566626,-17964.0
13627.405441063838,-17623.0
13627.40550356105,-15566.0
13627.405566058264,-12432.0
13627.405628555476,-8696.0
13627.405691052689,-4410.0
13627.405753549901,-1091.0
13627.405816047114,776.0
13627.405878544325,1957.0
13627.405941041538,2730.0
13627.40600353875,2589.0
13627.406066035963,1762.0
13627.406128533175,1326.0
13627.406191030388,1389.0
13627.4062535276,1331.0
13627.406316024813,1354.0
13627.406378522026,1631.0
13627.406441019239,1742.0
13627.406503516451,1247.0
13627.406566013662,651.0
13627.406628510875,526.0
13627.406691008087,1034.0
13627.4067535053,1866.0
13627.406816002513,3075.0
13627.406878499725,4647.0
13627.406940996938,5985.0
13627.40700349415,6725.0
13627.407065991363,7139.0
13627.407128488576,7283.0
13627.407190985788,6967.0
13627.407253483,6435.0
13627.407315980212,5982.0
13627.407378477425,5876.0
13627.407440974637,6055.0
13627.40750347185,6611.0
13627.407565969062,7331.0
13627.407628466275,7981.0
13627.407690963488,8304.0
13627.4077534607,8345.0
13627.407815957913,8127.0
13627.407878455126,7863.0
13627.407940952337,7541.0
13627.40800344955,7317.0
13627.408065946762,7253.0
13627.408128443974,7234.0
13627.408190941187,7097.0
13627.4082534384,6897.0
13627.408315935612,6530.0
13627.408378432825,5944.0
13627.408440930038,5191.0
13627.40850342725,4594.0
13627.408565924463,4204.0
13627.408628421674,3937.0
13627.408690918886,3851.0
13627.408753416099,3810.0
13627.408815913312,3667.0
13627.408878410524,3314.0
13627.408940907737,2740.0
13627.40900340495,1990.0
13627.409065902162,1199.0
13627.409128399375,437.0
13627.409190896587,-226.0
13627.409253393798,-668.0
13627.409315891011,-982.0
13627.409378388224,-1331.0
13627.409440885436,-1806.0
13627.409503382649,-2401.0
13627.409565879861,-3256.0
13627.409628377074,-4357.0
13627.409690874287,-5622.0
13627.4097533715,-7205.0
13627.409815868712,-9042.0
13627.409878365925,-10813.0
13627.409940863137,-12346.0
13627.410003360348,-13480.0
13627.41006585756,-13910.0
13627.410128354773,-13922.0
13627.410190851986,-13950.0
13627.410253349199,-14240.0
13627.410315846411,-14800.0
13627.410378343624,-15403.0
13627.410440840837,-16245.0
13627.41050333805,-17585.0
13627.410565835262,-18208.0
13627.410628332473,-17151.0
13627.410690829685,-14402.0
13627.410753326898,-10866.0
13627.41081582411,-6930.0
13627.410878321323,-3134.0
13627.410940818536,-471.0
13627.411003315749,932.0
13627.411065812961,1962.0
13627.411128310174,2532.0
13627.411190807386,2343.0
13627.411253304599,1639.0
13627.41131580181,1428.0
13627.411378299023,1637.0
13627.411440796235,1796.0
13627.411503293448,1771.0
13627.41156579066,1802.0
13627.411628287873,1393.0
13627.411690785086,645.0
13627.411753282298,129.0
13627.411815779511,383.0
13627.411878276724,1239.0
13627.411940773936,2394.0
13627.412003271147,3785.0
13627.41206576836,5269.0
13627.412128265572,6323.0
13627.412190762785,6879.0
13627.412253259998,7242.0
13627.41231575721,7136.0
13627.412378254423,6710.0
13627.412440751636,6162.0
13627.412503248848,6087.0
13627.41256574606,6261.0
13627.412628243274,6753.0
13627.412690740484,7506.0
13627.412753237697,8172.0
13627.41281573491,8346.0
13627.412878232122,8231.0
13627.412940729335,7892.0
13627.413003226548,7646.0
13627.41306572376,7419.0
13627.413128220973,7352.0
13627.413190718185,7342.0
13627.413253215398,7400.0
13627.41331571261,7348.0
13627.413378209822,7244.0
13627.413440707034,7030.0
13627.413503204247,6658.0
13627.41356570146,6018.0
13627.413628198672,5276.0
13627.413690695885,4754.0
13627.413753193097,4435.0
13627.41381569031,4246.0
13627.413878187523,4122.0
13627.413940684735,3916.0
13627.414003181948,3535.0
13627.414065679159,2997.0
13627.414128176371,2318.0
13627.414190673584,1670.0
13627.414253170797,1086.0
13627.41431566801,505.0
13627.414378165222,-49.0
13627.414440662435,-559.0
13627.414503159647,-997.0
13627.41456565686,-1433.0
13627.414628154072,-1914.0
13627.414690651285,-2413.0
13627.414753148496,-3125.0
13627.414815645709,-4018.0
13627.414878142921,-5218.0
13627.414940640134,-6837.0
13627.415003137347,-8753.0
13627.41506563456,-10683.0
13627.415128131772,-12390.0
13627.415190628984,-13646.0
13627.415253126197,-14148.0
13627.41531562341,-13940.0
13627.415378120622,-13465.0
13627.415440617833,-13384.0
13627.415503115046,-13837.0
13627.415565612258,-14457.0
13627.415628109471,-15612.0
13627.415690606684,-17343.0
13627.415753103896,-18263.0
13627.415815601109,-17402.0
13627.415878098322,-14884.0
13627.415940595534,-11499.0
13627.416003092747,-7320.0
13627.41606558996,-3056.0
13627.41612808717,-129.0
13627.416190584383,1497.0
13627.416253081596,2169.0
13627.416315578808,2267.0
13627.416378076021,1773.0
13627.416440573234,1104.0
13627.416503070446,1083.0
13627.416565567659,1579.0
13627.416628064871,2229.0
13627.416690562084,2544.0
13627.416753059297,2432.0
13627.416815556508,2044.0
13627.41687805372,1281.0
13627.416940550933,571.0
13627.417003048145,307.0
13627.417065545358,943.0
13627.41712804257,2062.0
13627.417190539783,3447.0
13627.417253036996,4882.0
13627.417315534209,6169.0
13627.417378031421,7021.0
13627.417440528634,7320.0
13627.417503025845,7015.0
13627.417565523057,6568.0
13627.41762802027,6167.0
13627.417690517483,6070.0
13627.417753014695,6248.0
13627.417815511908,6966.0
13627.41787800912,7851.0
13627.417940506333,8428.0
13627.418003003546,8568.0
13627.418065500759,8485.0
13627.418127997971,8181.0
13627.418190495182,7664.0
13627.418252992395,7177.0
13627.418315489607,6948.0
13627.41837798682,6945.0
13627.418440484033,7057.0
13627.418502981245,7283.0
13627.418565478458,7404.0
13627.41862797567,7285.0
13627.418690472883,6864.0
13627.418752970096,6189.0
13627.418815467308,5486.0
13627.41887796452,5029.0
13627.418940461732,4740.0
13627.419002958944,4583.0
13627.419065456157,4379.0
13627.41912795337,4076.0
13627.419190450582,3603.0
13627.419252947795,2993.0
13627.419315445008,2301.0
13627.41937794222,1651.0
13627.419440439433,1050.0
13627.419502936646,577.0
13627.419565433856,93.0
13627.419627931069,-309.0
13627.419690428282,-639.0
13627.419752925494,-1203.0
13627.419815422707,-1962.0
13627.41987791992,-2870.0
13627.419940417132,-3901.0
13627.420002914345,-4861.0
13627.420065411558,-5846.0
13627.42012790877,-7084.0
13627.420190405981,-8661.0
13627.420252903194,-10389.0
13627.420315400406,-12055.0
13627.420377897619,-13328.0
13627.420440394832,-13997.0
13627.420502892044,-14090.0
13627.420565389257,-14057.0
13627.42062788647,-14175.0
13627.420690383682,-14562.0
13627.420752880895,-15280.0
13627.420815378107,-16338.0
13627.42087787532,-17712.0
13627.42094037253,-18044.0
13627.421002869743,-16474.0
13627.421065366956,-13505.0
13627.421127864169,-9999.0
13627.421190361381,-6041.0
13627.421252858594,-2071.0
13627.421315355807,615.0
13627.42137785302,1918.0
13627.421440350232,2561.0
13627.421502847445,2800.0
13627.421565344655,2240.0
13627.421627841868,1386.0
13627.42169033908,1420.0
13627.421752836293,1811.0
13627.421815333506,1958.0
13627.421877830719,1987.0
13627.421940327931,2174.0
13627.422002825144,2005.0
13627.422065322357,1387.0
13627.42212781957,964.0
13627.422190316782,1182.0
13627.422252813993,1722.0
13627.422315311205,2547.0
13627.422377808418,3763.0
13627.42244030563,5113.0
13627.422502802843,6266.0
13627.422565300056,6965.0
13627.422627797268,7181.0
13627.422690294481,7207.0
13627.422752791694,6863.0
13627.422815288906,6360.0
13627.422877786119,6144.0
13627.42294028333,6228.0
13627.423002780542,6693.0
13627.423065277755,7505.0
13627.423127774968,8274.0
13627.42319027218,8634.0
13627.423252769393,8547.0
13627.423315266606,8200.0
13627.423377763818,7754.0
13627.423440261031,7302.0
13627.423502758244,7182.0
13627.423565255456,7240.0
13627.423627752667,7287.0
13627.42369024988,7447.0
13627.423752747092,7558.0
13627.423815244305,7563.0
13627.423877741518,7213.0
13627.42394023873,6501.0
13627.424002735943,5576.0
13627.424065233155,4761.0
13627.424127730368,4212.0
13627.42419022758,3893.0
13627.424252724793,3832.0
13627.424315222004,3845.0
13627.424377719217,3652.0
13627.42444021643,3205.0
13627.424502713642,2687.0
13627.424565210855,2039.0
13627.424627708067,1326.0
13627.42469020528,723.0
13627.424752702493,232.0
13627.424815199705,-172.0
13627.424877696918,-498.0
13627.42494019413,-774.0
13627.425002691341,-1136.0
13627.425065188554,-1804.0
13627.425127685767,-2748.0
13627.42519018298,-3967.0
13627.425252680192,-5380.0
13627.425315177405,-7030.0
13627.425377674617,-8885.0
13627.42544017183,-10749.0
13627.425502669043,-12385.0
13627.425565166255,-13646.0
13627.425627663468,-14307.0
13627.425690160679,-14363.0
13627.425752657891,-14144.0
13627.425815155104,-14011.0
13627.425877652317,-14105.0
13627.42594014953,-14492.0
13627.426002646742,-15558.0
13627.426065143954,-16982.0
13627.426127641167,-17636.0
13627.42619013838,-16774.0
13627.426252635592,-14266.0
13627.426315132805,-10562.0
13627.426377630016,-6675.0
13627.426440127228,-3181.0
13627.426502624441,-537.0
13627.426565121654,1167.0
13627.426627618866,2064.0
13627.426690116079,2627.0
13627.426752613292,2493.0
13627.426815110504,2049.0
13627.426877607717,1801.0
13627.42694010493,2007.0
13627.427002602142,2386.0
13627.427065099353,2755.0
13627.427127596566,2789.0
13627.427190093778,2319.0
13627.427252590991,1351.0
13627.427315088204,682.0
13627.427377585416,544.0
13627.427440082629,1072.0
13627.427502579842,2100.0
13627.427565077054,3373.0
13627.427627574267,4546.0
13627.42769007148,5773.0
13627.42775256869,6790.0
13627.427815065903,7354.0
13627.427877563116,7413.0
13627.427940060328,7156.0
13627.42800255754,6625.0
13627.428065054753,6272.0
13627.428127551966,6500.0
13627.428190049179,7222.0
13627.428252546391,8011.0
13627.428315043604,8570.0
13627.428377540817,8709.0
13627.428440038027,8317.0
13627.42850253524,7895.0
13627.428565032453,7513.0
13627.428627529665,7209.0
13627.428690026878,7150.0
13627.42875252409,7306.0
13627.428815021303,7470.0
13627.428877518516,7719.0
13627.428940015729,7871.0
13627.429002512941,7789.0
13627.429065010154,7301.0
13627.429127507365,6600.0
13627.429190004577,5804.0
13627.42925250179,5203.0
13627.429314999003,4845.0
13627.429377496215,4605.0
13627.429439993428,4327.0
13627.42950249064,4052.0
13627.429564987853,3632.0
13627.429627485066,3068.0
13627.429689982278,2528.0
13627.429752479491,1943.0
13627.429814976702,1378.0
13627.429877473915,850.0
13627.429939971127,376.0
13627.43000246834,4.0
13627.430064965552,-325.0
13627.430127462765,-709.0
13627.430189959978,-1191.0
13627.43025245719,-1826.0
13627.430314954403,-2633.0
13627.430377451616,-3632.0
13627.430439948828,-4952.0
13627.43050244604,-6648.0
13627.430564943252,-8640.0
13627.430627440464,-10642.0
13627.430689937677,-12472.0
13627.43075243489,-13898.0
13627.430814932102,-14629.0
13627.430877429315,-14680.0
13627.430939926528,-14518.0
13627.43100242374,-14490.0
13627.431064920953,-14579.0
13627.431127418164,-14998.0
13627.431189915376,-16064.0
13627.431252412589,-17477.0
13627.431314909802,-17974.0
13627.431377407014,-16838.0
13627.431439904227,-14150.0
13627.43150240144,-10345.0
13627.431564898652,-5710.0
13627.431627395865,-1582.0
13627.431689893077,922.0
13627.43175239029,2144.0
13627.431814887503,2629.0
13627.431877384714,2465.0
13627.431939881926,1553.0
13627.432002379139,979.0
13627.432064876351,1241.0
13627.432127373564,1673.0
13627.432189870777,2228.0
13627.43225236799,2813.0
13627.432314865202,3140.0
13627.432377362415,2576.0
13627.432439859627,1481.0
13627.432502356838,689.0
13627.43256485405,431.0
13627.432627351263,845.0
13627.432689848476,1992.0
13627.432752345689,3695.0
13627.432814842901,5374.0
13627.432877340114,6667.0
13627.432939837327,7418.0
13627.43300233454,7617.0
13627.433064831752,7285.0
13627.433127328964,6755.0
13627.433189826175,6129.0
13627.433252323388,5825.0
13627.4333148206,5906.0
13627.433377317813,6500.0
13627.433439815026,7370.0
13627.433502312238,8262.0
13627.433564809451,8707.0
13627.433627306664,8731.0
13627.433689803876,8593.0
13627.433752301089,8295.0
13627.433814798302,7938.0
13627.433877295513,7700.0
13627.433939792725,7534.0
13627.434002289938,7310.0
13627.43406478715,7167.0
13627.434127284363,7152.0
13627.434189781576,7199.0
13627.434252278788,7002.0
13627.434314776001,6522.0
13627.434377273214,5815.0
13627.434439770426,5183.0
13627.434502267639,4677.0
13627.43456476485,4351.0
13627.434627262062,4143.0
13627.434689759275,4046.0
13627.434752256488,3780.0
13627.4348147537,3391.0
13627.434877250913,3026.0
13627.434939748126,2553.0
13627.435002245338,2012.0
13627.43506474255,1428.0
13627.435127239763,703.0
13627.435189736976,79.0
13627.435252234187,-454.0
13627.4353147314,-844.0
13627.435377228612,-1204.0
13627.435439725825,-1784.0
13627.435502223037,-2546.0
13627.43556472025,-3573.0
13627.435627217463,-4925.0
13627.435689714675,-6490.0
13627.435752211888,-8306.0
13627.4358147091,-10084.0
13627.435877206313,-11697.0
13627.435939703524,-13018.0
13627.436002200737,-13760.0
13627.43606469795,-13958.0
13627.436127195162,-14040.0
13627.436189692375,-14352.0
13627.436252189587,-14970.0
13627.4363146868,-15814.0
13627.436377184013,-17012.0
13627.436439681225,-18629.0
13627.436502178438,-19016.0
13627.43656467565,-17366.0
13627.436627172861,-14104.0
13627.436689670074,-10003.0
13627.436752167287,-5831.0
13627.4368146645,-2002.0
13627.436877161712,684.0
13627.436939658925,2206.0
13627.437002156137,3179.0
13627.43706465335,3495.0
13627.437127150562,2792.0
13627.437189647775,1703.0
13627.437252144988,1181.0
13627.437314642199,1351.0
13627.437377139411,1900.0
13627.437439636624,2346.0
13627.437502133836,2686.0
13627.43756463105,2384.0
13627.437627128262,1505.0
13627.437689625474,956.0
13627.437752122687,1102.0
13627.4378146199,1620.0
13627.437877117112,2487.0
13627.437939614325,3766.0
13627.438002111536,5142.0
13627.438064608748,6323.0
13627.438127105961,7196.0
13627.438189603174,7783.0
13627.438252100386,7712.0
13627.438314597599,7118.0
13627.438377094812,6454.0
13627.438439592024,6073.0
13627.438502089237,6105.0
13627.43856458645,6533.0
13627.438627083662,7216.0
13627.438689580873,8041.0
13627.438752078086,8479.0
13627.438814575298,8549.0
13627.43887707251,8510.0
13627.438939569724,8432.0
13627.439002066936,8249.0
13627.439064564149,8057.0
13627.439127061361,7854.0
13627.439189558574,7617.0
13627.439252055787,7462.0
13627.439314553,7377.0
13627.43937705021,7418.0
13627.439439547423,7287.0
13627.439502044635,6983.0
13627.439564541848,6416.0
13627.43962703906,5741.0
13627.439689536273,5187.0
13627.439752033486,4725.0
13627.439814530699,4378.0
13627.439877027911,4109.0
13627.439939525124,3775.0
13627.440002022337,3428.0
13627.440064519547,3083.0
13627.44012701676,2705.0
13627.440189513973,2193.0
13627.440252011185,1570.0
13627.440314508398,919.0
13627.44037700561,258.0
13627.440439502823,-352.0
13627.440502000036,-706.0
13627.440564497248,-999.0
13627.440626994461,-1497.0
13627.440689491674,-2078.0
13627.440751988885,-2824.0
13627.440814486097,-3842.0
13627.44087698331,-5176.0
13627.440939480523,-6956.0
13627.441001977735,-9096.0
13627.441064474948,-11224.0
13627.44112697216,-13128.0
13627.441189469373,-14433.0
13627.441251966586,-14831.0
13627.441314463798,-14571.0
13627.441376961011,-14221.0
13627.441439458222,-14195.0
13627.441501955434,-14529.0
13627.441564452647,-15191.0
13627.44162694986,-16680.0
13627.441689447072,-18221.0
13627.441751944285,-18304.0
13627.441814441498,-16582.0
13627.44187693871,-13408.0
13627.441939435923,-9266.0
13627.442001933136,-4543.0
13627.442064430348,-420.0
13627.442126927559,2061.0
13627.442189424772,3352.0
13627.442251921984,3825.0
13627.442314419197,3643.0
13627.44237691641,2723.0
13627.442439413622,1610.0
13627.442501910835,1180.0
13627.442564408047,1330.0
13627.44262690526,1629.0
13627.442689402473,1939.0
13627.442751899685,2344.0
13627.442814396896,2373.0
13627.442876894109,1716.0
13627.442939391321,1139.0
13627.443001888534,1261.0
13627.443064385747,1928.0
13627.44312688296,2889.0
13627.443189380172,4256.0
13627.443251877385,5814.0
13627.443314374597,7064.0
13627.44337687181,7820.0
13627.44343936902,8086.0
13627.443501866233,7976.0
13627.443564363446,7429.0
13627.443626860659,6570.0
13627.443689357871,6095.0
13627.443751855084,6151.0
13627.443814352297,6604.0
13627.44387684951,7284.0
13627.443939346722,8086.0
13627.444001843935,8692.0
13627.444064341147,8825.0
13627.44412683836,8709.0
13627.44418933557,8605.0
13627.444251832783,8413.0
13627.444314329996,8088.0
13627.444376827209,7831.0
13627.444439324421,7683.0
13627.444501821634,7621.0
13627.444564318846,7522.0
13627.44462681606,7401.0
13627.444689313272,7153.0
13627.444751810484,6603.0
13627.444814307695,5907.0
13627.444876804908,5354.0
13627.44493930212,5043.0
13627.445001799333,4781.0
13627.445064296546,4605.0
13627.445126793758,4505.0
13627.445189290971,4275.0
13627.445251788184,3837.0
13627.445314285396,3298.0
13627.445376782609,2732.0
13627.445439279822,2088.0
13627.445501777032,1420.0
13627.445564274245,726.0
13627.445626771458,41.0
13627.44568926867,-471.0
13627.445751765883,-1030.0
13627.445814263096,-1557.0
13627.445876760308,-2081.0
13627.44593925752,-2800.0
13627.446001754734,-3798.0
13627.446064251946,-4989.0
13627.446126749159,-6381.0
13627.44618924637,-8103.0
13627.446251743582,-10008.0
13627.446314240795,-11848.0
13627.446376738008,-13378.0
13627.44643923522,-14302.0
13627.446501732433,-14565.0
13627.446564229645,-14398.0
13627.446626726858,-14467.0
13627.44668922407,-14971.0
13627.446751721283,-15692.0
13627.446814218496,-16767.0
13627.446876715707,-18147.0
13627.44693921292,-18613.0
13627.447001710132,-17158.0
13627.447064207345,-14049.0
13627.447126704557,-9965.0
13627.44718920177,-5328.0
13627.447251698983,-1127.0
13627.447314196195,1696.0
13627.447376693408,3082.0
13627.44743919062,3614.0
13627.447501687833,3534.0
13627.447564185044,2834.0
13627.447626682257,1928.0
13627.44768917947,1489.0
13627.447751676682,1582.0
13627.447814173895,1964.0
13627.447876671107,2372.0
13627.44793916832,2593.0
13627.448001665533,2445.0
13627.448064162745,1805.0
13627.448126659958,1215.0
13627.44818915717,1277.0
13627.448251654381,1911.0
13627.448314151594,2900.0
13627.448376648807,4198.0
13627.44843914602,5519.0
13627.448501643232,6768.0
13627.448564140444,7532.0
13627.448626637657,7943.0
13627.44868913487,7987.0
13627.448751632082,7715.0
13627.448814129295,7034.0
13627.448876626508,6500.0
13627.448939123718,6411.0
13627.449001620931,6732.0
13627.449064118144,7319.0
13627.449126615356,8188.0
13627.449189112569,8757.0
13627.449251609782,8750.0
13627.449314106994,8375.0
13627.449376604207,8145.0
13627.44943910142,7869.0
13627.449501598632,7674.0
13627.449564095845,7679.0
13627.449626593056,7700.0
13627.449689090268,7708.0
13627.449751587481,7752.0
13627.449814084694,7918.0
13627.449876581906,7938.0
13627.449939079119,7616.0
13627.450001576331,6940.0
13627.450064073544,6057.0
13627.450126570757,5216.0
13627.45018906797,4595.0
13627.450251565182,4127.0
13627.450314062393,3937.0
13627.450376559606,3759.0
13627.450439056818,3391.0
13627.45050155403,2928.0
13627.450564051243,2547.0
13627.450626548456,2137.0
13627.450689045669,1683.0
13627.450751542881,1231.0
13627.450814040094,824.0
13627.450876537307,414.0
13627.45093903452,23.0
13627.45100153173,-393.0
13627.451064028943,-1007.0
13627.451126526155,-1841.0
13627.451189023368,-2952.0
13627.45125152058,-4378.0
13627.451314017793,-5975.0
13627.451376515006,-7768.0
13627.451439012219,-9786.0
13627.451501509431,-11771.0
13627.451564006644,-13576.0
13627.451626503856,-14968.0
13627.451689001067,-15762.0
13627.45175149828,-15943.0
13627.451813995493,-15714.0
13627.451876492705,-15449.0
13627.451938989918,-15616.0
13627.45200148713,-16510.0
13627.452063984343,-18110.0
13627.452126481556,-19198.0
13627.452188978768,-18347.0
13627.452251475981,-15685.0
13627.452313973194,-11649.0
13627.452376470404,-7017.0
13627.452438967617,-2639.0
13627.45250146483,936.0
13627.452563962042,3513.0
13627.452626459255,4849.0
13627.452688956468,4727.0
13627.45275145368,3441.0
13627.452813950893,1734.0
13627.452876448106,288.0
13627.452938945318,-102.0
13627.45300144253,683.0
13627.453063939742,1796.0
13627.453126436954,2257.0
13627.453188934167,2306.0
13627.45325143138,2018.0
13627.453313928592,1517.0
13627.453376425805,1220.0
13627.453438923018,1578.0
13627.45350142023,2479.0
13627.453563917443,3574.0
13627.453626414655,4795.0
13627.453688911868,6356.0
13627.453751409079,7703.0
13627.453813906292,8302.0
13627.453876403504,8071.0
13627.453938900717,7396.0
13627.45400139793,6546.0
13627.454063895142,5894.0
13627.454126392355,5757.0
13627.454188889567,6294.0
13627.45425138678,7181.0
13627.454313883993,8088.0
13627.454376381203,8857.0
13627.454438878416,9171.0
13627.454501375629,9166.0
13627.454563872841,8732.0
13627.454626370054,8121.0
13627.454688867267,7618.0
13627.45475136448,7463.0
13627.454813861692,7599.0
13627.454876358905,7948.0
13627.454938856117,8240.0
13627.45500135333,8334.0
13627.455063850543,8086.0
13627.455126347753,7435.0
13627.455188844966,6378.0
13627.455251342179,5350.0
13627.455313839391,4633.0
13627.455376336604,4211.0
13627.455438833817,4114.0
13627.45550133103,4278.0
13627.455563828242,4456.0
13627.455626325454,4363.0
13627.455688822667,3971.0
13627.455751319878,3330.0
13627.45581381709,2540.0
13627.455876314303,1645.0
13627.455938811516,818.0
13627.456001308728,130.0
13627.456063805941,-331.0
13627.456126303154,-714.0
13627.456188800366,-1074.0
13627.456251297579,-1553.0
13627.456313794792,-2255.0
13627.456376292004,-3296.0
13627.456438789215,-4545.0
13627.456501286428,-5803.0
13627.45656378364,-7227.0
13627.456626280853,-8953.0
13627.456688778066,-10833.0
13627.456751275278,-12682.0
13627.456813772491,-14150.0
13627.456876269704,-15047.0
13627.456938766916,-15432.0
13627.457001264129,-15387.0
13627.457063761341,-15398.0
13627.457126258552,-15862.0
13627.457188755765,-16472.0
13627.457251252978,-17673.0
13627.45731375019,-18928.0
13627.457376247403,-18762.0
13627.457438744616,-16759.0
13627.457501241828,-13308.0
13627.45756373904,-9077.0
13627.457626236253,-4283.0
13627.457688733466,-91.0
13627.457751230679,2568.0
13627.45781372789,4066.0
13627.457876225102,4597.0
13627.457938722315,4151.0
13627.458001219527,2827.0
13627.45806371674,1734.0
13627.458126213953,1260.0
13627.458188711165,981.0
13627.458251208378,1101.0
13627.45831370559,1535.0
13627.458376202803,1970.0
13627.458438700016,1766.0
13627.458501197227,1353.0
13627.45856369444,1279.0
13627.458626191652,1474.0
13627.458688688865,2063.0
13627.458751186077,3069.0
13627.45881368329,4465.0
13627.458876180503,5932.0
13627.458938677715,6996.0
13627.459001174928,7817.0
13627.45906367214,8160.0
13627.459126169353,8009.0
13627.459188666564,7362.0
13627.459251163777,6728.0
13627.45931366099,6309.0
13627.459376158202,6254.0
13627.459438655414,6525.0
13627.459501152627,7254.0
13627.45956364984,7987.0
13627.459626147052,8461.0
13627.459688644265,8739.0
13627.459751141478,8906.0
13627.45981363869,8742.0
13627.459876135901,8389.0
13627.459938633114,7992.0
13627.460001130326,7713.0
13627.460063627539,7495.0
13627.460126124752,7335.0
13627.460188621964,7325.0
13627.460251119177,7291.0
13627.46031361639,7088.0
13627.460376113602,6677.0
13627.460438610815,6079.0
13627.460501108028,5575.0
13627.460563605238,5072.0
13627.460626102451,4542.0
13627.460688599664,4168.0
13627.460751096876,3873.0
13627.460813594089,3586.0
13627.460876091302,3217.0
13627.460938588514,2817.0
13627.461001085727,2367.0
13627.46106358294,1842.0
13627.461126080152,1199.0
13627.461188577365,528.0
13627.461251074576,-86.0
13627.461313571788,-691.0
13627.461376069,-1231.0
13627.461438566213,-1743.0
13627.461501063426,-2257.0
13627.461563560639,-2886.0
13627.461626057851,-3850.0
13627.461688555064,-5029.0
13627.461751052277,-6532.0
13627.46181354949,-8456.0
13627.461876046702,-10553.0
13627.461938543913,-12447.0
13627.462001041125,-13958.0
13627.462063538338,-14945.0
13627.46212603555,-15339.0
13627.462188532763,-15433.0
13627.462251029976,-15574.0
13627.462313527189,-16053.0
13627.462376024401,-16620.0
13627.462438521614,-17572.0
13627.462501018827,-19070.0
13627.46256351604,-19408.0
13627.46262601325,-17884.0
13627.462688510463,-14670.0
13627.462751007675,-10368.0
13627.462813504888,-5687.0
13627.4628760021,-1239.0
13627.462938499313,1922.0
13627.463000996526,3703.0
13627.463063493738,4649.0
13627.463125990951,4633.0
13627.463188488164,3561.0
13627.463250985376,1820.0
13627.463313482587,852.0
13627.4633759798,755.0
13627.463438477012,1052.0
13627.463500974225,1377.0
13627.463563471438,1839.0
13627.46362596865,1925.0
13627.463688465863,1398.0
13627.463750963076,944.0
13627.463813460288,1309.0
13627.463875957501,1956.0
13627.463938454714,2737.0
13627.464000951924,3686.0
13627.464063449137,5113.0
13627.46412594635,6369.0
13627.464188443562,7288.0
13627.464250940775,7807.0
13627.464313437988,7762.0
13627.4643759352,7149.0
13627.464438432413,6362.0
13627.464500929626,5904.0
13627.464563426838,6116.0
13627.46462592405,6556.0
13627.464688421262,7169.0
13627.464750918474,7798.0
13627.464813415687,8231.0
13627.4648759129,8396.0
13627.464938410112,8446.0
13627.465000907325,8447.0
13627.465063404537,8246.0
13627.46512590175,7989.0
13627.465188398963,7780.0
13627.465250896175,7707.0
13627.465313393386,7661.0
13627.465375890599,7635.0
13627.465438387811,7476.0
13627.465500885024,7291.0
13627.465563382237,6827.0
13627.46562587945,6237.0
13627.465688376662,5688.0
13627.465750873875,5244.0
13627.465813371087,4825.0
13627.4658758683,4530.0
13627.465938365513,4328.0
13627.466000862725,4109.0
13627.466063359936,3699.0
13627.466125857149,3140.0
13627.466188354361,2513.0
13627.466250851574,1897.0
13627.466313348787,1272.0
13627.466375846,777.0
13627.466438343212,431.0
13627.466500840424,96.0
13627.466563337637,-342.0
13627.46662583485,-942.0
13627.46668833206,-1468.0
13627.466750829273,-2216.0
13627.466813326486,-3372.0
13627.466875823699,-4843.0
13627.466938320911,-6589.0
13627.467000818124,-8654.0
13627.467063315336,-10941.0
13627.467125812549,-13114.0
13627.467188309762,-14738.0
13627.467250806974,-15669.0
13627.467313304187,-15964.0
13627.467375801398,-15760.0
13627.46743829861,-15404.0
13627.467500795823,-15445.0
13627.467563293036,-15959.0
13627.467625790248,-16958.0
13627.467688287461,-18638.0
13627.467750784674,-19583.0
13627.467813281886,-18714.0
13627.467875779099,-15885.0
13627.467938276312,-11695.0
13627.468000773524,-6754.0
13627.468063270735,-2051.0
13627.468125767948,1264.0
13627.46818826516,3207.0
13627.468250762373,4153.0
13627.468313259586,3862.0
13627.468375756798,2687.0
13627.46843825401,1279.0
13627.468500751223,607.0
13627.468563248436,630.0
13627.468625745649,1322.0
13627.468688242861,2152.0
13627.468750740072,2619.0
13627.468813237285,2402.0
13627.468875734497,1807.0
13627.46893823171,1048.0
13627.469000728923,740.0
13627.469063226135,1004.0
13627.469125723348,1888.0
13627.46918822056,3174.0
13627.469250717773,4852.0
13627.469313214986,6392.0
13627.469375712199,7537.0
13627.46943820941,8096.0
13627.469500706622,8008.0
13627.469563203835,7430.0
13627.469625701047,6623.0
13627.46968819826,6185.0
13627.469750695473,6104.0
13627.469813192685,6461.0
13627.469875689898,7085.0
13627.46993818711,7822.0
13627.470000684323,8344.0
13627.470063181536,8606.0
13627.470125678747,8455.0
13627.47018817596,8218.0
13627.470250673172,7747.0
13627.470313170385,7412.0
13627.470375667597,7268.0
13627.47043816481,7280.0
13627.470500662022,7403.0
13627.470563159235,7443.0
13627.470625656448,7231.0
13627.47068815366,6948.0
13627.470750650873,6555.0
13627.470813148084,6106.0
13627.470875645296,5645.0
13627.47093814251,5269.0
13627.471000639722,4952.0
13627.471063136934,4677.0
13627.471125634147,4301.0
13627.47118813136,3867.0
13627.471250628572,3450.0
13627.471313125785,2932.0
13627.471375622998,2398.0
13627.47143812021,1871.0
13627.471500617421,1434.0
13627.471563114634,962.0
13627.471625611846,421.0
13627.471688109059,-54.0
13627.471750606272,-494.0
13627.471813103484,-954.0
13627.471875600697,-1454.0
13627.47193809791,-2058.0
13627.472000595122,-2817.0
13627.472063092335,-3850.0
13627.472125589547,-5029.0
13627.472188086758,-6513.0
13627.47225058397,-8431.0
13627.472313081184,-10577.0
13627.472375578396,-12598.0
13627.472438075609,-14219.0
13627.472500572821,-15240.0
13627.472563070034,-15641.0
13627.472625567247,-15624.0
13627.47268806446,-15405.0
13627.472750561672,-15438.0
13627.472813058885,-16064.0
13627.472875556095,-17172.0
13627.472938053308,-18659.0
13627.47300055052,-19396.0
13627.473063047733,-18327.0
13627.473125544946,-15336.0
13627.473188042159,-10830.0
13627.473250539371,-6005.0
13627.473313036584,-1776.0
13627.473375533797,1322.0
13627.47343803101,3110.0
13627.473500528222,3761.0
13627.473563025433,3243.0
13627.473625522645,2345.0
13627.473688019858,1471.0
13627.47375051707,804.0
13627.473813014283,803.0
13627.473875511496,1496.0
13627.473938008709,2161.0
13627.474000505921,2158.0
13627.474063003134,1709.0
13627.474125500346,1063.0
13627.474187997559,419.0
13627.47425049477,103.0
13627.474312991983,591.0
13627.474375489195,1783.0
13627.474437986408,3308.0
13627.47450048362,4963.0
13627.474562980833,6706.0
13627.474625478046,7976.0
13627.474687975258,8506.0
13627.474750472471,8267.0
13627.474812969684,7663.0
13627.474875466896,6837.0
13627.474937964107,6149.0
13627.47500046132,6073.0
13627.475062958532,6564.0
13627.475125455745,7119.0
13627.475187952958,7638.0
13627.47525045017,7944.0
13627.475312947383,7987.0
13627.475375444596,7842.0
13627.475437941808,7677.0
13627.47550043902,7706.0
13627.475562936233,7738.0
13627.475625433444,7682.0
13627.475687930657,7603.0
13627.47575042787,7618.0
13627.475812925082,7634.0
13627.475875422295,7450.0
13627.475937919507,7091.0
13627.47600041672,6630.0
13627.476062913933,6018.0
13627.476125411145,5339.0
13627.476187908358,4867.0
13627.476250405569,4604.0
13627.476312902782,4312.0
13627.476375399994,3935.0
13627.476437897207,3424.0
13627.47650039442,2950.0
13627.476562891632,2512.0
13627.476625388845,2018.0
13627.476687886057,1636.0
13627.47675038327,1180.0
13627.476812880483,702.0
13627.476875377695,159.0
13627.476937874908,-402.0
13627.477000372119,-1031.0
13627.477062869331,-1691.0
13627.477125366544,-2332.0
13627.477187863757,-3037.0
13627.47725036097,-3861.0
13627.477312858182,-4774.0
13627.477375355395,-5966.0
13627.477437852607,-7606.0
13627.47750034982,-9731.0
13627.477562847032,-11958.0
13627.477625344243,-13896.0
13627.477687841456,-15226.0
13627.477750338669,-15925.0
13627.477812835881,-16087.0
13627.477875333094,-16037.0
13627.477937830306,-16180.0
13627.47800032752,-16606.0
13627.478062824732,-17210.0
13627.478125321944,-18475.0
13627.478187819157,-19734.0
13627.47825031637,-19532.0
13627.47831281358,-17238.0
13627.478375310793,-13160.0
13627.478437808006,-8203.0
13627.478500305218,-2925.0
13627.478562802431,1063.0
13627.478625299644,3226.0
13627.478687796856,4159.0
13627.478750294069,4263.0
13627.478812791282,3558.0
13627.478875288494,2314.0
13627.478937785707,1053.0
13627.479000282918,357.0
13627.47906278013,403.0
13627.479125277343,987.0
13627.479187774556,1584.0
13627.479250271768,2054.0
13627.47931276898,1825.0
13627.479375266194,1052.0
13627.479437763406,380.0
13627.479500260619,762.0
13627.479562757831,1720.0
13627.479625255044,2944.0
13627.479687752255,4358.0
13627.479750249468,5952.0
13627.47981274668,7157.0
13627.479875243893,7988.0
13627.479937741105,8337.0
13627.480000238318,8233.0
13627.48006273553,7357.0
13627.480125232743,6445.0
13627.480187729956,5931.0
13627.480250227169,6122.0
13627.480312724381,6697.0
13627.480375221592,7429.0
13627.480437718805,8048.0
13627.480500216017,8384.0
13627.48056271323,8392.0
13627.480625210443,8134.0
13627.480687707655,7935.0
13627.480750204868,7551.0
13627.48081270208,7211.0
13627.480875199293,7123.0
13627.480937696506,7332.0
13627.481000193719,7624.0
13627.48106269093,7903.0
13627.481125188142,7888.0
13627.481187685355,7489.0
13627.481250182567,6568.0
13627.48131267978,5516.0
13627.481375176993,4635.0
13627.481437674205,4055.0
13627.481500171418,3671.0
13627.48156266863,3379.0
13627.481625165843,3180.0
13627.481687663056,3076.0
13627.481750160267,2831.0
13627.48181265748,2439.0
13627.481875154692,1935.0
13627.481937651904,1261.0
13627.482000149117,446.0
13627.48206264633,-265.0
13627.482125143542,-781.0
13627.482187640755,-1117.0
13627.482250137968,-1338.0
13627.48231263518,-1695.0
13627.482375132393,-2178.0
13627.482437629604,-2932.0
13627.482500126816,-4056.0
13627.482562624029,-5607.0
13627.482625121242,-7662.0
13627.482687618454,-10018.0
13627.482750115667,-12562.0
13627.48281261288,-14670.0
13627.482875110092,-15865.0
13627.482937607305,-16376.0
13627.483000104517,-16484.0
13627.48306260173,-16364.0
13627.483125098941,-16434.0
13627.483187596154,-16924.0
13627.483250093366,-17791.0
13627.483312590579,-19201.0
13627.483375087792,-20304.0
13627.483437585004,-19730.0
13627.483500082217,-16926.0
13627.48356257943,-12587.0
13627.483625076642,-7592.0
13627.483687573855,-2714.0
13627.483750071067,801.0
13627.483812568278,2684.0
13627.48387506549,3613.0
13627.483937562703,3705.0
13627.484000059916,2923.0
13627.484062557129,1628.0
13627.484125054341,652.0
13627.484187551554,439.0
13627.484250048767,741.0
13627.48431254598,1517.0
13627.484375043192,2182.0
13627.484437540405,2124.0
13627.484500037615,1506.0
13627.484562534828,744.0
13627.48462503204,306.0
13627.484687529253,612.0
13627.484750026466,1686.0
13627.484812523679,3272.0
13627.484875020891,4947.0
13627.484937518104,6466.0
13627.485000015316,7590.0
13627.48506251253,8258.0
13627.485125009742,8098.0
13627.485187506953,7405.0
13627.485250004165,6500.0
13627.485312501378,5822.0
13627.48537499859,5659.0
13627.485437495803,6247.0
13627.485499993016,7170.0
13627.485562490228,7917.0
13627.485624987441,8091.0
13627.485687484654,8138.0
13627.485749981866,7889.0
13627.485812479079,7734.0
13627.48587497629,7646.0
13627.485937473502,7623.0
13627.485999970715,7568.0
13627.486062467928,7553.0
13627.48612496514,7619.0
13627.486187462353,7719.0
13627.486249959566,7614.0
13627.486312456778,7332.0
13627.48637495399,6822.0
13627.486437451204,6176.0
13627.486499948416,5515.0
13627.486562445627,4959.0
13627.48662494284,4465.0
13627.486687440052,4033.0
13627.486749937265,3582.0
13627.486812434478,3133.0
13627.48687493169,2799.0
13627.486937428903,2481.0
13627.486999926115,2200.0
13627.487062423328,1896.0
13627.48712492054,1563.0
13627.487187417753,1097.0
13627.487249914964,574.0
13627.487312412177,36.0
13627.48737490939,-454.0
13627.487437406602,-1097.0
13627.487499903815,-1815.0
13627.487562401027,-2609.0
13627.48762489824,-3450.0
13627.487687395453,-4361.0
13627.487749892665,-5467.0
13627.487812389878,-6944.0
13627.48787488709,-8973.0
13627.487937384301,-11466.0
13627.487999881514,-13938.0
13627.488062378727,-15745.0
13627.48812487594,-16587.0
13627.488187373152,-16818.0
13627.488249870365,-16671.0
13627.488312367577,-16387.0
13627.48837486479,-16240.0
13627.488437362003,-16633.0
13627.488499859215,-17785.0
13627.488562356426,-19204.0
13627.488624853639,-19674.0
13627.488687350851,-18458.0
13627.488749848064,-15349.0
13627.488812345277,-10694.0
13627.48887484249,-5341.0
13627.488937339702,-821.0
13627.488999836914,2110.0
13627.489062334127,3929.0
13627.48912483134,4686.0
13627.489187328552,4246.0
13627.489249825763,2818.0
13627.489312322976,1252.0
13627.489374820188,181.0
13627.489437317401,-219.0
13627.489499814614,267.0
13627.489562311826,1236.0
13627.489624809039,1957.0
13627.489687306252,1926.0
13627.489749803464,1227.0
13627.489812300677,404.0
13627.48987479789,224.0
13627.4899372951,962.0
13627.489999792313,2267.0
13627.490062289526,3782.0
13627.490124786738,5346.0
13627.490187283951,6757.0
13627.490249781164,7807.0
13627.490312278376,8312.0
13627.490374775589,8246.0
13627.490437272802,7611.0
13627.490499770014,6567.0
13627.490562267227,5804.0
13627.490624764438,5790.0
13627.49068726165,6477.0
13627.490749758863,7434.0
13627.490812256076,8190.0
13627.490874753288,8403.0
13627.4909372505,8163.0
13627.490999747713,7756.0
13627.491062244926,7528.0
13627.491124742139,7535.0
13627.491187239351,7522.0
13627.491249736564,7510.0
13627.491312233775,7366.0
13627.491374730987,7354.0
13627.4914372282,7390.0
13627.491499725413,7473.0
13627.491562222625,7285.0
13627.491624719838,6649.0
13627.49168721705,5755.0
13627.491749714263,4959.0
13627.491812211476,4391.0
13627.491874708689,4059.0
13627.491937205901,3840.0
13627.491999703112,3566.0
13627.492062200325,3125.0
13627.492124697537,2598.0
13627.49218719475,2077.0
13627.492249691963,1572.0
