0,1,2,3,4,5,6,7,8,9,10
18151.620975111975,-1219.25341796875,435.0350036621094,7.169867515563965,-1389.3096923828125,-29.4237003326416,55.57772445678711,16.137203216552734,71.6877670288086,-27.67597198486328,65535.0
18151.62137512053,-1230.9620361328125,437.5495910644531,2.990870475769043,-1395.323974609375,-39.257869720458984,45.66532897949219,4.3036208152771,60.22890853881836,-27.92527198791504,65535.0
18151.621775129082,-1232.96435546875,432.0921936035156,0.09803331643342972,-1410.6773681640625,-30.3009090423584,56.0118522644043,12.093947410583496,69.2779769897461,-28.54425621032715,65535.0
18151.622175137632,-1244.6829833984375,430.0760192871094,8.555438995361328,-1412.971435546875,-23.884254455566406,63.54412078857422,21.063135147094727,77.76042175292969,-23.839719772338867,65535.0
18151.622575146186,-1254.862060546875,425.2369689941406,-1.176308512687683,-1415.5928955078125,-30.760799407958984,59.08502197265625,15.43853759765625,70.56468200683594,-30.29618263244629,65535.0
18151.62297515474,-1243.9588623046875,420.4215393066406,-13.875739097595215,-1404.864501953125,-20.09084701538086,70.77259063720703,23.542898178100586,77.3509750366211,-40.503170013427734,65535.0
18151.62337516329,-1232.222412109375,421.4259033203125,-2.5159671306610107,-1396.13232421875,-15.680502891540527,72.82347106933594,26.31147003173828,78.97976684570312,-39.16603088378906,65535.0
18151.623775171844,-1225.453857421875,419.2812194824219,-5.507044315338135,-1402.676025390625,-15.024109840393066,75.12397003173828,27.962690353393555,83.4963607788086,-38.73574447631836,65535.0
18151.624175180397,-1212.796630859375,421.39495849609375,-8.106009483337402,-1411.93994140625,-25.88944435119629,70.34912872314453,18.012136459350586,72.85411071777344,-35.127601623535156,65535.0
18151.62457518895,-1217.3941650390625,415.9799499511719,-5.964109897613525,-1415.3948974609375,-21.48627281188965,74.764892578125,24.128305435180664,77.034912109375,-20.791553497314453,65535.0
18151.6249751975,-1225.6148681640625,411.763916015625,-14.422955513000488,-1413.125,-21.737260818481445,77.72506713867188,21.243104934692383,79.75092315673828,-15.201308250427246,65535.0
18151.625375206055,-1220.7635498046875,413.6475830078125,-16.853132247924805,-1411.40625,-24.088464736938477,74.81404876708984,20.185161590576172,73.93968963623047,-16.961698532104492,65535.0
18151.62577521461,-1217.9302978515625,417.4150085449219,-7.084592342376709,-1411.0469970703125,-19.917396545410156,78.6856689453125,24.559314727783203,79.62844848632812,-32.350223541259766,65535.0
18151.62617522316,-1219.7091064453125,419.3579406738281,4.429530620574951,-1415.48193359375,-19.17391014099121,77.23883819580078,22.861005783081055,76.9063491821289,-41.49807357788086,65535.0
18151.626575231712,-1210.3189697265625,416.1964111328125,6.4461350440979,-1418.1763916015625,-20.886981964111328,80.13129425048828,21.227216720581055,79.69256591796875,-28.466800689697266,65535.0
18151.626975240266,-1208.3109130859375,414.26507568359375,9.091238021850586,-1422.7154541015625,-14.710282325744629,84.29934692382812,27.46668243408203,84.47047424316406,-19.715055465698242,65535.0
18151.62737524882,-1229.84228515625,412.233642578125,7.733953952789307,-1432.8316650390625,-12.272688865661621,85.19021606445312,28.956058502197266,83.41779327392578,-13.07737922668457,65535.0
18151.62777525737,-1246.0770263671875,412.1126403808594,0.21775251626968384,-1426.247802734375,-25.342065811157227,71.1238021850586,17.37493133544922,71.75519561767578,-19.790021896362305,65535.0
18151.628175265923,-1243.522705078125,413.6244201660156,5.7405242919921875,-1424.1187744140625,-15.892638206481934,85.55479431152344,29.763044357299805,85.156494140625,-32.099952697753906,65535.0
18151.628575274477,-1253.7957763671875,419.786865234375,6.682282447814941,-1423.626953125,-9.2788724899292,91.8768539428711,34.26051330566406,87.76054382324219,-23.108531951904297,65535.0
18151.628975283027,-1245.087158203125,429.4013671875,9.342028617858887,-1435.8389892578125,-12.012012481689453,85.66468811035156,30.05259132385254,85.92252349853516,-29.97562599182129,65535.0
18151.62937529158,-1244.7208251953125,432.2370910644531,2.3670809268951416,-1436.6314697265625,-13.546653747558594,82.71942138671875,30.028846740722656,83.17821502685547,-24.451770782470703,65535.0
18151.629775300134,-1238.7606201171875,436.88385009765625,-3.064131021499634,-1433.9814453125,-19.352907180786133,74.4061508178711,21.208152770996094,74.62891387939453,-28.0644474029541,65535.0
18151.63017530869,-1242.5936279296875,442.5035400390625,-4.166455268859863,-1438.95263671875,-21.774795532226562,69.39407348632812,17.230012893676758,74.19261932373047,-37.632259368896484,65535.0
18151.63057531724,-1242.1739501953125,436.767333984375,-4.081865310668945,-1436.6612548828125,-18.409385681152344,74.62545776367188,24.488786697387695,82.53555297851562,-23.976276397705078,65535.0
18151.630975325792,-1231.4044189453125,436.7699890136719,5.684754848480225,-1440.73974609375,-21.734018325805664,71.97920227050781,21.87445068359375,77.30072021484375,-20.813013076782227,65535.0
18151.631375334346,-1221.48291015625,446.71710205078125,4.196753025054932,-1446.5382080078125,-27.204925537109375,64.70491027832031,17.454099655151367,73.97196960449219,-19.421098709106445,65535.0
18151.631775342896,-1225.127685546875,449.578857421875,17.10577964782715,-1441.299072265625,-29.39030647277832,59.5194091796875,16.388912200927734,69.29695129394531,-27.550195693969727,65535.0
18151.63217535145,-1241.1181640625,449.71612548828125,7.059247016906738,-1443.9439697265625,-16.1090087890625,72.45948791503906,24.9215030670166,81.83397674560547,-31.051042556762695,65535.0
18151.632575360003,-1236.224365234375,446.75799560546875,7.373734474182129,-1427.3446044921875,-23.799394607543945,63.89604187011719,19.957426071166992,74.22480773925781,-19.314922332763672,65535.0
18151.632975368557,-1229.0462646484375,455.41900634765625,18.577985763549805,-1417.0037841796875,-24.600446701049805,60.585487365722656,22.797195434570312,74.78398895263672,-26.647615432739258,65535.0
18151.633375377107,-1218.779541015625,459.2652282714844,14.802545547485352,-1401.6392822265625,-23.49278450012207,61.55474853515625,19.851327896118164,77.06402587890625,-37.143035888671875,65535.0
18151.63377538566,-1216.1697998046875,461.7287902832031,10.826146125793457,-1373.9368896484375,-31.58452606201172,50.981689453125,11.086416244506836,65.3491439819336,-27.92399787902832,65535.0
18151.634175394214,-1218.6273193359375,464.4900817871094,15.941145896911621,-1352.8155517578125,-31.301881790161133,48.5401496887207,11.5956449508667,65.93646240234375,-27.42935562133789,65535.0
18151.634575402764,-1202.293701171875,476.0438537597656,8.659152030944824,-1325.078369140625,-30.217754364013672,50.63441848754883,14.16186237335205,67.68829345703125,-26.968233108520508,65535.0
18151.634975411318,-1195.2459716796875,465.00006103515625,14.885087013244629,-1313.2369384765625,-37.8553352355957,39.11130142211914,5.183693885803223,59.991695404052734,-28.039064407348633,65535.0
18151.63537541987,-1206.87548828125,461.19952392578125,16.12596321105957,-1301.075927734375,-42.85858917236328,31.74269676208496,1.2614011764526367,57.01521682739258,-26.863203048706055,65535.0
18151.635775428425,-1202.5418701171875,458.1793212890625,15.224209785461426,-1300.361083984375,-42.667911529541016,27.92940902709961,0.44125473499298096,55.406890869140625,-38.161556243896484,65535.0
18151.636175436975,-1207.44140625,457.9186096191406,18.278705596923828,-1310.265869140625,-33.967430114746094,39.97562026977539,7.052340984344482,60.3328857421875,-37.58216857910156,65535.0
18151.63657544553,-1213.5133056640625,462.37109375,7.099168300628662,-1320.3487548828125,-37.79713439941406,39.59791946411133,8.201737403869629,66.75350189208984,-36.80199432373047,65535.0
18151.636975454083,-1208.021728515625,448.24603271484375,3.8712964057922363,-1320.1309814453125,-37.082462310791016,39.95165252685547,8.000539779663086,62.107933044433594,-27.23038673400879,65535.0
18151.637375462633,-1205.986572265625,444.2716979980469,-6.113672733306885,-1330.619873046875,-35.884239196777344,34.54616165161133,7.109447479248047,61.875518798828125,-31.58852767944336,65535.0
18151.637775471187,-1202.3214111328125,442.95703125,-1.6585049629211426,-1343.481689453125,-43.3811149597168,24.452404022216797,-2.755842447280884,55.04582977294922,-42.096702575683594,65535.0
18151.63817547974,-1199.644775390625,448.2444763183594,-3.0077297687530518,-1363.50537109375,-41.09890365600586,29.677621841430664,3.40653920173645,55.81399154663086,-27.74641990661621,65535.0
18151.638575488294,-1203.7548828125,443.5192565917969,-0.2626330852508545,-1369.151123046875,-55.21461868286133,17.30678939819336,-8.93661880493164,44.253631591796875,-23.926616668701172,65535.0
18151.638975496844,-1205.1473388671875,435.1060791015625,-3.255736827850342,-1362.242919921875,-42.28031539916992,30.083820343017578,1.3286912441253662,56.66273498535156,-27.67528533935547,65535.0
18151.639375505398,-1205.1832275390625,432.6107482910156,-5.479821681976318,-1360.672607421875,-30.80815315246582,46.111610412597656,12.070751190185547,69.14889526367188,-28.756160736083984,65535.0
18151.63977551395,-1215.6822509765625,438.7580261230469,3.4425501823425293,-1352.918701171875,-29.16753387451172,48.23134231567383,13.724797248840332,68.81217193603516,-22.409025192260742,65535.0
18151.6401755225,-1217.7386474609375,441.9586181640625,2.463440418243408,-1345.9228515625,-38.00275802612305,43.03010177612305,5.605519771575928,62.438087463378906,-22.831134796142578,65535.0
18151.640575531055,-1205.80712890625,430.5740051269531,-0.6731962561607361,-1357.8067626953125,-26.232547760009766,52.808101654052734,15.980607986450195,70.15951538085938,-16.3880558013916,65535.0
18151.64097553961,-1209.021728515625,433.5820007324219,-0.6322709918022156,-1372.02490234375,-35.362396240234375,45.66824722290039,11.086657524108887,65.33770751953125,-29.35540771484375,65535.0
18151.641375548163,-1186.90087890625,430.6019592285156,-0.5154603123664856,-1397.422607421875,-40.501922607421875,36.54122543334961,3.8734169006347656,57.192138671875,-33.684566497802734,65535.0
18151.641775556713,-1175.498291015625,421.2078552246094,-0.5006305575370789,-1420.286376953125,-31.718753814697266,49.223140716552734,12.673913955688477,67.95799255371094,-22.555044174194336,65535.0
18151.642175565266,-1187.973388671875,433.428955078125,0.9633646607398987,-1431.509033203125,-25.397815704345703,60.15904998779297,18.55520248413086,73.19895935058594,-19.187633514404297,65535.0
18151.64257557382,-1192.723876953125,439.5411682128906,0.9261949062347412,-1417.4130859375,-31.328699111938477,49.85555648803711,9.807790756225586,66.451416015625,-34.95726776123047,65535.0
18151.64297558237,-1185.7708740234375,428.3709716796875,-12.33903980255127,-1404.0556640625,-33.852474212646484,48.50741195678711,10.707172393798828,63.75385665893555,-37.808650970458984,65535.0
18151.643375590924,-1178.648681640625,415.5785217285156,-19.175830841064453,-1404.3333740234375,-22.303686141967773,61.15510177612305,22.781049728393555,75.11003875732422,-22.260189056396484,65535.0
18151.643775599478,-1182.5072021484375,416.40655517578125,-21.173763275146484,-1393.3485107421875,-10.140612602233887,79.9726791381836,32.150543212890625,88.45122528076172,-29.066198348999023,65535.0
18151.64417560803,-1183.2391357421875,419.1224060058594,-13.847373962402344,-1401.27783203125,-13.243014335632324,80.08971405029297,28.62663459777832,85.1590805053711,-35.00495147705078,65535.0
18151.64457561658,-1197.5118408203125,406.31756591796875,-12.130162239074707,-1421.9752197265625,-21.881301879882812,66.34393310546875,18.561405181884766,71.51087951660156,-24.374719619750977,65535.0
18151.644975625135,-1203.1878662109375,404.325927734375,-5.435079097747803,-1428.086669921875,-12.483757972717285,79.54373168945312,30.638948440551758,85.86067199707031,-30.68825340270996,65535.0
18151.64537563369,-1212.2869873046875,413.324462890625,-15.09002685546875,-1450.6119384765625,-13.463377952575684,81.2769775390625,31.269384384155273,84.5610122680664,-30.266633987426758,65535.0
18151.64577564224,-1206.5101318359375,414.8920593261719,-12.829399108886719,-1472.29638671875,-23.15676498413086,68.20586395263672,17.57202911376953,73.19239044189453,-26.138826370239258,65535.0
18151.646175650792,-1225.0047607421875,419.97686767578125,-3.866215705871582,-1476.4722900390625,-21.32366371154785,68.31041717529297,18.477554321289062,76.15341186523438,-28.71068000793457,65535.0
18151.646575659346,-1250.3612060546875,418.2864685058594,-10.952335357666016,-1479.9990234375,-21.834138870239258,71.87689208984375,21.552492141723633,78.03722381591797,-29.56989288330078,65535.0
18151.6469756679,-1248.937744140625,425.16943359375,-7.683016300201416,-1478.16357421875,-18.06346893310547,76.34748077392578,25.06943130493164,82.09259796142578,-27.951515197753906,65535.0
18151.64737567645,-1264.8128662109375,428.88226318359375,-6.445537090301514,-1475.5172119140625,-18.074167251586914,75.46623229980469,23.59970474243164,79.1624526977539,-17.43195343017578,65535.0
18151.647775685004,-1268.779296875,435.4168701171875,9.654155731201172,-1475.966064453125,-17.996618270874023,79.84135437011719,27.185565948486328,82.73468780517578,-19.996463775634766,65535.0
18151.648175693557,-1262.751220703125,434.75775146484375,8.345845222473145,-1468.9947509765625,-23.610435485839844,74.06208038330078,20.171110153198242,74.54976654052734,-32.83905029296875,65535.0
18151.648575702107,-1254.194580078125,428.0315246582031,12.662063598632812,-1473.4378662109375,-19.451053619384766,72.06918334960938,24.035966873168945,76.89988708496094,-32.41241455078125,65535.0
18151.64897571066,-1258.2725830078125,440.1902770996094,17.041929244995117,-1476.4356689453125,-29.885032653808594,63.55774688720703,16.91253662109375,72.5480728149414,-13.145722389221191,65535.0
18151.649375719215,-1252.5733642578125,446.3260803222656,17.34071159362793,-1492.302001953125,-32.010009765625,59.0863151550293,13.353759765625,70.59502410888672,-27.719446182250977,65535.0
18151.64977572777,-1259.20849609375,428.7073669433594,13.719269752502441,-1498.712646484375,-28.227079391479492,60.41347122192383,12.534972190856934,68.21842956542969,-27.858366012573242,65535.0
18151.65017573632,-1261.4942626953125,428.4237365722656,11.993667602539062,-1491.4794921875,-28.257925033569336,60.20316696166992,12.898038864135742,70.10902404785156,-20.317583084106445,65535.0
18151.650575744872,-1256.516357421875,423.69549560546875,7.345468044281006,-1485.6207275390625,-32.85396957397461,55.45690155029297,12.777602195739746,68.15018463134766,-13.230618476867676,65535.0
18151.650975753426,-1248.467529296875,430.84503173828125,-3.3730673789978027,-1480.4718017578125,-31.94874382019043,56.860069274902344,13.260772705078125,67.60283660888672,-20.096162796020508,65535.0
18151.651375761976,-1243.41943359375,430.06103515625,2.87970232963562,-1471.865234375,-38.83876037597656,46.35416793823242,8.303287506103516,61.40612030029297,-34.14630126953125,65535.0
18151.65177577053,-1239.0023193359375,423.40789794921875,10.868911743164062,-1465.347900390625,-34.57765579223633,48.51859664916992,9.60791301727295,60.641021728515625,-40.97279739379883,65535.0
18151.652175779083,-1233.4951171875,437.8973693847656,13.664304733276367,-1452.4786376953125,-34.61091995239258,51.463104248046875,9.895610809326172,65.67755889892578,-25.74684715270996,65535.0
18151.652575787637,-1226.4554443359375,449.85418701171875,8.732658386230469,-1434.820556640625,-43.18628692626953,40.7220458984375,1.7550554275512695,56.91816711425781,-28.835037231445312,65535.0
18151.652975796187,-1218.428955078125,459.8253479003906,14.958441734313965,-1408.501220703125,-46.39556121826172,36.697898864746094,-2.376465082168579,52.689857482910156,-27.121280670166016,65535.0
18151.65337580474,-1213.0220947265625,459.2512512207031,21.308765411376953,-1342.920654296875,-39.39576721191406,40.858009338378906,0.7029943466186523,59.37378692626953,-32.13874816894531,65535.0
18151.653775813294,-1211.3404541015625,454.0225524902344,18.588674545288086,-1254.8321533203125,-30.175426483154297,48.8750114440918,14.713314056396484,70.9875259399414,-27.256772994995117,65535.0
18151.654175821845,-1219.5179443359375,457.4143371582031,13.344602584838867,-1194.0860595703125,-32.10044860839844,44.864501953125,10.966460227966309,67.18998718261719,-18.388450622558594,65535.0
18151.6545758304,-1211.588134765625,456.27191162109375,17.599348068237305,-1175.5198974609375,-29.07429313659668,48.27135467529297,13.109689712524414,68.2086410522461,-24.23259162902832,65535.0
18151.654975838952,-1207.1024169921875,463.6661376953125,13.462634086608887,-1208.3975830078125,-43.64611053466797,31.358728408813477,-1.7050081491470337,55.6539306640625,-31.424488067626953,65535.0
18151.655375847506,-1213.7620849609375,461.5257263183594,11.515897750854492,-1264.062255859375,-41.51465606689453,29.265186309814453,-1.796753168106079,54.20548629760742,-26.332983016967773,65535.0
18151.655775856056,-1198.5009765625,457.466552734375,15.893117904663086,-1303.4332275390625,-32.939453125,41.871334075927734,10.36192798614502,66.03412628173828,-24.451271057128906,65535.0
18151.65617586461,-1191.2283935546875,449.9726257324219,13.329456329345703,-1365.41845703125,-37.78666687011719,33.78328323364258,4.02471923828125,60.91273498535156,-16.371187210083008,65535.0
18151.656575873163,-1188.8785400390625,455.4295959472656,22.014619827270508,-1414.4710693359375,-34.63790512084961,35.23383331298828,6.600603103637695,60.90095520019531,-31.657718658447266,65535.0
18151.656975881713,-1200.8731689453125,456.5293884277344,3.5583395957946777,-1441.123779296875,-36.83598709106445,37.05350875854492,6.000410079956055,61.25981903076172,-20.20539665222168,65535.0
18151.657375890267,-1202.8055419921875,457.07122802734375,-4.008618354797363,-1470.9697265625,-43.768898010253906,28.6962833404541,-2.8772099018096924,51.898258209228516,-29.798891067504883,65535.0
18151.65777589882,-1195.669677734375,451.7074279785156,-3.641160488128662,-1453.2789306640625,-42.61092758178711,29.952226638793945,1.8466331958770752,56.058109283447266,-29.476287841796875,65535.0
18151.658175907374,-1190.552490234375,446.9898986816406,-0.5540488958358765,-1435.2984619140625,-38.699928283691406,32.40711212158203,2.874561309814453,59.52544403076172,-19.390153884887695,65535.0
18151.658575915924,-1179.512939453125,451.3559875488281,0.06993623822927475,-1419.228515625,-36.76184844970703,35.78581237792969,3.7373781204223633,61.71236038208008,-29.06583595275879,65535.0
18151.658975924478,-1168.2034912109375,452.6233215332031,-2.5591747760772705,-1402.177001953125,-43.28504180908203,32.78335952758789,-1.4009487628936768,55.066986083984375,-25.596094131469727,65535.0
18151.65937593303,-1178.61962890625,439.949462890625,5.040716171264648,-1399.378662109375,-46.338165283203125,29.960134506225586,-3.8030145168304443,53.687591552734375,-36.7397575378418,65535.0
18151.65977594158,-1196.1689453125,440.17987060546875,-2.078303575515747,-1395.0751953125,-35.693115234375,36.938961029052734,4.2337446212768555,62.200958251953125,-16.12758445739746,65535.0
18151.660175950135,-1195.8731689453125,439.9515075683594,-11.66288948059082,-1365.0938720703125,-38.48028564453125,38.64342498779297,2.546698570251465,58.542388916015625,-24.05634307861328,65535.0
18151.66057595869,-1199.18896484375,432.9197692871094,-8.691957473754883,-1349.646484375,-40.711605072021484,35.30087661743164,1.0717413425445557,56.0860595703125,-34.2379150390625,65535.0
18151.660975967243,-1189.552490234375,429.2613830566406,-7.349240779876709,-1351.3721923828125,-36.19338607788086,40.47722244262695,6.094486713409424,60.57976531982422,-19.09241485595703,65535.0
18151.661375975793,-1183.0147705078125,429.27117919921875,-9.001530647277832,-1357.829833984375,-44.74991226196289,32.186866760253906,-2.0359508991241455,51.46623229980469,-15.310007095336914,65535.0
18151.661775984347,-1188.8990478515625,421.1086120605469,-12.242095947265625,-1364.323974609375,-40.80779266357422,38.683494567871094,1.0577211380004883,57.31380844116211,-26.063650131225586,65535.0
18151.6621759929,-1188.3690185546875,420.2688903808594,-9.966988563537598,-1358.204833984375,-33.82310104370117,47.30881118774414,7.170193195343018,64.93209075927734,-22.812389373779297,65535.0
18151.66257600145,-1197.2711181640625,414.5472717285156,-15.950528144836426,-1363.4376220703125,-28.3062801361084,55.902137756347656,14.159902572631836,70.44184112548828,-27.098276138305664,65535.0
18151.662976010004,-1194.31884765625,416.9936828613281,-16.57775115966797,-1378.7559814453125,-25.602888107299805,57.767852783203125,13.976984024047852,70.23324584960938,-24.297698974609375,65535.0
18151.663376018558,-1190.3985595703125,414.2523193359375,-18.311199188232422,-1377.036865234375,-22.066679000854492,62.51239776611328,19.504737854003906,73.99385070800781,-19.863691329956055,65535.0
18151.66377602711,-1161.9825439453125,410.6004638671875,-17.34735870361328,-1375.0306396484375,-23.892051696777344,65.05657196044922,18.051494598388672,71.02850341796875,-26.033811569213867,65535.0
18151.66417603566,-1156.436767578125,413.40692138671875,-17.37805938720703,-1363.390625,-18.478675842285156,75.47576141357422,26.46965217590332,82.37635803222656,-24.068988800048828,65535.0
18151.664576044215,-1147.1910400390625,412.2910461425781,-18.859609603881836,-1337.2056884765625,-17.333223342895508,76.18391418457031,26.2569522857666,83.1103744506836,-20.0335636138916,65535.0
18151.66497605277,-1135.801025390625,406.4729919433594,-24.70642852783203,-1322.0274658203125,-19.36526870727539,73.53988647460938,24.752246856689453,81.10808563232422,-25.620296478271484,65535.0
18151.66537606132,-1155.8209228515625,408.5472412109375,-14.997370719909668,-1333.0286865234375,-13.290820121765137,83.7878646850586,33.418949127197266,89.35920715332031,-27.20376968383789,65535.0
18151.665776069873,-1154.3924560546875,414.80615234375,3.0388987064361572,-1358.30615234375,-17.205631256103516,77.4971923828125,27.470558166503906,81.52679443359375,-31.514490127563477,65535.0
18151.666176078426,-1146.927978515625,416.236572265625,-3.7097339630126953,-1381.49853515625,-16.297616958618164,75.8420639038086,26.348054885864258,80.70452117919922,-32.03376388549805,65535.0
18151.66657608698,-1167.58642578125,411.9322204589844,-1.1890068054199219,-1397.524658203125,-7.958426475524902,85.98661804199219,36.5637092590332,89.5052261352539,-31.717668533325195,65535.0
18151.66697609553,-1176.638427734375,425.09307861328125,5.753284931182861,-1419.3115234375,-15.645853996276855,83.07315826416016,29.56268882751465,86.43209838867188,-24.772533416748047,65535.0
18151.667376104084,-1185.144775390625,410.59283447265625,-2.5175998210906982,-1416.466064453125,-7.813924789428711,89.2445068359375,32.822994232177734,89.72759246826172,-14.128969192504883,65535.0
18151.667776112638,-1192.1168212890625,418.2261962890625,-4.273665904998779,-1389.6495361328125,-9.96376895904541,88.69248962402344,34.164154052734375,88.4865951538086,-20.742687225341797,65535.0
18151.668176121188,-1205.7733154296875,421.5086669921875,-1.3647024631500244,-1355.748291015625,-23.371196746826172,70.59170532226562,19.346837997436523,75.70822143554688,-31.733110427856445,65535.0
18151.66857612974,-1201.469482421875,419.0611572265625,13.66151237487793,-1344.0111083984375,-22.79351234436035,67.30445098876953,19.493850708007812,72.20628356933594,-31.637632369995117,65535.0
18151.668976138295,-1207.5228271484375,422.794921875,9.340771675109863,-1356.3360595703125,-22.326335906982422,66.8236083984375,17.73682975769043,76.03919219970703,-25.387271881103516,65535.0
18151.66937614685,-1211.344482421875,416.7242126464844,9.185261726379395,-1362.739990234375,-35.75397872924805,53.272743225097656,9.716850280761719,64.17062377929688,-36.44296646118164,65535.0
18151.6697761554,-1191.5108642578125,416.82305908203125,7.171340465545654,-1360.07568359375,-32.53288650512695,53.647891998291016,12.252131462097168,67.40729522705078,-31.79131507873535,65535.0
18151.670176163952,-1196.0513916015625,415.4855651855469,-3.1756813526153564,-1364.574462890625,-20.904144287109375,66.8988037109375,19.503000259399414,74.60830688476562,-24.681194305419922,65535.0
18151.670576172506,-1174.5472412109375,419.85504150390625,4.170180797576904,-1375.718994140625,-21.909549713134766,64.62460327148438,23.021099090576172,74.22636413574219,-18.74772071838379,65535.0
18151.670976181056,-1164.8525390625,417.6790466308594,11.537653923034668,-1390.48095703125,-21.005903244018555,61.36817169189453,19.481468200683594,72.95452117919922,-21.036266326904297,65535.0
18151.67137618961,-1163.38623046875,422.6846008300781,25.442399978637695,-1393.5369873046875,-19.305612564086914,65.9948501586914,22.92475700378418,79.7256851196289,-33.17661666870117,65535.0
18151.671776198164,-1136.02734375,429.42041015625,25.984813690185547,-1394.0533447265625,-18.8024845123291,67.15274810791016,25.544389724731445,77.3966293334961,-27.132888793945312,65535.0
18151.672176206717,-1133.132568359375,427.9844665527344,13.505683898925781,-1394.51611328125,-18.385841369628906,64.67268371582031,23.457656860351562,76.61809539794922,-41.599952697753906,65535.0
18151.672576215267,-1129.7586669921875,432.2717590332031,17.21701431274414,-1363.475341796875,-19.115846633911133,62.56344223022461,23.918981552124023,76.88015747070312,-41.53866958618164,65535.0
18151.67297622382,-1120.676025390625,441.1192321777344,23.382953643798828,-1339.3509521484375,-22.924734115600586,58.26631164550781,19.651880264282227,73.90250396728516,-30.122966766357422,65535.0
18151.673376232375,-1111.797607421875,445.7450256347656,19.32071876525879,-1336.283203125,-31.072341918945312,50.16263198852539,13.02888011932373,70.3882827758789,-31.777830123901367,65535.0
18151.673776240925,-1086.7247314453125,438.35760498046875,20.472625732421875,-1326.952392578125,-26.859664916992188,49.8028450012207,14.692848205566406,71.08020782470703,-23.346559524536133,65535.0
18151.67417624948,-1094.4918212890625,434.90142822265625,23.340200424194336,-1318.019775390625,-23.47943878173828,54.35550308227539,17.90100860595703,73.93482971191406,-25.55322265625,65535.0
18151.674576258032,-1094.110107421875,440.8945007324219,23.589773178100586,-1322.3062744140625,-29.453765869140625,44.336509704589844,11.948143005371094,67.65521240234375,-42.44021987915039,65535.0
18151.674976266586,-1115.96875,445.5968322753906,35.08928298950195,-1311.974365234375,-33.114524841308594,38.01948547363281,9.14148235321045,63.07656478881836,-35.267696380615234,65535.0
18151.675376275136,-1132.0166015625,438.5224914550781,27.61302947998047,-1298.7572021484375,-44.54207229614258,24.377199172973633,-0.9163914322853088,53.25489044189453,-25.559406280517578,65535.0
18151.67577628369,-1163.9796142578125,443.173828125,14.79686164855957,-1291.718994140625,-36.72386932373047,36.207454681396484,7.180796146392822,63.49677276611328,-23.34760856628418,65535.0
18151.676176292243,-1192.955322265625,450.8241882324219,13.75079345703125,-1293.572509765625,-30.218616485595703,40.66246795654297,13.626105308532715,67.00261688232422,-10.01327896118164,65535.0
18151.676576300793,-1182.5972900390625,444.5047607421875,20.754924774169922,-1297.2283935546875,-46.58385467529297,24.168476104736328,-5.316935062408447,50.092506408691406,-25.49395751953125,65535.0
18151.676976309347,-1164.2418212890625,441.1987609863281,9.876757621765137,-1306.26318359375,-47.60259246826172,22.374496459960938,-4.910443305969238,52.22926712036133,-21.58601188659668,65535.0
18151.6773763179,-1151.5108642578125,441.1824035644531,10.77242660522461,-1326.2027587890625,-40.53516387939453,26.688100814819336,3.599250316619873,57.28166198730469,-25.094013214111328,65535.0
18151.677776326454,-1151.97998046875,440.7170104980469,11.093168258666992,-1349.9747314453125,-34.23378372192383,35.7207145690918,8.12630558013916,63.93986129760742,-25.284427642822266,65535.0
18151.678176335005,-1162.989013671875,445.1495666503906,6.66763162612915,-1383.6968994140625,-26.699382781982422,47.197418212890625,16.718595504760742,71.4000015258789,-32.076194763183594,65535.0
18151.67857634356,-1175.6639404296875,444.1058654785156,1.6031543016433716,-1380.7117919921875,-34.74114227294922,38.54113006591797,6.450329303741455,64.00174713134766,-27.076515197753906,65535.0
18151.678976352112,-1191.4974365234375,436.81353759765625,5.347659111022949,-1377.3804931640625,-32.275264739990234,39.680747985839844,8.772273063659668,66.30593872070312,-17.71787452697754,65535.0
18151.679376360662,-1202.4251708984375,443.8433837890625,6.497592926025391,-1371.7513427734375,-32.87678146362305,42.28533172607422,12.739262580871582,67.80904388427734,-24.163503646850586,65535.0
18151.679776369216,-1199.98828125,435.1703796386719,-5.481934547424316,-1348.2760009765625,-26.945402145385742,45.62643051147461,14.343441009521484,67.40190124511719,-33.08004379272461,65535.0
18151.68017637777,-1198.55322265625,425.120361328125,1.95283842086792,-1356.6015625,-25.98388671875,49.860660552978516,16.305986404418945,69.9676513671875,-8.116937637329102,65535.0
18151.68057638632,-1197.4661865234375,424.1233215332031,1.5877110958099365,-1372.5869140625,-29.37359619140625,50.364925384521484,14.909788131713867,70.23170471191406,-26.61233901977539,65535.0
18151.680976394873,-1194.498291015625,429.5540466308594,-0.336620956659317,-1378.3236083984375,-38.836605072021484,40.77400207519531,5.689280033111572,61.31726837158203,-30.684072494506836,65535.0
18151.681376403427,-1187.444580078125,420.61602783203125,-1.6861242055892944,-1386.4459228515625,-37.750160217285156,34.365299224853516,2.662029266357422,57.79298782348633,-22.055139541625977,65535.0
18151.68177641198,-1177.9697265625,413.213134765625,-3.187195301055908,-1412.4375,-35.48176574707031,42.37753677368164,8.42590045928955,61.900901794433594,-23.169483184814453,65535.0
18151.68217642053,-1187.6705322265625,416.15997314453125,0.29753807187080383,-1416.3837890625,-41.011741638183594,40.045963287353516,2.321446418762207,58.398033142089844,-32.59650802612305,65535.0
18151.682576429084,-1201.0347900390625,411.8428649902344,-7.384242534637451,-1411.21240234375,-30.218564987182617,52.596458435058594,11.637006759643555,69.30158233642578,-18.549734115600586,65535.0
18151.682976437638,-1215.343505859375,404.25970458984375,-16.519804000854492,-1371.28369140625,-22.055208206176758,62.262149810791016,21.011844635009766,75.40008544921875,-22.79424285888672,65535.0
18151.683376446188,-1233.0067138671875,410.1775817871094,-19.572046279907227,-1335.4324951171875,-21.513011932373047,65.38446807861328,22.18543815612793,76.12380981445312,-30.466962814331055,65535.0
18151.68377645474,-1244.5369873046875,401.781982421875,-25.064208984375,-1306.6473388671875,-22.186935424804688,63.667850494384766,20.20132827758789,73.3608627319336,-14.87147331237793,65535.0
18151.684176463295,-1237.1806640625,403.08758544921875,-17.01585578918457,-1273.5966796875,-31.914749145507812,54.89790725708008,9.25389575958252,66.16127014160156,-10.105691909790039,65535.0
18151.68457647185,-1229.881591796875,401.97540283203125,-9.530405044555664,-1243.46240234375,-15.082986831665039,72.15703582763672,26.594371795654297,81.98561096191406,-18.940279006958008,65535.0
18151.6849764804,-1220.441650390625,397.6025085449219,-12.03945541381836,-1231.200927734375,-21.486892700195312,66.3577651977539,19.992380142211914,75.489013671875,-10.375325202941895,65535.0
18151.685376488953,-1229.0914306640625,395.12237548828125,-21.43885612487793,-1233.1407470703125,-18.550325393676758,73.78516387939453,26.291553497314453,82.0377197265625,-27.26723861694336,65535.0
18151.685776497507,-1247.498779296875,397.7528381347656,-19.2252140045166,-1276.9324951171875,-14.627323150634766,78.37642669677734,29.404157638549805,80.26119232177734,-23.577224731445312,65535.0
18151.686176506057,-1253.633056640625,405.9175109863281,-15.856916427612305,-1317.61572265625,-22.225440979003906,68.26484680175781,18.109724044799805,73.9750747680664,-24.24749183654785,65535.0
18151.68657651461,-1266.3065185546875,410.4463806152344,-26.36903190612793,-1326.837646484375,-24.82613182067871,63.69015884399414,16.455217361450195,72.42833709716797,-35.55612564086914,65535.0
18151.686976523164,-1277.313232421875,411.36285400390625,-21.723318099975586,-1295.708740234375,-26.6568603515625,61.33271789550781,15.746158599853516,72.80557250976562,-33.25541687011719,65535.0
18151.687376531718,-1264.61474609375,414.74676513671875,-10.098031997680664,-1243.82568359375,-11.329317092895508,78.82904815673828,27.653261184692383,83.627685546875,-11.563563346862793,65535.0
18151.687776540268,-1251.212890625,412.5838928222656,-9.37450885772705,-1224.8040771484375,-11.960138320922852,84.15438079833984,30.85771942138672,85.92408752441406,-26.39162254333496,65535.0
18151.68817654882,-1249.6212158203125,420.2967224121094,-4.360450744628906,-1220.1409912109375,-20.10857582092285,70.95323944091797,21.00133514404297,78.0501937866211,-26.07602310180664,65535.0
18151.688576557375,-1238.9478759765625,416.2954406738281,1.387602686882019,-1220.027587890625,-17.80561065673828,71.9122085571289,22.75551414489746,78.71778869628906,-26.044715881347656,65535.0
18151.688976565925,-1217.1810302734375,414.46575927734375,3.4049887657165527,-1253.66064453125,-26.55353546142578,65.2668685913086,16.15711212158203,72.502197265625,-24.5815372467041,65535.0
18151.68937657448,-1194.80615234375,414.2557678222656,-5.374836444854736,-1307.24755859375,-22.660358428955078,66.55394744873047,20.013671875,76.0116195678711,-15.496204376220703,65535.0
18151.689776583033,-1167.95458984375,419.7774963378906,-6.088339328765869,-1331.141845703125,-22.04270362854004,66.197998046875,17.689298629760742,73.69133758544922,-17.791404724121094,65535.0
18151.690176591586,-1149.867431640625,430.30926513671875,3.2761077880859375,-1342.7208251953125,-27.40068817138672,59.40270233154297,14.65211296081543,69.20333862304688,-21.362268447875977,65535.0
18151.690576600136,-1159.383544921875,437.9287414550781,9.865066528320312,-1314.3514404296875,-14.031190872192383,72.0744400024414,26.924646377563477,81.38848114013672,-21.719343185424805,65535.0
18151.69097660869,-1161.2230224609375,437.6397399902344,1.5067780017852783,-1288.509765625,-32.15006637573242,54.531494140625,11.71241283416748,66.2658920288086,-16.219436645507812,65535.0
18151.691376617244,-1171.0650634765625,438.0666809082031,2.877297878265381,-1255.540283203125,-27.85814094543457,55.91136932373047,16.022266387939453,71.48284912109375,-29.846210479736328,65535.0
18151.691776625794,-1184.2518310546875,442.48907470703125,11.863700866699219,-1257.833984375,-12.269810676574707,72.51773071289062,27.482940673828125,85.64409637451172,-24.145221710205078,65535.0
18151.692176634348,-1182.790283203125,441.1901550292969,6.986728668212891,-1289.0421142578125,-22.10223388671875,61.71586227416992,20.148578643798828,76.36790466308594,-24.422346115112305,65535.0
18151.6925766429,-1162.603759765625,439.4503479003906,9.65590763092041,-1338.1014404296875,-28.521835327148438,49.643341064453125,13.619373321533203,64.73297882080078,-31.79022789001465,65535.0
18151.692976651455,-1154.2047119140625,442.2764587402344,10.127508163452148,-1371.4520263671875,-33.9152946472168,46.76470184326172,10.000749588012695,66.4451904296875,-26.016796112060547,65535.0
18151.693376660005,-1140.5430908203125,439.10797119140625,3.272425413131714,-1394.02734375,-33.93779754638672,46.43395233154297,8.017611503601074,64.70662689208984,-38.94244384765625,65535.0
18151.69377666856,-1136.1328125,440.5929870605469,15.276201248168945,-1390.7308349609375,-33.418270111083984,44.379638671875,7.189167022705078,63.511539459228516,-36.708160400390625,65535.0
18151.694176677112,-1141.53662109375,440.2380065917969,7.059635639190674,-1385.996826171875,-31.449308395385742,45.94502258300781,10.230284690856934,67.2773666381836,-32.61725616455078,65535.0
18151.694576685662,-1147.197509765625,435.352294921875,11.260685920715332,-1401.44091796875,-41.347999572753906,35.088134765625,0.30752497911453247,53.81447982788086,-24.554458618164062,65535.0
18151.694976694216,-1160.8990478515625,436.83642578125,14.464153289794922,-1407.862060546875,-41.24725341796875,29.537578582763672,0.9217507839202881,54.34344482421875,-30.581932067871094,65535.0
18151.69537670277,-1180.3480224609375,438.24444580078125,10.57793140411377,-1397.1812744140625,-45.24348449707031,24.900482177734375,-1.1954984664916992,53.77313232421875,-40.94922637939453,65535.0
18151.695776711324,-1168.1497802734375,444.43817138671875,10.331392288208008,-1427.222900390625,-36.730369567871094,32.343711853027344,3.3192520141601562,61.65724182128906,-33.61632537841797,65535.0
18151.696176719874,-1174.8349609375,439.93499755859375,19.579212188720703,-1457.0958251953125,-34.674102783203125,37.49481201171875,7.650511264801025,65.6405258178711,-21.651954650878906,65535.0
18151.696576728427,-1167.149658203125,436.5120849609375,4.119109153747559,-1442.0567626953125,-41.7110710144043,28.720136642456055,4.249591827392578,57.34422302246094,-20.23436737060547,65535.0
18151.69697673698,-1153.8778076171875,433.5337219238281,-0.7817450761795044,-1444.4217529296875,-40.72346496582031,29.672916412353516,0.5053545236587524,56.70802688598633,-32.540592193603516,65535.0
18151.69737674553,-1172.9737548828125,440.5633850097656,4.035729885101318,-1432.191650390625,-34.311336517333984,38.50252914428711,9.001226425170898,65.66546630859375,-30.75115203857422,65535.0
18151.697776754085,-1156.4599609375,441.838134765625,8.015488624572754,-1429.87939453125,-35.432559967041016,35.745059967041016,8.153749465942383,61.857147216796875,-29.10426139831543,65535.0
18151.69817676264,-1142.5118408203125,427.5992736816406,10.32805347442627,-1403.9454345703125,-33.382694244384766,35.8899040222168,6.1218743324279785,64.2450942993164,-28.71709632873535,65535.0
18151.698576771192,-1159.423095703125,437.3904724121094,-1.9325796365737915,-1392.01025390625,-37.10542678833008,37.22073745727539,7.4600510597229,63.211509704589844,-24.697175979614258,65535.0
18151.698976779742,-1179.8717041015625,435.74530029296875,5.400861740112305,-1397.76513671875,-38.46833038330078,36.37576675415039,5.5435943603515625,59.90376663208008,-24.33735466003418,65535.0
18151.699376788296,-1191.8988037109375,428.650390625,4.120360374450684,-1381.718017578125,-33.823856353759766,40.6188850402832,10.883289337158203,63.134639739990234,-34.03080368041992,65535.0
18151.69977679685,-1214.93115234375,436.0546569824219,-4.951800346374512,-1377.5654296875,-29.380836486816406,44.936553955078125,11.89005184173584,68.97483825683594,-22.178424835205078,65535.0
18151.7001768054,-1235.0352783203125,422.7136535644531,-7.41135835647583,-1367.6856689453125,-33.47045135498047,44.80770492553711,10.449789047241211,65.38418579101562,-19.62625503540039,65535.0
18151.700576813953,-1250.48095703125,421.1922607421875,-9.125396728515625,-1353.49072265625,-32.40071487426758,43.78611373901367,7.386919975280762,65.63314056396484,-28.140262603759766,65535.0
18151.700976822507,-1242.2177734375,421.7342529296875,-3.5030887126922607,-1360.692138671875,-28.0615234375,50.49557113647461,11.606975555419922,68.4604263305664,-23.828231811523438,65535.0
18151.70137683106,-1246.6063232421875,420.0787658691406,-1.0542856454849243,-1367.6632080078125,-21.327617645263672,61.72842788696289,20.48395538330078,74.93264770507812,-23.2739200592041,65535.0
18151.70177683961,-1258.16845703125,416.322265625,0.6503936648368835,-1372.3372802734375,-22.15977668762207,60.75242233276367,17.626399993896484,75.6306381225586,-29.686634063720703,65535.0
18151.702176848165,-1262.5211181640625,409.04541015625,-5.518398284912109,-1364.5865478515625,-33.96165466308594,47.9940185546875,6.337926864624023,65.27149200439453,-15.454612731933594,65535.0
18151.70257685672,-1277.552001953125,405.66876220703125,-4.520345211029053,-1383.37060546875,-26.162796020507812,56.49458312988281,15.107074737548828,74.06522369384766,-29.456741333007812,65535.0
18151.70297686527,-1268.47412109375,397.88037109375,-6.347832202911377,-1399.51220703125,-20.83264923095703,67.80339050292969,22.32913589477539,78.15625762939453,-31.947254180908203,65535.0
18151.703376873822,-1272.987060546875,403.7158508300781,-9.607776641845703,-1392.6031494140625,-17.87963104248047,72.00334930419922,25.365522384643555,83.1485366821289,-26.278770446777344,65535.0
18151.703776882376,-1262.423828125,405.6268615722656,2.120774507522583,-1389.962646484375,-21.27535057067871,69.03028869628906,22.418115615844727,78.80148315429688,-28.0239200592041,65535.0
18151.70417689093,-1242.46826171875,405.6069641113281,7.1966729164123535,-1380.538818359375,-25.309877395629883,68.58187103271484,19.08648681640625,75.80359649658203,-12.54907512664795,65535.0
18151.70457689948,-1238.9437255859375,399.61083984375,-3.2572109699249268,-1387.1783447265625,-21.370771408081055,70.19418334960938,21.862648010253906,78.11064910888672,-14.437459945678711,65535.0
18151.704976908033,-1234.3497314453125,395.52581787109375,-9.195818901062012,-1387.3436279296875,-17.830591201782227,74.36339569091797,25.089815139770508,80.00373077392578,-24.758586883544922,65535.0
18151.705376916587,-1234.624755859375,399.8305358886719,-8.581574440002441,-1375.54248046875,-10.783307075500488,83.84005737304688,32.28899002075195,88.57581329345703,-20.835914611816406,65535.0
18151.705776925137,-1222.19677734375,399.0652770996094,-7.090670585632324,-1387.4591064453125,-11.5353422164917,85.76575469970703,33.601295471191406,88.34415435791016,-26.916276931762695,65535.0
18151.70617693369,-1209.057373046875,397.8339538574219,-20.82264518737793,-1394.474853515625,-9.763806343078613,87.32086181640625,32.11670684814453,90.71025085449219,-36.252227783203125,65535.0
18151.706576942244,-1193.119384765625,398.2723388671875,-9.476733207702637,-1404.7901611328125,-18.78417205810547,79.35723114013672,25.649295806884766,81.1863784790039,-24.154733657836914,65535.0
18151.706976950798,-1183.284912109375,408.8812561035156,-1.2419307231903076,-1438.4925537109375,-17.166812896728516,77.11962890625,23.376991271972656,80.84323120117188,-24.82853889465332,65535.0
18151.707376959348,-1180.5152587890625,411.8790588378906,-12.416033744812012,-1433.2557373046875,-18.89806365966797,76.16203308105469,23.848249435424805,78.43283081054688,-32.47548294067383,65535.0
18151.7077769679,-1174.6365966796875,420.7757873535156,-12.303872108459473,-1431.5208740234375,-16.880081176757812,80.22992706298828,24.624191284179688,82.19940948486328,-34.7340202331543,65535.0
18151.708176976455,-1166.2850341796875,419.4353332519531,-2.4250426292419434,-1421.131591796875,-7.771827697753906,88.4710922241211,33.82037353515625,89.93968200683594,-35.162193298339844,65535.0
18151.708576985005,-1160.7818603515625,423.8053894042969,-8.50048542022705,-1400.6937255859375,-8.801965713500977,85.5528335571289,34.31379699707031,88.42748260498047,-35.920494079589844,65535.0
18151.70897699356,-1174.15966796875,435.0909423828125,-1.5585157871246338,-1397.591796875,-8.041129112243652,85.15487670898438,35.13630294799805,89.07231140136719,-19.662418365478516,65535.0
18151.709377002113,-1169.3607177734375,445.44873046875,8.989123344421387,-1384.9505615234375,-7.648045063018799,87.40245819091797,35.41422653198242,90.4420166015625,-37.10472869873047,65535.0
18151.709777010667,-1146.6131591796875,432.9957275390625,4.094438076019287,-1378.570068359375,-6.077290058135986,87.94580078125,36.96882629394531,91.83212280273438,-20.6259822845459,65535.0
18151.710177019217,-1138.4786376953125,432.1800842285156,5.992750644683838,-1368.837158203125,-7.640020847320557,84.1243896484375,34.396244049072266,91.65575408935547,-33.343204498291016,65535.0
18151.71057702777,-1148.3790283203125,431.1881103515625,7.610995292663574,-1376.5528564453125,-15.747190475463867,73.75908660888672,24.285343170166016,80.13992309570312,-22.369159698486328,65535.0
18151.710977036324,-1147.333740234375,436.1080627441406,1.3996591567993164,-1376.36083984375,-8.226648330688477,81.56758117675781,34.40795135498047,89.76024627685547,-13.791540145874023,65535.0
18151.711377044874,-1147.1617431640625,437.7423400878906,-2.983304738998413,-1368.4588623046875,-9.69495677947998,80.21369171142578,33.82406234741211,89.75374603271484,-31.06505012512207,65535.0
18151.711777053428,-1146.443359375,432.23468017578125,7.426209449768066,-1367.63037109375,-19.25446319580078,68.67919921875,25.249223709106445,78.91688537597656,-29.279565811157227,65535.0
18151.71217706198,-1138.573974609375,433.9021911621094,4.226980686187744,-1363.9161376953125,-15.589471817016602,69.99122619628906,28.153268814086914,84.00865173339844,-26.594160079956055,65535.0
18151.712577070535,-1144.4381103515625,434.4364929199219,10.50232982635498,-1357.9019775390625,-7.946086883544922,75.55147552490234,33.59061813354492,92.17214965820312,-23.80925941467285,65535.0
18151.712977079085,-1165.5478515625,439.3972473144531,15.297226905822754,-1340.3582763671875,-16.461135864257812,65.1296157836914,24.063379287719727,81.10160064697266,-14.523736953735352,65535.0
18151.71337708764,-1180.203125,444.08856201171875,4.953511714935303,-1338.730712890625,-27.124744415283203,51.007442474365234,13.468307495117188,72.33390808105469,-29.981157302856445,65535.0
18151.713777096193,-1197.1180419921875,446.4957580566406,8.567105293273926,-1340.6365966796875,-27.173004150390625,52.68653106689453,17.837106704711914,73.82290649414062,-28.374216079711914,65535.0
18151.714177104743,-1209.6326904296875,445.19488525390625,9.25178050994873,-1330.2752685546875,-24.517915725708008,51.30157470703125,17.57263946533203,71.49407958984375,-29.657541275024414,65535.0
18151.714577113296,-1201.7244873046875,448.714599609375,10.409810066223145,-1322.1776123046875,-30.47971534729004,43.386024475097656,9.970550537109375,64.99063873291016,-22.010923385620117,65535.0
18151.71497712185,-1197.326416015625,451.3989562988281,13.352866172790527,-1318.7811279296875,-37.36191177368164,35.541805267333984,3.9242067337036133,62.097721099853516,-25.353466033935547,65535.0
18151.715377130404,-1185.9332275390625,447.9928283691406,6.519855976104736,-1315.119384765625,-38.1556282043457,31.86993408203125,6.3157172203063965,62.3056640625,-33.0356559753418,65535.0
18151.715777138954,-1163.48046875,452.9148254394531,12.643851280212402,-1313.719482421875,-30.687026977539062,36.65351486206055,8.188021659851074,65.1761703491211,-28.813865661621094,65535.0
18151.716177147508,-1157.5491943359375,444.60113525390625,4.258795738220215,-1314.2626953125,-32.3123664855957,39.969058990478516,11.487850189208984,66.64816284179688,-24.433595657348633,65535.0
18151.71657715606,-1156.914794921875,437.8428955078125,-3.4728314876556396,-1335.6722412109375,-29.134246826171875,41.66419982910156,12.794609069824219,69.21723937988281,-29.787872314453125,65535.0
18151.71697716461,-1144.839599609375,429.5448913574219,-6.770999431610107,-1351.737548828125,-31.097806930541992,40.210567474365234,11.390247344970703,69.89742279052734,-30.138286590576172,65535.0
18151.717377173165,-1132.74560546875,428.6667785644531,-4.076003551483154,-1370.0789794921875,-33.35997772216797,38.37718200683594,7.145471096038818,65.4869155883789,-22.05533218383789,65535.0
18151.71777718172,-1131.1669921875,431.1066589355469,-3.6975831985473633,-1386.943115234375,-32.62446212768555,37.187705993652344,6.729100704193115,64.18354034423828,-27.530033111572266,65535.0
18151.718177190272,-1119.8807373046875,419.7567138671875,-0.599796712398529,-1395.6104736328125,-29.527555465698242,41.95746994018555,9.94141674041748,68.0265884399414,-37.73342514038086,65535.0
18151.718577198822,-1125.2698974609375,427.1824645996094,-10.679479598999023,-1387.0164794921875,-37.02900695800781,35.55747985839844,6.977571964263916,59.98789596557617,-33.664405822753906,65535.0
18151.718977207376,-1154.23046875,423.90496826171875,-25.300874710083008,-1377.2440185546875,-31.363040924072266,38.53185272216797,9.202198028564453,65.65943145751953,-20.824007034301758,65535.0
18151.71937721593,-1161.2449951171875,424.2498474121094,-18.39103126525879,-1370.912109375,-28.811193466186523,43.109962463378906,10.96624755859375,68.88561248779297,-40.92061233520508,65535.0
18151.71977722448,-1171.9495849609375,423.1962890625,-14.68514347076416,-1359.081787109375,-28.164485931396484,47.606834411621094,12.736383438110352,70.21403503417969,-34.94975280761719,65535.0
18151.720177233034,-1181.9674072265625,416.969482421875,-21.042720794677734,-1362.740966796875,-15.718716621398926,61.7221794128418,22.678028106689453,80.70101165771484,-17.756742477416992,65535.0
18151.720577241587,-1205.58935546875,411.7236022949219,-14.52095890045166,-1357.9945068359375,-15.433642387390137,62.40792465209961,25.98102378845215,81.55235290527344,-27.99054718017578,65535.0
18151.72097725014,-1213.1702880859375,403.4120178222656,-11.370253562927246,-1363.6607666015625,-18.429187774658203,61.52760314941406,23.173002243041992,80.725830078125,-35.3942756652832,65535.0
18151.72137725869,-1225.4793701171875,407.59442138671875,-10.402931213378906,-1356.021728515625,-23.175106048583984,57.09760284423828,18.25514793395996,73.34803009033203,-16.37195587158203,65535.0
18151.721777267245,-1230.80078125,399.5426940917969,-17.61496925354004,-1373.82373046875,-35.34674835205078,44.6036376953125,8.256815910339355,63.250953674316406,-20.335330963134766,65535.0
18151.7221772758,-1231.923828125,405.90301513671875,-11.043469429016113,-1397.001953125,-36.611724853515625,43.82014846801758,6.43897008895874,61.136817932128906,-24.352535247802734,65535.0
18151.72257728435,-1232.1632080078125,407.6267395019531,-20.038352966308594,-1418.5369873046875,-24.799903869628906,58.02644348144531,17.705013275146484,74.81378173828125,-5.434859275817871,65535.0
18151.722977292902,-1241.4161376953125,396.44024658203125,-35.52147674560547,-1426.5277099609375,-24.474782943725586,60.763980865478516,18.783090591430664,75.4880599975586,-26.061460494995117,65535.0
18151.723377301456,-1260.625244140625,390.2288818359375,-23.25908851623535,-1421.9945068359375,-30.037460327148438,54.80491638183594,10.978995323181152,68.01373291015625,-26.18112564086914,65535.0
18151.72377731001,-1269.8349609375,400.44403076171875,-43.3293342590332,-1419.248291015625,-30.870223999023438,56.38636779785156,12.275296211242676,70.5314712524414,-31.896533966064453,65535.0
18151.72417731856,-1260.162109375,401.2276611328125,-31.450702667236328,-1404.9315185546875,-28.98729705810547,56.877140045166016,13.019023895263672,71.13485717773438,-27.886310577392578,65535.0
18151.724577327113,-1258.5880126953125,402.5506896972656,-21.61111068725586,-1413.667724609375,-21.86187744140625,65.25752258300781,18.915945053100586,75.91793823242188,-25.211673736572266,65535.0
18151.724977335667,-1271.924072265625,395.8817443847656,-38.0401496887207,-1405.7891845703125,-19.285974502563477,69.91564178466797,22.001802444458008,80.06621551513672,-15.293280601501465,65535.0
18151.725377344217,-1274.2818603515625,390.4980773925781,-34.38334274291992,-1395.4305419921875,-24.15726089477539,66.20047760009766,18.180130004882812,73.77011108398438,-22.640562057495117,65535.0
18151.72577735277,-1287.3470458984375,393.52716064453125,-28.101322174072266,-1409.65283203125,-23.186628341674805,66.76546478271484,19.57326316833496,73.60093688964844,-20.950237274169922,65535.0
18151.726177361325,-1306.2796630859375,409.0848388671875,-28.2476749420166,-1405.6123046875,-15.415892601013184,78.71613311767578,29.8552188873291,84.32506561279297,-18.72535514831543,65535.0
18151.72657736988,-1301.3885498046875,399.4674987792969,-34.39204025268555,-1410.2667236328125,-23.335134506225586,73.77948760986328,21.000667572021484,77.45904541015625,-39.07844543457031,65535.0
18151.72697737843,-1265.88525390625,383.5836181640625,-27.460426330566406,-1396.8634033203125,-23.701488494873047,70.49592590332031,17.61625862121582,74.07427978515625,-23.7050838470459,65535.0
18151.727377386982,-1247.9228515625,398.4851379394531,-23.440345764160156,-1381.09375,-11.723133087158203,82.20243072509766,29.03155517578125,84.65769958496094,-25.025705337524414,65535.0
18151.727777395536,-1247.28076171875,400.678955078125,-25.892295837402344,-1372.0489501953125,-18.474781036376953,76.70720672607422,23.802705764770508,79.10627746582031,-21.706510543823242,65535.0
18151.728177404086,-1242.23291015625,398.253173828125,-25.772075653076172,-1367.2108154296875,-32.71206283569336,57.08236312866211,9.955696105957031,67.02645111083984,-18.049589157104492,65535.0
18151.72857741264,-1238.4178466796875,409.8782958984375,-6.385932922363281,-1369.35546875,-19.43336296081543,68.15301513671875,21.692909240722656,78.65682220458984,-29.591320037841797,65535.0
18151.728977421193,-1215.3634033203125,410.3077087402344,-12.274820327758789,-1358.5263671875,-17.17529296875,74.37527465820312,25.560829162597656,80.82271575927734,-26.60086441040039,65535.0
18151.729377429747,-1202.494873046875,399.5914001464844,-20.785932540893555,-1353.2418212890625,-22.915143966674805,66.41228485107422,16.34203338623047,75.54370880126953,-31.950782775878906,65535.0
18151.729777438297,-1216.7484130859375,400.11444091796875,-4.686631202697754,-1355.5494384765625,-22.770923614501953,62.34226989746094,17.27771759033203,73.2483139038086,-21.2514705657959,65535.0
18151.73017744685,-1222.184326171875,400.6305847167969,-3.3251612186431885,-1349.29248046875,-32.99268341064453,53.00409698486328,9.03784465789795,64.15619659423828,-26.623897552490234,65535.0
18151.730577455404,-1216.3402099609375,403.1331481933594,-14.373320579528809,-1338.0596923828125,-30.965625762939453,54.48173522949219,13.129345893859863,69.40225219726562,-41.34142303466797,65535.0
18151.730977463954,-1205.942138671875,405.4693603515625,-1.5517696142196655,-1358.874267578125,-21.859729766845703,63.426116943359375,21.05467414855957,76.38673400878906,-41.32041549682617,65535.0
18151.731377472508,-1200.6876220703125,408.6964111328125,3.8153367042541504,-1396.845947265625,-25.025310516357422,64.1976318359375,22.260765075683594,76.18688201904297,-31.222597122192383,65535.0
18151.73177748106,-1221.65771484375,411.5277099609375,-9.676268577575684,-1407.8990478515625,-25.994094848632812,61.07194137573242,21.113344192504883,73.37435913085938,-19.391950607299805,65535.0
18151.732177489615,-1239.7230224609375,427.8643798828125,-9.544288635253906,-1406.34619140625,-22.86849021911621,60.5010871887207,17.91865348815918,74.55095672607422,-15.469993591308594,65535.0
18151.732577498165,-1250.9359130859375,421.74114990234375,-4.7947235107421875,-1426.75048828125,-26.308757781982422,57.872047424316406,15.058797836303711,72.30353546142578,-26.1332950592041,65535.0
18151.73297750672,-1281.2113037109375,425.52880859375,-10.994614601135254,-1424.4473876953125,-15.608211517333984,63.940956115722656,26.166534423828125,83.00030517578125,-31.995161056518555,65535.0
18151.733377515273,-1295.4334716796875,428.0172424316406,-11.797643661499023,-1432.4334716796875,-27.851083755493164,53.38959884643555,14.674543380737305,72.20260620117188,-32.55068588256836,65535.0
18151.733777523823,-1270.6129150390625,423.4207763671875,-5.376036167144775,-1461.8970947265625,-30.8189640045166,49.13821029663086,14.7011079788208,68.93622589111328,-25.972637176513672,65535.0
18151.734177532377,-1249.665283203125,424.900390625,-3.7422797679901123,-1469.2486572265625,-26.159547805786133,48.98385238647461,16.83301544189453,72.01763916015625,-29.353506088256836,65535.0
18151.73457754093,-1221.060546875,419.1962890625,-1.8500725030899048,-1489.740478515625,-25.671344757080078,50.81801986694336,17.54355812072754,73.3865737915039,-22.807430267333984,65535.0
18151.734977549484,-1187.453369140625,411.2565002441406,3.0668201446533203,-1491.7921142578125,-25.716344833374023,51.63457489013672,17.262691497802734,72.41053771972656,-22.15401840209961,65535.0
18151.735377558034,-1161.0472412109375,422.2707824707031,6.073581218719482,-1474.2542724609375,-22.060590744018555,51.53205108642578,18.860382080078125,73.88290405273438,-22.94844627380371,65535.0
18151.735777566588,-1147.52734375,417.2907409667969,0.7016834020614624,-1451.4818115234375,-39.645469665527344,35.91347885131836,6.200688362121582,61.20204162597656,-16.51156997680664,65535.0
18151.73617757514,-1135.513427734375,414.2340087890625,-2.944033622741699,-1413.79443359375,-30.92070198059082,39.93181228637695,13.051666259765625,67.04203033447266,-24.066574096679688,65535.0
18151.73657758369,-1155.091552734375,417.1473693847656,-12.674412727355957,-1402.70068359375,-21.306377410888672,49.323265075683594,19.369873046875,74.05113220214844,-30.358707427978516,65535.0
18151.736977592245,-1169.2509765625,410.1581726074219,-13.3014554977417,-1397.14306640625,-31.135068893432617,41.09626770019531,11.901455879211426,67.32056427001953,-31.62321662902832,65535.0
18151.7373776008,-1172.834716796875,405.2388916015625,-4.418210029602051,-1404.0054931640625,-27.080080032348633,44.58723449707031,16.05957794189453,69.4759750366211,-15.82612419128418,65535.0
18151.737777609353,-1161.72119140625,403.2610168457031,-11.113369941711426,-1409.92041015625,-22.303770065307617,51.34778594970703,19.311479568481445,74.16524505615234,-16.95255470275879,65535.0
18151.738177617903,-1162.958984375,403.63232421875,-1.1314493417739868,-1401.1092529296875,-20.97325325012207,50.47164535522461,21.281572341918945,78.19725799560547,-35.01209259033203,65535.0
18151.738577626456,-1160.958984375,397.5564880371094,-3.7735729217529297,-1384.962646484375,-24.352182388305664,47.877479553222656,18.357275009155273,73.87273406982422,-21.89911651611328,65535.0
18151.73897763501,-1172.126708984375,400.7541809082031,-19.132022857666016,-1363.646484375,-21.18414306640625,56.71544647216797,22.77039337158203,78.0735855102539,-39.15409469604492,65535.0
18151.73937764356,-1182.4678955078125,404.03399658203125,-14.245325088500977,-1360.4951171875,-28.398591995239258,51.530853271484375,14.519942283630371,72.17579650878906,-35.88283157348633,65535.0
18151.739777652114,-1171.5888671875,404.3282165527344,-9.978346824645996,-1357.0272216796875,-31.692218780517578,42.209747314453125,8.28227424621582,67.40205383300781,-17.64661979675293,65535.0
18151.740177660668,-1164.27392578125,405.06494140625,-10.442490577697754,-1368.257080078125,-19.848323822021484,56.378440856933594,23.14678192138672,76.22859954833984,-19.538652420043945,65535.0
18151.74057766922,-1158.6654052734375,398.7062683105469,-14.225900650024414,-1371.2698974609375,-33.88631057739258,42.40864181518555,8.593113899230957,62.38031005859375,-19.372037887573242,65535.0
18151.74097767777,-1149.27294921875,393.3179931640625,-9.74281120300293,-1380.935791015625,-33.49855422973633,40.781776428222656,8.70827579498291,66.32868194580078,-35.63035583496094,65535.0
18151.741377686325,-1154.3048095703125,394.47283935546875,-11.230224609375,-1393.5218505859375,-28.99490737915039,48.337459564208984,11.278267860412598,69.78242492675781,-25.68263053894043,65535.0
18151.74177769488,-1165.603515625,387.0731201171875,-15.621191024780273,-1408.7633056640625,-21.96053695678711,56.34036636352539,21.259572982788086,74.8665771484375,-25.79108238220215,65535.0
18151.74217770343,-1176.213134765625,374.6890563964844,-13.134943008422852,-1422.3367919921875,-20.585582733154297,62.83595275878906,24.962411880493164,78.64865112304688,-21.55487823486328,65535.0
18151.742577711982,-1169.4229736328125,368.29559326171875,-25.559053421020508,-1412.9827880859375,-27.196420669555664,53.728885650634766,18.713401794433594,71.71907043457031,-22.76511573791504,65535.0
18151.742977720536,-1177.4932861328125,357.19696044921875,-29.553966522216797,-1393.8197021484375,-21.917272567749023,62.78271484375,22.011478424072266,73.58084869384766,-17.40739631652832,65535.0
18151.74337772909,-1175.800048828125,355.78271484375,-24.14834213256836,-1391.9130859375,-20.96352195739746,68.25079345703125,23.515399932861328,78.90979766845703,-8.188333511352539,65535.0
18151.74377773764,-1190.7008056640625,346.3515930175781,-28.731239318847656,-1395.623046875,-11.787038803100586,75.2632064819336,28.091554641723633,86.5849609375,-23.81538963317871,65535.0
18151.744177746194,-1196.3043212890625,355.4989318847656,-29.778059005737305,-1371.807861328125,-17.077342987060547,73.52559661865234,27.268661499023438,84.23747253417969,-20.8147029876709,65535.0
18151.744577754747,-1195.4678955078125,349.5146789550781,-32.27503204345703,-1333.279296875,-14.098564147949219,80.1327133178711,29.526269912719727,87.50540161132812,-17.371341705322266,65535.0
18151.744977763297,-1210.625244140625,356.3188781738281,-40.75176239013672,-1303.31591796875,-17.007137298583984,76.76538848876953,26.437957763671875,82.35488891601562,-14.277233123779297,65535.0
18151.74537777185,-1222.9625244140625,359.57769775390625,-44.87125778198242,-1291.6090087890625,-9.913139343261719,84.3904037475586,32.334388732910156,88.65088653564453,-18.644681930541992,65535.0
18151.745777780405,-1236.28759765625,364.2967224121094,-37.55596923828125,-1298.8643798828125,-7.828526020050049,89.90709686279297,35.047855377197266,92.02655792236328,-27.40757942199707,65535.0
18151.74617778896,-1250.665771484375,370.0090637207031,-30.882816314697266,-1322.19921875,-12.254764556884766,84.26729583740234,32.33913040161133,87.42118072509766,-11.527520179748535,65535.0
18151.74657779751,-1244.5634765625,369.4642028808594,-35.81882858276367,-1383.2769775390625,-8.522568702697754,83.50238800048828,32.526405334472656,88.5181655883789,-17.33690071105957,65535.0
18151.746977806062,-1252.18408203125,377.5981140136719,-34.78793716430664,-1412.2779541015625,-7.765960693359375,88.80425262451172,37.33872985839844,92.26105499267578,-14.213610649108887,65535.0
18151.747377814616,-1264.638671875,374.50360107421875,-28.86614990234375,-1408.5804443359375,-6.152247428894043,88.35106658935547,36.39826965332031,90.88367462158203,-29.587514877319336,65535.0
18151.747777823166,-1258.8280029296875,381.52130126953125,-36.39362335205078,-1390.8065185546875,-11.812959671020508,81.7095947265625,28.193227767944336,86.21517181396484,-33.19207000732422,65535.0
18151.74817783172,-1232.5736083984375,389.60028076171875,-46.43256759643555,-1380.0208740234375,-8.3511323928833,85.09986114501953,34.019283294677734,93.19963836669922,-33.87704086303711,65535.0
18151.748577840273,-1218.28466796875,378.0846862792969,-30.77265739440918,-1388.211181640625,1.3220651149749756,96.70440673828125,43.550594329833984,101.24586486816406,-27.345767974853516,65535.0
18151.748977848827,-1204.5303955078125,383.0229187011719,-32.631038665771484,-1396.7774658203125,-9.779458045959473,85.42020416259766,34.573020935058594,86.09162139892578,-22.959505081176758,65535.0
18151.749377857377,-1184.510986328125,397.29913330078125,-32.340328216552734,-1396.1534423828125,-9.396272659301758,82.08724975585938,32.91523361206055,87.25434875488281,-22.26529312133789,65535.0
18151.74977786593,-1166.8624267578125,397.1239929199219,-38.1254768371582,-1397.72119140625,1.6563018560409546,93.06816101074219,42.47679138183594,100.74578094482422,-13.779718399047852,65535.0
18151.750177874485,-1151.475341796875,391.506103515625,-33.55879211425781,-1415.5450439453125,-13.480527877807617,81.18523406982422,29.835247039794922,85.4012451171875,-32.59968948364258,65535.0
18151.750577883035,-1136.739013671875,386.90582275390625,-33.788394927978516,-1427.0743408203125,-13.025314331054688,77.09131622314453,29.79909896850586,85.35797119140625,-38.52593231201172,65535.0
18151.75097789159,-1125.2763671875,389.2174377441406,-34.549800872802734,-1409.3262939453125,-13.853918075561523,75.7051010131836,28.398706436157227,83.49197387695312,-15.947525024414062,65535.0
18151.751377900142,-1112.111083984375,397.4888916015625,-33.89046859741211,-1370.4969482421875,-22.844743728637695,61.80402755737305,19.714447021484375,77.86094665527344,-11.251639366149902,65535.0
18151.751777908696,-1101.83349609375,386.8655700683594,-19.675045013427734,-1325.0400390625,-17.300251007080078,66.70227813720703,24.56625747680664,81.39131164550781,-23.424236297607422,65535.0
18151.752177917246,-1090.4107666015625,376.68560791015625,-17.62125587463379,-1292.9527587890625,-9.331109046936035,77.28108978271484,34.94424819946289,88.25772094726562,-19.004531860351562,65535.0
18151.7525779258,-1080.1722412109375,382.0666809082031,-27.180274963378906,-1290.8505859375,-15.797938346862793,70.70912170410156,28.07659339904785,83.69036102294922,-20.79234504699707,65535.0
18151.752977934353,-1071.6407470703125,407.9935607910156,-26.841041564941406,-1300.0816650390625,-21.489168167114258,61.403717041015625,21.725399017333984,79.37507629394531,-19.26239585876465,65535.0
18151.753377942903,-1083.5457763671875,400.884033203125,-30.21035385131836,-1289.132568359375,-27.35006332397461,53.64963912963867,16.555513381958008,70.63318634033203,-16.18670654296875,65535.0
18151.753777951457,-1101.7198486328125,404.68548583984375,-26.86760902404785,-1287.5816650390625,-25.477447509765625,52.99303436279297,18.54770278930664,72.97151184082031,-16.66864585876465,65535.0
18151.75417796001,-1108.5286865234375,409.9056701660156,-25.082195281982422,-1322.3470458984375,-21.967741012573242,56.51091384887695,18.464059829711914,78.56847381591797,-21.794546127319336,65535.0
18151.754577968564,-1108.361572265625,415.69061279296875,-25.663053512573242,-1338.496337890625,-22.068113327026367,54.58746337890625,21.83982276916504,78.08858489990234,-34.08776092529297,65535.0
18151.754977977114,-1109.250732421875,415.14208984375,-26.98311424255371,-1319.426513671875,-25.889095306396484,47.75278854370117,17.755247116088867,70.71372985839844,-27.254371643066406,65535.0
18151.755377985668,-1116.2305908203125,421.5948486328125,-26.963788986206055,-1298.8052978515625,-28.852510452270508,45.679012298583984,15.236337661743164,71.7968978881836,-9.516414642333984,65535.0
18151.75577799422,-1136.948486328125,431.730224609375,-26.871049880981445,-1291.9102783203125,-23.48735809326172,46.59392166137695,18.977386474609375,75.13770294189453,-14.541706085205078,65535.0
18151.75617800277,-1156.991943359375,421.31402587890625,-32.31864929199219,-1303.0968017578125,-28.389158248901367,42.510292053222656,12.55347728729248,69.7492446899414,-17.83025550842285,65535.0
18151.756578011325,-1155.1556396484375,429.7702331542969,-35.11463165283203,-1311.3275146484375,-34.384254455566406,37.985111236572266,7.785974025726318,63.93500900268555,-19.028594970703125,65535.0
18151.75697801988,-1156.574462890625,424.99072265625,-35.00422286987305,-1293.3365478515625,-32.49232482910156,41.59783172607422,12.43907356262207,65.9328384399414,-17.660654067993164,65535.0
18151.757378028433,-1159.7833251953125,417.0277099609375,-34.24173355102539,-1284.6063232421875,-40.67795181274414,29.707548141479492,3.2001285552978516,58.052791595458984,-22.619216918945312,65535.0
18151.757778036983,-1146.3126220703125,414.3372497558594,-32.49215316772461,-1280.8446044921875,-42.21823501586914,27.112768173217773,0.6979794502258301,54.1930046081543,-8.895712852478027,65535.0
18151.758178045537,-1144.6300048828125,408.72314453125,-41.447940826416016,-1268.7447509765625,-43.31002426147461,27.429319381713867,-0.6087218523025513,54.953731536865234,-15.770005226135254,65535.0
18151.75857805409,-1146.4227294921875,406.6725769042969,-36.24979019165039,-1268.61572265625,-38.473365783691406,31.11122703552246,4.621184349060059,60.00297164916992,-13.547051429748535,65535.0
18151.75897806264,-1144.7550048828125,412.66558837890625,-28.27878761291504,-1252.4647216796875,-27.270036697387695,41.9859733581543,12.673197746276855,69.68614196777344,-27.573820114135742,65535.0
18151.759378071194,-1134.655517578125,397.70294189453125,-43.71183776855469,-1229.8829345703125,-28.591278076171875,46.31894302368164,14.364673614501953,69.5412368774414,-37.572078704833984,65535.0
18151.759778079748,-1143.7158203125,404.08209228515625,-51.96855926513672,-1227.27099609375,-28.729272842407227,46.288169860839844,12.873682975769043,67.3946533203125,-15.456772804260254,65535.0
18151.7601780883,-1152.7999267578125,408.7154235839844,-46.98805618286133,-1227.876953125,-28.05840301513672,47.880374908447266,10.681009292602539,69.87739562988281,-10.888360023498535,65535.0
18151.76057809685,-1176.1644287109375,400.9292907714844,-54.55176544189453,-1240.5872802734375,-27.039884567260742,50.990882873535156,16.818601608276367,71.52837371826172,-16.654460906982422,65535.0
18151.760978105405,-1199.9959716796875,411.9064025878906,-60.3932991027832,-1247.861083984375,-26.188199996948242,51.547767639160156,16.87321662902832,70.00032043457031,-17.200834274291992,65535.0
18151.76137811396,-1221.83349609375,411.2537841796875,-56.512657165527344,-1257.054931640625,-17.3411922454834,61.80863571166992,24.64354133605957,80.8051528930664,-30.59545135498047,65535.0
18151.76177812251,-1244.159912109375,410.5088195800781,-42.81500244140625,-1287.3570556640625,-25.290557861328125,57.43695068359375,19.480472564697266,73.9011459350586,-17.990537643432617,65535.0
18151.762178131063,-1265.9326171875,407.9222412109375,-42.576881408691406,-1318.70751953125,-27.547740936279297,54.13385772705078,13.733177185058594,70.52326202392578,-31.119108200073242,65535.0
18151.762578139616,-1261.6304931640625,394.35443115234375,-55.55733108520508,-1327.479248046875,-32.183319091796875,48.915138244628906,10.713834762573242,64.2486572265625,-39.38015365600586,65535.0
18151.76297814817,-1258.311279296875,394.12286376953125,-46.12977981567383,-1344.132080078125,-28.65105628967285,53.03618240356445,13.883121490478516,68.3233642578125,-21.435365676879883,65535.0
18151.76337815672,-1249.4251708984375,384.0770263671875,-45.870399475097656,-1349.4259033203125,-24.23072052001953,61.392730712890625,17.055097579956055,73.49497985839844,-28.34385108947754,65535.0
18151.763778165274,-1230.11572265625,377.49957275390625,-39.1698112487793,-1361.8271484375,-26.43313980102539,61.84300231933594,15.510519981384277,72.87378692626953,-23.852075576782227,65535.0
18151.764178173828,-1237.2989501953125,384.7015380859375,-44.26136779785156,-1379.5361328125,-20.6340389251709,64.66453552246094,19.33064842224121,75.96531677246094,-31.693735122680664,65535.0
18151.764578182378,-1234.6817626953125,375.06353759765625,-48.616966247558594,-1365.7518310546875,-14.262722969055176,74.70066833496094,27.16666603088379,82.08119201660156,-20.128068923950195,65535.0
18151.76497819093,-1239.3167724609375,376.41168212890625,-45.61125183105469,-1365.258056640625,-12.736634254455566,81.80842590332031,30.701961517333984,86.5472412109375,-24.777366638183594,65535.0
18151.765378199485,-1252.2237548828125,372.5937194824219,-37.32921600341797,-1353.0172119140625,-27.270063400268555,65.33206939697266,15.18763256072998,71.144287109375,-25.529325485229492,65535.0
18151.76577820804,-1267.1368408203125,387.5628356933594,-40.392887115478516,-1367.258544921875,-24.485422134399414,65.9235610961914,18.73790740966797,70.18412780761719,-22.84308624267578,65535.0
18151.76617821659,-1273.88134765625,390.2706604003906,-43.8015251159668,-1374.7586669921875,-20.42775535583496,71.97309112548828,23.929492950439453,76.4700698852539,-17.608007431030273,65535.0
18151.766578225142,-1263.0606689453125,388.3558654785156,-35.60995864868164,-1360.843505859375,-27.339550018310547,62.535560607910156,14.523241996765137,72.5816879272461,-24.332496643066406,65535.0
18151.766978233696,-1238.736083984375,392.89697265625,-26.70005226135254,-1355.259521484375,-17.03605079650879,73.60747528076172,25.160242080688477,83.61480712890625,-23.699392318725586,65535.0
18151.767378242246,-1233.1016845703125,397.05621337890625,-18.74333953857422,-1333.3211669921875,-18.627925872802734,73.23680877685547,24.25850486755371,78.31851196289062,-17.90943145751953,65535.0
18151.7677782508,-1220.2208251953125,394.295166015625,-28.45512580871582,-1318.116943359375,-25.14036750793457,64.76143646240234,18.161296844482422,74.19424438476562,-23.74773597717285,65535.0
18151.768178259354,-1219.4884033203125,393.291015625,-25.341018676757812,-1327.6417236328125,-24.548250198364258,65.37926483154297,19.26516342163086,74.28678894042969,-25.902406692504883,65535.0
18151.768578267907,-1222.401611328125,398.38214111328125,-20.512176513671875,-1358.654052734375,-22.321880340576172,68.54246520996094,18.637821197509766,74.93896484375,-21.445165634155273,65535.0
18151.768978276457,-1227.8079833984375,395.40985107421875,-22.122041702270508,-1356.68310546875,-26.355106353759766,63.92304229736328,16.4631290435791,73.57598876953125,-15.508654594421387,65535.0
18151.76937828501,-1230.791015625,397.3368835449219,-21.017690658569336,-1343.5673828125,-18.162302017211914,72.32984161376953,26.323410034179688,80.42436218261719,-23.113866806030273,65535.0
18151.769778293565,-1237.20458984375,399.2787780761719,-30.67431640625,-1342.00439453125,-8.362778663635254,83.05902099609375,37.35361099243164,91.13740539550781,-23.772138595581055,65535.0
18151.770178302115,-1237.1607666015625,407.5870361328125,-23.658620834350586,-1343.7386474609375,-22.259845733642578,64.90779876708984,21.532270431518555,76.17311096191406,-14.38823413848877,65535.0
18151.77057831067,-1239.9476318359375,412.7581787109375,-14.574183464050293,-1361.0040283203125,-28.150087356567383,58.46041488647461,13.169882774353027,71.38162994384766,-21.449752807617188,65535.0
18151.770978319222,-1242.5567626953125,396.2423400878906,-18.000030517578125,-1362.942626953125,-17.330636978149414,67.89405822753906,23.883258819580078,78.67664337158203,-26.965850830078125,65535.0
18151.771378327772,-1245.361328125,402.1544494628906,-18.15379524230957,-1367.2313232421875,-15.41468334197998,70.14861297607422,26.87183952331543,82.34825897216797,-27.284526824951172,65535.0
18151.771778336326,-1262.6043701171875,408.8969421386719,-13.218389511108398,-1369.8101806640625,-15.052566528320312,74.56285858154297,29.372196197509766,85.91122436523438,-13.73366928100586,65535.0
18151.77217834488,-1277.3087158203125,406.3377990722656,-15.539073944091797,-1375.5296630859375,-24.355180740356445,59.25725173950195,15.747369766235352,73.0969467163086,-19.0913143157959,65535.0
18151.772578353433,-1276.040771484375,403.8836669921875,-13.394762992858887,-1357.8411865234375,-37.611351013183594,39.21815490722656,1.2568351030349731,61.770538330078125,-26.827625274658203,65535.0
18151.772978361983,-1284.2103271484375,417.7694091796875,-4.641420364379883,-1348.123046875,-23.94292449951172,54.289493560791016,17.41848373413086,72.643310546875,-12.450614929199219,65535.0
18151.773378370537,-1283.5313720703125,422.11651611328125,-1.938950538635254,-1335.1063232421875,-24.95668601989746,54.40496826171875,18.359146118164062,71.91952514648438,-26.514808654785156,65535.0
18151.77377837909,-1257.9891357421875,427.07354736328125,8.52184772491455,-1333.033203125,-15.925498008728027,61.47677993774414,26.902891159057617,83.13549041748047,-22.772743225097656,65535.0
18151.77417838764,-1249.6046142578125,421.23895263671875,1.10165536403656,-1367.360595703125,-26.959646224975586,49.932212829589844,14.842004776000977,71.47765350341797,-10.518529891967773,65535.0
18151.774578396195,-1239.322998046875,420.11285400390625,4.7576189041137695,-1407.15087890625,-33.07219696044922,43.23093795776367,10.321033477783203,66.45935821533203,-28.853395462036133,65535.0
18151.77497840475,-1222.113037109375,420.0836486816406,11.865428924560547,-1442.724853515625,-31.29363441467285,43.980979919433594,10.90019416809082,64.46698760986328,-21.834699630737305,65535.0
18151.775378413302,-1200.2987060546875,426.1163330078125,8.23954963684082,-1450.5169677734375,-37.533382415771484,30.663497924804688,4.199164867401123,58.94960021972656,-6.5093231201171875,65535.0
18151.775778421852,-1182.0975341796875,418.7326965332031,3.8459692001342773,-1437.7462158203125,-36.28776550292969,34.51803207397461,5.976144313812256,63.910179138183594,-15.218070030212402,65535.0
18151.776178430406,-1164.0576171875,412.4597473144531,-0.8159409761428833,-1408.8505859375,-33.07320785522461,38.16850662231445,10.632955551147461,64.50621032714844,-19.95676040649414,65535.0
18151.77657843896,-1146.18359375,415.527099609375,2.891284704208374,-1401.1087646484375,-48.644832611083984,19.761682510375977,-6.473467826843262,48.25467300415039,-33.899681091308594,65535.0
18151.77697844751,-1137.2188720703125,410.85723876953125,7.753767967224121,-1398.8470458984375,-40.16318130493164,27.749126434326172,1.6414185762405396,57.121551513671875,-25.897233963012695,65535.0
18151.777378456063,-1126.4501953125,408.63018798828125,10.4462251663208,-1405.466064453125,-39.667205810546875,32.10847473144531,2.9585745334625244,58.52920913696289,-26.16107177734375,65535.0
18151.777778464617,-1121.3450927734375,411.9590148925781,16.827390670776367,-1395.9119873046875,-44.34844207763672,23.50571060180664,-1.0021182298660278,53.56425857543945,-32.39112854003906,65535.0
18151.77817847317,-1131.156494140625,413.11090087890625,8.247039794921875,-1380.8135986328125,-43.93654251098633,25.422958374023438,-3.139800786972046,54.78195571899414,-25.79071807861328,65535.0
18151.77857848172,-1130.829345703125,405.3531494140625,2.7503883838653564,-1377.6043701171875,-38.31431198120117,31.714136123657227,1.1809477806091309,59.36020278930664,-14.564506530761719,65535.0
18151.778978490274,-1141.865234375,404.57794189453125,6.269237518310547,-1378.41357421875,-37.86898422241211,30.34600830078125,0.6636852622032166,56.81816864013672,-21.38636589050293,65535.0
18151.779378498828,-1164.644775390625,410.1492919921875,3.3354439735412598,-1388.0885009765625,-49.26559829711914,21.5394229888916,-6.026018142700195,50.63603591918945,-18.382251739501953,65535.0
18151.779778507378,-1186.6641845703125,398.15167236328125,-8.017544746398926,-1378.802734375,-44.02574920654297,30.09587860107422,2.634554147720337,57.8883056640625,-7.450928211212158,65535.0
18151.78017851593,-1190.2584228515625,393.5895080566406,-2.2084133625030518,-1369.5330810546875,-38.0030517578125,36.55244064331055,6.024814128875732,59.98406219482422,-12.247286796569824,65535.0
18151.780578524485,-1187.9444580078125,389.65960693359375,-4.761674880981445,-1359.8038330078125,-32.71904754638672,40.74525451660156,9.93701457977295,64.51256561279297,-35.52589797973633,65535.0
18151.78097853304,-1197.4432373046875,389.9167175292969,-10.489957809448242,-1337.0506591796875,-37.706443786621094,37.75312423706055,3.9292120933532715,60.93150329589844,-20.894521713256836,65535.0
18151.78137854159,-1191.9332275390625,392.15740966796875,-0.07757385075092316,-1347.3544921875,-47.364688873291016,28.261411666870117,-5.214662075042725,52.31553268432617,-15.057106018066406,65535.0
18151.781778550143,-1167.8865966796875,384.06988525390625,-3.813189744949341,-1353.8558349609375,-29.144811630249023,48.4477653503418,16.582733154296875,70.57147216796875,-18.61880874633789,65535.0
18151.782178558697,-1145.5162353515625,380.6050720214844,-4.634263515472412,-1349.125732421875,-20.85871124267578,60.614158630371094,19.75735855102539,77.3499526977539,-21.323156356811523,65535.0
18151.782578567247,-1142.30322265625,377.3490295410156,-3.996324062347412,-1356.4774169921875,-29.083534240722656,54.458961486816406,13.494593620300293,70.06678009033203,-13.75109577178955,65535.0
18151.7829785758,-1146.720458984375,386.9574279785156,-5.372714996337891,-1367.548095703125,-21.005212783813477,60.07179260253906,21.00905418395996,78.71868133544922,-14.748675346374512,65535.0
18151.783378584354,-1152.3623046875,376.70379638671875,-12.5043363571167,-1372.122802734375,-23.90314292907715,60.060333251953125,17.559572219848633,74.60171508789062,-20.763700485229492,65535.0
18151.783778592908,-1173.042236328125,381.61846923828125,-22.130876541137695,-1361.9998779296875,-29.26959800720215,58.30027770996094,15.34200382232666,72.66020965576172,-19.674072265625,65535.0
18151.784178601458,-1174.7918701171875,391.3501892089844,-15.192010879516602,-1366.3016357421875,-29.9539737701416,56.1409912109375,14.252182960510254,69.60192108154297,-20.905126571655273,65535.0
18151.78457861001,-1170.452880859375,380.2058410644531,-20.47994613647461,-1355.8848876953125,-15.597064018249512,74.83312225341797,27.321849822998047,81.70010375976562,-23.573909759521484,65535.0
18151.784978618565,-1179.6864013671875,376.3238830566406,-18.581871032714844,-1344.6357421875,-19.611133575439453,71.35997009277344,22.153287887573242,78.00880432128906,-6.879105567932129,65535.0
18151.785378627115,-1174.9241943359375,380.8842468261719,-9.935338020324707,-1343.63134765625,-24.686336517333984,65.74381256103516,19.188556671142578,74.4541244506836,-0.979324996471405,65535.0
18151.78577863567,-1179.1826171875,388.4222717285156,-2.323535680770874,-1351.425048828125,-12.697833061218262,79.19345092773438,30.82236671447754,85.2227783203125,-6.59066915512085,65535.0
18151.786178644223,-1190.6798095703125,387.60577392578125,-9.332535743713379,-1362.3697509765625,-15.031091690063477,79.56974029541016,28.40560531616211,84.98959350585938,-24.63969612121582,65535.0
18151.786578652776,-1185.2037353515625,387.8855895996094,-10.525195121765137,-1391.9114990234375,-20.75436782836914,75.19763946533203,24.22970199584961,84.62976837158203,-29.789461135864258,65535.0
18151.786978661326,-1196.0074462890625,400.2377014160156,-9.205367088317871,-1402.141845703125,-31.15985107421875,57.60955810546875,9.38662338256836,67.89869689941406,-18.561830520629883,65535.0
18151.78737866988,-1213.587158203125,400.31317138671875,-7.974189758300781,-1418.446533203125,-22.911632537841797,64.64960479736328,17.925125122070312,74.53067779541016,-15.812870025634766,65535.0
18151.787778678434,-1201.9317626953125,401.84405517578125,-4.839735984802246,-1428.300537109375,-26.613107681274414,65.99349212646484,18.321786880493164,73.83672332763672,-14.816472053527832,65535.0
18151.788178686984,-1199.072021484375,413.2826843261719,-1.4357702732086182,-1435.1580810546875,-11.728111267089844,77.94332122802734,31.06770896911621,85.37324523925781,-8.540775299072266,65535.0
18151.788578695538,-1195.1435546875,417.4631652832031,4.808783054351807,-1455.366943359375,-20.3279972076416,74.12190246582031,24.879955291748047,80.58491516113281,-21.128170013427734,65535.0
18151.78897870409,-1180.571533203125,414.3163757324219,12.124367713928223,-1460.4478759765625,-16.449541091918945,74.92778778076172,26.828779220581055,84.40147399902344,-20.685321807861328,65535.0
18151.789378712645,-1165.2762451171875,415.4279479980469,8.397603034973145,-1441.3717041015625,-18.66490364074707,71.9457778930664,23.51070213317871,80.6026840209961,-22.132577896118164,65535.0
18151.789778721195,-1161.12255859375,421.7165832519531,1.674925446510315,-1442.148193359375,-24.489885330200195,64.52297973632812,16.848941802978516,74.6670150756836,-25.223735809326172,65535.0
18151.79017872975,-1180.404541015625,416.3622131347656,12.26974105834961,-1427.5054931640625,-22.260229110717773,64.68363189697266,20.58451271057129,77.05410766601562,-32.48271179199219,65535.0
18151.790578738302,-1190.4154052734375,406.0187683105469,20.21626853942871,-1421.491943359375,-24.626708984375,60.50421905517578,16.97710418701172,70.75563049316406,-25.994821548461914,65535.0
18151.790978746852,-1186.06982421875,415.5245056152344,11.443655014038086,-1419.4984130859375,-26.278594970703125,58.21559524536133,13.335371017456055,72.13494110107422,-20.352975845336914,65535.0
18151.791378755406,-1176.0994873046875,414.60430908203125,12.856769561767578,-1417.0479736328125,-20.375961303710938,67.64997100830078,19.23360252380371,78.07223510742188,-23.98021125793457,65535.0
18151.79177876396,-1181.3341064453125,419.85980224609375,18.00830841064453,-1410.6053466796875,-17.13614845275879,68.43665313720703,23.46060562133789,79.26580810546875,-25.0554256439209,65535.0
18151.792178772514,-1194.4384765625,420.04278564453125,16.080991744995117,-1412.1229248046875,-20.762937545776367,59.898780822753906,18.368877410888672,75.1355972290039,-15.45561695098877,65535.0
18151.792578781064,-1179.1407470703125,423.69293212890625,9.37697696685791,-1406.1224365234375,-17.65212631225586,67.29058074951172,24.986085891723633,81.27019500732422,-24.72381019592285,65535.0
18151.792978789617,-1188.3616943359375,428.4315490722656,13.96721363067627,-1401.281005859375,-22.39232063293457,59.6373405456543,21.000640869140625,76.88346099853516,-30.91036605834961,65535.0
18151.79337879817,-1194.7366943359375,427.82537841796875,36.51368713378906,-1390.6473388671875,-19.4886531829834,62.13468551635742,22.29119873046875,77.91886901855469,-30.55020523071289,65535.0
18151.79377880672,-1184.4224853515625,429.07086181640625,30.8957462310791,-1391.9912109375,-17.31304931640625,62.098594665527344,23.701684951782227,78.408203125,-26.934431076049805,65535.0
18151.794178815275,-1192.79541015625,438.66021728515625,17.070287704467773,-1388.1661376953125,-16.077449798583984,64.141357421875,27.9072208404541,81.59136962890625,-15.777915000915527,65535.0
18151.79457882383,-1194.4581298828125,446.3252258300781,34.09096145629883,-1384.901611328125,-23.928752899169922,56.75249099731445,16.679250717163086,74.69593048095703,-11.721396446228027,65535.0
18151.794978832382,-1195.3916015625,446.23583984375,35.11783981323242,-1388.5247802734375,-30.5142822265625,48.268524169921875,10.896919250488281,69.77249908447266,-13.260396003723145,65535.0
18151.795378840932,-1191.89453125,441.4381103515625,24.447345733642578,-1389.727783203125,-22.387779235839844,49.256324768066406,18.652284622192383,74.60027313232422,-5.465413570404053,65535.0
18151.795778849486,-1204.2266845703125,444.0697937011719,23.851839065551758,-1394.8372802734375,-10.775640487670898,65.71161651611328,28.6336612701416,87.6526107788086,-15.438316345214844,65535.0
18151.79617885804,-1230.8148193359375,437.62945556640625,21.524639129638672,-1401.3023681640625,-28.113201141357422,48.80382537841797,14.671565055847168,72.14491271972656,-18.438217163085938,65535.0
18151.79657886659,-1245.973876953125,438.7418212890625,22.045209884643555,-1415.4476318359375,-24.804927825927734,45.88273239135742,13.949886322021484,71.87999725341797,-22.758426666259766,65535.0
18151.796978875143,-1260.7325439453125,448.7832946777344,28.687498092651367,-1417.690185546875,-28.579269409179688,45.678199768066406,15.367110252380371,67.24830627441406,-13.124197006225586,65535.0
18151.797378883697,-1246.7197265625,439.5246276855469,13.027046203613281,-1404.32666015625,-25.536666870117188,45.3125,17.428701400756836,70.70579528808594,-21.363243103027344,65535.0
18151.79777889225,-1242.314697265625,440.5981750488281,6.067794322967529,-1392.3131103515625,-22.604015350341797,50.72356414794922,19.458791732788086,74.69169616699219,-21.40971565246582,65535.0
18151.7981789008,-1250.17529296875,431.0760192871094,1.683693289756775,-1402.4000244140625,-27.587465286254883,45.155181884765625,14.927192687988281,69.75914001464844,-14.57010269165039,65535.0
18151.798578909355,-1252.030517578125,423.7673645019531,14.870920181274414,-1411.4945068359375,-30.291162490844727,42.42491149902344,11.685670852661133,65.10707092285156,-19.44738006591797,65535.0
18151.79897891791,-1254.5751953125,433.0756530761719,10.71037483215332,-1403.0675048828125,-32.63747787475586,41.35310745239258,12.630141258239746,64.54569244384766,-14.789741516113281,65535.0
18151.79937892646,-1248.628173828125,430.4145202636719,9.662025451660156,-1402.19482421875,-25.243494033813477,47.6474494934082,16.947763442993164,69.43211364746094,-14.485864639282227,65535.0
18151.799778935012,-1224.0789794921875,426.21710205078125,15.416584014892578,-1425.00146484375,-11.118873596191406,65.18146514892578,29.509531021118164,84.08364868164062,-21.61202621459961,65535.0
18151.800178943566,-1203.5203857421875,425.20916748046875,13.991257667541504,-1439.8182373046875,-22.293685913085938,53.555702209472656,19.471994400024414,73.5852279663086,-16.140050888061523,65535.0
18151.80057895212,-1182.96923828125,428.5157470703125,15.459590911865234,-1448.6026611328125,-26.197002410888672,50.900123596191406,14.898110389709473,70.9896240234375,-24.58134651184082,65535.0
18151.80097896067,-1179.0350341796875,417.03887939453125,10.41604232788086,-1435.4190673828125,-26.468698501586914,51.535194396972656,17.051895141601562,71.51301574707031,-22.38553237915039,65535.0
18151.801378969223,-1178.5152587890625,416.7310485839844,13.432395935058594,-1414.4263916015625,-20.991548538208008,58.38984680175781,22.14012908935547,78.97814178466797,-9.331491470336914,65535.0
18151.801778977777,-1170.66015625,418.6601257324219,3.5759332180023193,-1407.8363037109375,-10.866410255432129,71.77290344238281,31.155786514282227,88.64444732666016,-14.553544044494629,65535.0
18151.802178986327,-1182.0340576171875,418.2455139160156,4.115876197814941,-1389.923095703125,-12.25333309173584,72.97587585449219,33.82152557373047,87.7079849243164,-20.020959854125977,65535.0
18151.80257899488,-1187.90478515625,416.263671875,1.6555150747299194,-1382.3851318359375,-15.644418716430664,71.90924072265625,27.25598907470703,83.78093719482422,-12.88702392578125,65535.0
18151.802979003434,-1189.5191650390625,410.0940246582031,-0.8964871168136597,-1392.7393798828125,-12.158201217651367,77.37036895751953,30.051898956298828,85.28629302978516,-15.2842378616333,65535.0
18151.803379011988,-1185.759765625,400.61529541015625,-0.9113354682922363,-1404.1959228515625,-10.662395477294922,77.48009490966797,33.213768005371094,85.7968978881836,-25.049760818481445,65535.0
18151.803779020538,-1175.6580810546875,395.5038757324219,6.260282516479492,-1415.90478515625,-10.61868953704834,80.47844696044922,32.82526397705078,88.54339599609375,-25.250558853149414,65535.0
18151.80417902909,-1167.8125,403.09619140625,8.536385536193848,-1407.3297119140625,-6.5163164138793945,83.09852600097656,32.95848846435547,88.46994018554688,-19.21242904663086,65535.0
18151.804579037645,-1164.7291259765625,401.3257141113281,16.3363037109375,-1416.46240234375,-14.845649719238281,78.18321228027344,29.459354400634766,84.87994384765625,-30.60983657836914,65535.0
18151.804979046196,-1178.876220703125,393.91131591796875,16.52459716796875,-1429.2996826171875,-14.268760681152344,79.4426498413086,32.39360046386719,88.5753173828125,-20.435792922973633,65535.0
18151.80537905475,-1169.414306640625,398.1878967285156,15.361230850219727,-1439.06103515625,-13.508195877075195,81.68634796142578,28.850467681884766,83.84852600097656,-18.853466033935547,65535.0
18151.805779063303,-1161.2041015625,401.743408203125,15.224842071533203,-1464.34521484375,-13.736762046813965,78.95616912841797,27.776559829711914,83.11669921875,-6.490731716156006,65535.0
18151.806179071857,-1151.6563720703125,409.24029541015625,23.248226165771484,-1479.73388671875,-1.270339846611023,95.19256591796875,41.68994140625,98.6905288696289,-3.4499199390411377,65535.0
18151.806579080407,-1156.1973876953125,414.05810546875,29.14333724975586,-1481.730224609375,-6.782325267791748,89.91133880615234,36.26203918457031,92.36239624023438,-5.608813285827637,65535.0
18151.80697908896,-1164.13232421875,406.31256103515625,23.927785873413086,-1468.9100341796875,-7.132007598876953,82.75110626220703,34.823875427246094,87.39139556884766,-4.949951171875,65535.0
18151.807379097514,-1181.262451171875,426.32647705078125,24.818788528442383,-1455.1929931640625,-6.93642520904541,90.62834930419922,35.563507080078125,93.1903076171875,-11.552396774291992,65535.0
18151.807779106064,-1197.60546875,425.8229064941406,30.690231323242188,-1448.0577392578125,-9.55031681060791,86.45454406738281,33.48653030395508,90.097900390625,-26.383060455322266,65535.0
18151.808179114618,-1194.6812744140625,429.1603698730469,26.046119689941406,-1428.33154296875,-7.459244728088379,86.54102325439453,33.95315933227539,89.01039123535156,-18.078157424926758,65535.0
18151.80857912317,-1182.8580322265625,441.7726745605469,21.4280948638916,-1419.4691162109375,-11.901779174804688,78.56293487548828,30.979305267333984,85.7301254272461,-19.539264678955078,65535.0
18151.808979131725,-1179.9390869140625,427.1791076660156,32.39557647705078,-1401.8272705078125,-15.978405952453613,76.23643493652344,27.92115020751953,82.54222106933594,-20.005443572998047,65535.0
18151.809379140275,-1184.55126953125,418.52435302734375,29.663524627685547,-1406.1768798828125,-15.43774700164795,76.9072494506836,28.23947525024414,84.15159606933594,-12.372538566589355,65535.0
18151.80977914883,-1188.684326171875,421.3046569824219,27.01898193359375,-1406.175048828125,-11.46077823638916,74.15735626220703,28.378089904785156,85.41386413574219,-14.818303108215332,65535.0
18151.810179157383,-1194.8336181640625,417.2832336425781,30.752605438232422,-1394.644775390625,-10.848337173461914,72.85858917236328,28.33272933959961,85.04920196533203,-22.151897430419922,65535.0
18151.810579165933,-1205.67578125,416.8791198730469,27.052562713623047,-1378.1424560546875,-6.355059623718262,84.0722885131836,37.88101577758789,93.62666320800781,-31.628725051879883,65535.0
18151.810979174486,-1201.6453857421875,417.9135437011719,22.81780433654785,-1384.60791015625,-3.4819321632385254,85.40272521972656,37.91324234008789,91.14607238769531,-12.701346397399902,65535.0
18151.81137918304,-1203.6495361328125,422.8442687988281,24.52326774597168,-1388.745849609375,0.8130505681037903,84.5236587524414,40.714534759521484,98.94679260253906,-12.298491477966309,65535.0
18151.811779191594,-1216.111083984375,434.6763000488281,34.36571502685547,-1386.430419921875,-15.652111053466797,72.82691192626953,29.888975143432617,85.06609344482422,-15.797358512878418,65535.0
18151.812179200144,-1229.4984130859375,430.3316955566406,30.793380737304688,-1380.5595703125,-17.96074104309082,62.74374771118164,26.216819763183594,78.80692291259766,-11.209356307983398,65535.0
18151.812579208698,-1239.1173095703125,431.0082702636719,34.21046447753906,-1380.2381591796875,-18.195171356201172,59.56254577636719,25.719390869140625,80.80158996582031,-13.283385276794434,65535.0
18151.81297921725,-1220.86962890625,449.3599853515625,37.18621063232422,-1397.6080322265625,-29.05876922607422,48.307559967041016,14.636229515075684,69.62952423095703,-15.787382125854492,65535.0
18151.8133792258,-1223.14599609375,429.09368896484375,39.87379837036133,-1388.832763671875,-28.399648666381836,49.228736877441406,16.81477928161621,73.06790924072266,-17.015039443969727,65535.0
18151.813779234355,-1217.2613525390625,439.4837341308594,41.07533264160156,-1397.02294921875,-29.5147647857666,47.07632064819336,13.641263961791992,71.27210235595703,-20.066484451293945,65535.0
18151.81417924291,-1197.0030517578125,432.4831237792969,40.83626174926758,-1388.04736328125,-17.900999069213867,57.54176712036133,23.70937156677246,80.74700927734375,-15.140064239501953,65535.0
18151.814579251462,-1164.6397705078125,433.17974853515625,44.813385009765625,-1368.793701171875,-19.809120178222656,53.59242630004883,22.33182144165039,75.80784606933594,-14.940434455871582,65535.0
18151.814979260012,-1154.50634765625,439.8544921875,35.721656799316406,-1353.596435546875,-28.064348220825195,43.22151565551758,12.523301124572754,68.88890075683594,-21.454496383666992,65535.0
18151.815379268566,-1137.2110595703125,432.1753845214844,32.671390533447266,-1335.6195068359375,-24.988773345947266,46.1142692565918,17.12138557434082,74.6511001586914,-27.508241653442383,65535.0
18151.81577927712,-1140.529052734375,428.6905517578125,37.20840835571289,-1321.9835205078125,-31.43003273010254,40.84669876098633,14.644570350646973,66.25936889648438,-24.12941551208496,65535.0
18151.81617928567,-1142.489013671875,428.33782958984375,30.876575469970703,-1307.552490234375,-31.06792449951172,37.669288635253906,11.166647911071777,66.57281494140625,-13.758907318115234,65535.0
18151.816579294224,-1138.659423828125,417.22857666015625,36.42457580566406,-1314.35888671875,-26.239622116088867,44.81155014038086,14.95188045501709,73.5139389038086,-16.664457321166992,65535.0
18151.816979302777,-1139.443115234375,430.48858642578125,36.848915100097656,-1309.272216796875,-22.132402420043945,49.39548110961914,23.457841873168945,78.5526351928711,-19.35736083984375,65535.0
18151.81737931133,-1147.120849609375,417.6646728515625,23.920555114746094,-1306.3717041015625,-21.40631675720215,52.669830322265625,23.239450454711914,79.84333038330078,-9.001358985900879,65535.0
18151.81777931988,-1164.141845703125,402.4247131347656,17.706295013427734,-1313.745361328125,-25.944040298461914,48.21592330932617,17.66623306274414,72.86869812011719,-9.991924285888672,65535.0
18151.818179328435,-1181.47998046875,422.2066345214844,19.575538635253906,-1329.19140625,-24.903839111328125,49.07630157470703,19.292688369750977,74.82398223876953,-22.856447219848633,65535.0
18151.81857933699,-1177.13232421875,417.6330261230469,17.723283767700195,-1339.1551513671875,-20.356334686279297,54.54951095581055,22.174007415771484,78.84515380859375,-22.41506576538086,65535.0
18151.81897934554,-1187.993896484375,398.48529052734375,11.911443710327148,-1340.87353515625,-32.11528778076172,41.44162368774414,11.767107963562012,65.40596008300781,-16.692195892333984,65535.0
18151.819379354092,-1194.052734375,416.71514892578125,21.799753189086914,-1352.387451171875,-30.0113582611084,42.22197723388672,11.806195259094238,70.30614471435547,-27.04535484313965,65535.0
18151.819779362646,-1199.639892578125,413.7210388183594,21.90843391418457,-1348.740966796875,-33.069664001464844,41.669376373291016,7.5350751876831055,66.88227844238281,-16.274629592895508,65535.0
18151.8201793712,-1205.7454833984375,406.384033203125,22.836570739746094,-1356.1754150390625,-31.888874053955078,41.374088287353516,8.626276969909668,63.99123001098633,-9.147873878479004,65535.0
18151.82057937975,-1199.49658203125,417.90179443359375,23.56629180908203,-1372.9154052734375,-27.540334701538086,46.77787399291992,14.984506607055664,70.8023452758789,-28.277034759521484,65535.0
18151.820979388303,-1179.0928955078125,415.9248046875,10.148933410644531,-1402.06298828125,-32.72480392456055,42.020870208740234,9.905356407165527,64.64466857910156,-29.335657119750977,65535.0
18151.821379396857,-1168.9810791015625,421.0010070800781,16.532859802246094,-1418.609130859375,-28.734560012817383,45.24306106567383,10.786628723144531,67.2854232788086,-14.571553230285645,65535.0
18151.821779405407,-1174.4873046875,420.085205078125,14.657050132751465,-1418.031005859375,-24.46617889404297,53.97855758666992,17.154142379760742,73.70673370361328,-17.834983825683594,65535.0
18151.82217941396,-1173.9349365234375,420.9029541015625,9.953109741210938,-1382.9072265625,-21.188995361328125,58.35906982421875,18.978473663330078,76.57532501220703,-24.430456161499023,65535.0
18151.822579422515,-1164.2166748046875,418.4172668457031,16.647319793701172,-1381.8653564453125,-23.738590240478516,60.25604248046875,16.872493743896484,74.51121520996094,-32.35797119140625,65535.0
18151.82297943107,-1153.0526123046875,409.5085144042969,10.514240264892578,-1417.679931640625,-33.28763198852539,49.181400299072266,7.5566840171813965,64.36759948730469,-20.87152862548828,65535.0
18151.82337943962,-1149.4031982421875,401.5350036621094,10.015409469604492,-1418.262451171875,-32.49148178100586,50.52967071533203,9.58580493927002,67.03284454345703,-19.689523696899414,65535.0
18151.823779448172,-1153.5279541015625,394.93359375,21.580904006958008,-1413.459228515625,-30.42306900024414,54.59309768676758,14.868314743041992,70.61624145507812,-30.935823440551758,65535.0
18151.824179456726,-1146.3980712890625,396.40362548828125,19.478925704956055,-1412.47802734375,-24.70842742919922,60.30886459350586,18.530029296875,75.93310546875,-13.25222396850586,65535.0
18151.824579465276,-1152.162109375,390.0728759765625,19.633182525634766,-1414.7769775390625,-19.45361328125,69.00928497314453,22.571317672729492,79.5331039428711,-1.7641550302505493,65535.0
18151.82497947383,-1154.4700927734375,383.7671203613281,23.04425048828125,-1423.412841796875,-19.467374801635742,70.99504089355469,21.462364196777344,77.43594360351562,-8.540874481201172,65535.0
18151.825379482383,-1166.7896728515625,389.2580871582031,15.755245208740234,-1434.686279296875,-13.50224781036377,76.96730041503906,30.875356674194336,83.32901763916016,-10.328374862670898,65535.0
18151.825779490937,-1185.263916015625,393.2978820800781,2.5069868564605713,-1456.1204833984375,-9.688041687011719,81.40782928466797,33.78805160522461,88.70420837402344,-16.72630500793457,65535.0
18151.826179499487,-1187.849609375,412.1919250488281,22.47419548034668,-1473.2017822265625,-16.929462432861328,74.85027313232422,28.08101463317871,84.09329986572266,-18.028284072875977,65535.0
18151.82657950804,-1197.150634765625,412.06890869140625,25.52353286743164,-1489.9725341796875,-12.824788093566895,77.6612777709961,29.27227020263672,85.9577865600586,-10.068924903869629,65535.0
18151.826979516594,-1199.0843505859375,401.06707763671875,20.789140701293945,-1487.898193359375,-0.4894964396953583,93.60028076171875,39.97123336791992,97.3382797241211,-5.548924922943115,65535.0
18151.827379525144,-1188.4501953125,412.4706726074219,32.017791748046875,-1488.23828125,-10.048911094665527,82.8582763671875,35.23421859741211,87.49248504638672,-13.035907745361328,65535.0
18151.827779533698,-1176.103759765625,414.1669921875,38.275390625,-1457.3431396484375,-24.07587242126465,67.14433288574219,19.709009170532227,75.55272674560547,-21.828704833984375,65535.0
18151.82817954225,-1180.75,420.85943603515625,44.22943878173828,-1439.53173828125,-22.73120880126953,66.25090026855469,20.01892852783203,76.60730743408203,-13.861333847045898,65535.0
18151.828579550805,-1192.2958984375,431.3735046386719,34.430633544921875,-1436.9427490234375,-20.004772186279297,69.68618774414062,24.953779220581055,78.92878723144531,-24.260223388671875,65535.0
18151.828979559356,-1190.049072265625,433.7825927734375,35.18913650512695,-1428.1904296875,-16.26763153076172,68.70613861083984,26.09706687927246,81.46134185791016,-8.97756290435791,65535.0
18151.82937956791,-1180.0054931640625,422.3061218261719,26.926836013793945,-1417.1409912109375,-6.719794750213623,82.32592010498047,33.39381790161133,89.78965759277344,-17.12721824645996,65535.0
18151.829779576463,-1168.4676513671875,423.6945495605469,27.577268600463867,-1398.306640625,-11.257387161254883,78.07467651367188,31.13559341430664,88.10041046142578,-30.78436851501465,65535.0
18151.830179585013,-1149.4398193359375,421.1944274902344,30.456323623657227,-1390.7318115234375,-25.701797485351562,59.137508392333984,18.25339698791504,74.1586685180664,-14.408872604370117,65535.0
18151.830579593567,-1163.7039794921875,434.6017150878906,25.20326805114746,-1381.50146484375,-21.634902954101562,62.2435302734375,22.336444854736328,78.35124206542969,-25.764617919921875,65535.0
18151.83097960212,-1146.6453857421875,444.3184814453125,33.46770095825195,-1358.866943359375,-22.447473526000977,60.466007232666016,20.002033233642578,75.10997772216797,-26.26694679260254,65535.0
18151.831379610674,-1127.130859375,439.5182189941406,30.322589874267578,-1341.2694091796875,-23.482635498046875,59.61948776245117,19.14629364013672,75.69676971435547,-5.552294731140137,65535.0
18151.831779619224,-1121.141845703125,441.63299560546875,40.237518310546875,-1297.8621826171875,-19.164731979370117,60.64496612548828,21.993825912475586,78.53939056396484,-10.812446594238281,65535.0
18151.832179627778,-1122.0406494140625,438.9497985839844,34.95945739746094,-1245.6514892578125,-25.72203254699707,53.04141616821289,16.864418029785156,71.95055389404297,-16.8966064453125,65535.0
18151.83257963633,-1116.0616455078125,436.889404296875,25.10589027404785,-1207.8802490234375,-30.565725326538086,43.62567138671875,11.546154022216797,66.91337585449219,-13.840271949768066,65535.0
18151.83297964488,-1109.327392578125,435.2184143066406,42.49229049682617,-1192.1202392578125,-29.405122756958008,47.57326126098633,11.687264442443848,68.69490814208984,-11.714509963989258,65535.0
18151.833379653435,-1096.45751953125,447.31317138671875,52.20294952392578,-1201.0478515625,-28.072620391845703,47.905460357666016,15.367009162902832,71.99861145019531,-30.911474227905273,65535.0
18151.83377966199,-1099.054443359375,447.30255126953125,41.6725959777832,-1191.0875244140625,-21.307327270507812,56.498905181884766,23.833982467651367,77.91156768798828,-30.51177406311035,65535.0
18151.834179670543,-1120.8134765625,446.849365234375,42.23786926269531,-1183.210205078125,-26.479265213012695,50.52413558959961,19.250072479248047,72.53083038330078,-17.196535110473633,65535.0
18151.834579679093,-1150.7462158203125,451.0255432128906,38.62923812866211,-1188.34619140625,-42.734344482421875,29.450420379638672,-1.1213370561599731,56.80318832397461,-16.90432357788086,65535.0
18151.834979687646,-1189.035400390625,446.5,41.73557662963867,-1211.4759521484375,-40.23666000366211,28.14582633972168,2.1795899868011475,57.131160736083984,-20.044151306152344,65535.0
18151.8353796962,-1215.0081787109375,443.0579528808594,49.29982376098633,-1245.3316650390625,-35.75639724731445,32.27201843261719,6.908188343048096,63.16440963745117,-20.56540298461914,65535.0
18151.83577970475,-1216.5169677734375,440.0637512207031,40.70176696777344,-1264.3817138671875,-37.8780403137207,28.77553367614746,2.2986412048339844,61.05427551269531,-25.377159118652344,65535.0
18151.836179713304,-1233.330322265625,442.8822326660156,39.813655853271484,-1292.70166015625,-38.06960678100586,30.254562377929688,6.130860805511475,60.04051208496094,-6.695984363555908,65535.0
18151.836579721858,-1228.872802734375,435.34210205078125,36.65312194824219,-1317.701171875,-35.614810943603516,30.27765655517578,5.3323974609375,60.483463287353516,-5.733452796936035,65535.0
18151.83697973041,-1219.9805908203125,429.27935791015625,30.9545955657959,-1305.017822265625,-39.2887077331543,30.049034118652344,2.394486904144287,61.232398986816406,-22.271202087402344,65535.0
18151.83737973896,-1228.0386962890625,433.0928955078125,29.681116104125977,-1309.8564453125,-36.00362014770508,32.09519958496094,4.627195835113525,61.43916320800781,-17.12646484375,65535.0
18151.837779747515,-1231.2630615234375,429.634033203125,22.145336151123047,-1303.614013671875,-36.61869812011719,29.986841201782227,5.9579010009765625,60.29327392578125,-25.46122932434082,65535.0
18151.83817975607,-1241.009521484375,424.71295166015625,19.595190048217773,-1294.9461669921875,-36.51152420043945,28.896780014038086,3.4977223873138428,59.41999816894531,-16.58889389038086,65535.0
18151.83857976462,-1249.501708984375,428.6305847167969,16.512718200683594,-1317.195068359375,-39.11553955078125,30.276708602905273,2.9463813304901123,59.19911575317383,-30.740474700927734,65535.0
18151.838979773172,-1250.5107421875,420.2173156738281,24.10618782043457,-1370.1614990234375,-32.19589614868164,34.58987808227539,8.92230224609375,64.6206283569336,-32.43223190307617,65535.0
18151.839379781726,-1228.6490478515625,408.6086120605469,17.193336486816406,-1426.859619140625,-28.923219680786133,40.80137252807617,11.618963241577148,67.47667694091797,-27.91219139099121,65535.0
18151.83977979028,-1224.4503173828125,410.9654846191406,26.092697143554688,-1462.6368408203125,-43.201168060302734,26.81455421447754,0.4685378968715668,54.84297180175781,-17.330612182617188,65535.0
18151.84017979883,-1202.6734619140625,407.7732849121094,33.16219711303711,-1447.2645263671875,-37.876522064208984,32.5963249206543,3.215294122695923,59.091495513916016,-23.909221649169922,65535.0
18151.840579807384,-1177.79052734375,405.8682556152344,19.103164672851562,-1402.3782958984375,-36.42230224609375,38.90461730957031,8.326218605041504,64.70574188232422,-18.17613410949707,65535.0
18151.840979815937,-1160.7158203125,410.41558837890625,21.830766677856445,-1361.2999267578125,-32.880367279052734,39.396080017089844,9.517315864562988,64.70142364501953,-22.870939254760742,65535.0
18151.841379824487,-1154.3433837890625,406.771728515625,18.20073699951172,-1343.5758056640625,-30.470674514770508,43.57746887207031,9.974834442138672,68.4711685180664,-20.593721389770508,65535.0
18151.84177983304,-1133.19091796875,403.7071228027344,13.400734901428223,-1352.119873046875,-35.3503532409668,43.65683364868164,9.147838592529297,62.60629653930664,-14.754130363464355,65535.0
18151.842179841595,-1118.2108154296875,409.9809875488281,17.110002517700195,-1351.0552978515625,-36.67604446411133,42.85434341430664,6.348689556121826,63.20159912109375,-13.918999671936035,65535.0
18151.84257985015,-1097.9556884765625,411.60260009765625,9.741817474365234,-1345.4478759765625,-24.348819732666016,54.00534439086914,16.043291091918945,73.47998809814453,-20.76410675048828,65535.0
18151.8429798587,-1098.1434326171875,401.004150390625,10.289575576782227,-1345.75732421875,-25.281051635742188,55.70219421386719,15.199885368347168,72.04639434814453,-15.266501426696777,65535.0
18151.843379867252,-1100.3089599609375,398.558349609375,14.177108764648438,-1366.482177734375,-28.842609405517578,53.671730041503906,12.6298189163208,69.602783203125,-23.092618942260742,65535.0
18151.843779875806,-1084.531005859375,399.4674072265625,8.004814147949219,-1390.4027099609375,-28.574493408203125,53.01608657836914,13.139513969421387,69.51497650146484,-14.253074645996094,65535.0
18151.844179884356,-1093.0369873046875,390.8357238769531,10.748004913330078,-1411.9976806640625,-24.282459259033203,57.123931884765625,13.401606559753418,71.18820190429688,-22.079315185546875,65535.0
18151.84457989291,-1086.594482421875,391.53271484375,14.644471168518066,-1395.8751220703125,-11.20107364654541,74.2823486328125,31.87919807434082,84.68839263916016,-24.492734909057617,65535.0
18151.844979901463,-1110.2926025390625,397.0439758300781,20.27094078063965,-1369.3336181640625,-13.748327255249023,72.64802551269531,26.020421981811523,83.07080841064453,-29.239486694335938,65535.0
18151.845379910017,-1118.8154296875,397.19287109375,23.32659912109375,-1362.432861328125,-25.98820686340332,62.658721923828125,15.630215644836426,72.00687408447266,-15.767970085144043,65535.0
18151.845779918567,-1117.9737548828125,395.15911865234375,21.862831115722656,-1374.9866943359375,-15.649020195007324,72.72428894042969,28.137407302856445,82.53754425048828,-15.216157913208008,65535.0
18151.84617992712,-1119.587646484375,397.866455078125,22.582448959350586,-1398.0670166015625,-15.379956245422363,77.77816009521484,30.04525375366211,85.44449615478516,-17.568239212036133,65535.0
18151.846579935675,-1116.038330078125,405.7158508300781,22.563722610473633,-1410.5,-17.01711654663086,73.03766632080078,25.718650817871094,80.1971206665039,-13.236629486083984,65535.0
18151.846979944225,-1123.80322265625,407.494384765625,22.628332138061523,-1407.8040771484375,-13.192551612854004,75.31187438964844,29.210886001586914,81.05029296875,-24.77418327331543,65535.0
18151.84737995278,-1144.9239501953125,407.1042785644531,32.692813873291016,-1416.022705078125,-23.953323364257812,65.16510772705078,20.299530029296875,73.74748229980469,-17.62329864501953,65535.0
18151.847779961332,-1144.65234375,414.8790588378906,42.646888732910156,-1419.50537109375,-19.46022605895996,68.09673309326172,22.015361785888672,78.2572250366211,-18.112808227539062,65535.0
18151.848179969886,-1161.1744384765625,415.07666015625,41.075443267822266,-1415.1224365234375,-11.8590726852417,79.12733459472656,30.54495620727539,85.87177276611328,-26.478565216064453,65535.0
18151.848579978436,-1162.0670166015625,410.3528137207031,51.683650970458984,-1434.718505859375,-11.620311737060547,77.9884262084961,32.343929290771484,86.95478820800781,-31.223587036132812,65535.0
18151.84897998699,-1136.6375732421875,412.8785705566406,44.56985092163086,-1440.8765869140625,-15.323301315307617,72.80594635009766,25.748079299926758,81.5123519897461,-31.630456924438477,65535.0
18151.849379995543,-1125.65771484375,411.5421447753906,27.578754425048828,-1432.9495849609375,-22.016359329223633,63.09412384033203,16.814746856689453,77.81397247314453,-19.374305725097656,65535.0
18151.849780004093,-1125.3756103515625,413.28302001953125,29.307270050048828,-1430.9083251953125,-18.634323120117188,66.82530975341797,24.59614372253418,80.67089080810547,-29.681625366210938,65535.0
18151.850180012647,-1128.7152099609375,410.9679260253906,29.41737937927246,-1415.2525634765625,-16.22997283935547,68.01900482177734,24.23233413696289,80.19338989257812,-13.167386054992676,65535.0
18151.8505800212,-1122.14892578125,412.5626525878906,39.76827621459961,-1405.4864501953125,-22.905426025390625,58.76076889038086,18.11603546142578,75.06341552734375,-15.019148826599121,65535.0
18151.850980029754,-1133.9161376953125,417.18402099609375,36.76642608642578,-1411.001953125,-28.668073654174805,54.24971389770508,14.35331916809082,68.2272720336914,-22.026771545410156,65535.0
18151.851380038304,-1136.7666015625,429.7932434082031,35.15475082397461,-1447.8863525390625,-18.41661262512207,63.34687423706055,23.531871795654297,78.79315185546875,-14.647541046142578,65535.0
18151.851780046858,-1123.0123291015625,430.29986572265625,42.91924285888672,-1448.52294921875,-23.07695960998535,58.886131286621094,19.05051040649414,76.18131256103516,-19.73019027709961,65535.0
18151.85218005541,-1119.426025390625,423.79791259765625,28.033023834228516,-1426.9857177734375,-30.738754272460938,47.70362091064453,14.278818130493164,69.56787872314453,-7.796491622924805,65535.0
18151.85258006396,-1113.5662841796875,420.4162902832031,33.92164993286133,-1372.5885009765625,-35.012420654296875,43.981441497802734,9.708011627197266,65.4222183227539,-11.371912956237793,65535.0
18151.852980072515,-1104.693115234375,427.9277038574219,31.939857482910156,-1278.565185546875,-32.31794357299805,45.307315826416016,10.746167182922363,66.76956176757812,-21.958560943603516,65535.0
18151.85338008107,-1100.9610595703125,425.4764709472656,34.23775863647461,-1239.9854736328125,-32.35409927368164,43.01520538330078,12.067188262939453,64.11813354492188,-33.18611526489258,65535.0
18151.853780089623,-1118.95654296875,435.6460876464844,37.355873107910156,-1233.403076171875,-32.84465789794922,41.01560592651367,10.671626091003418,65.47313690185547,-26.93296241760254,65535.0
18151.854180098173,-1109.1011962890625,444.74542236328125,39.836299896240234,-1248.4794921875,-28.6830997467041,45.12694549560547,11.139226913452148,70.21590423583984,-3.880382537841797,65535.0
18151.854580106727,-1106.19482421875,440.58685302734375,46.38713455200195,-1284.4544677734375,-24.971694946289062,49.04331588745117,17.872432708740234,73.33731079101562,-22.40019416809082,65535.0
18151.85498011528,-1111.5015869140625,439.08892822265625,44.33932876586914,-1305.5245361328125,-33.86873245239258,36.25019454956055,8.011067390441895,63.034175872802734,-23.7795352935791,65535.0
18151.85538012383,-1147.165283203125,451.65777587890625,40.17824935913086,-1306.4141845703125,-29.616432189941406,37.42085266113281,11.377034187316895,67.9391098022461,-15.769058227539062,65535.0
18151.855780132384,-1169.5965576171875,445.2385559082031,33.85555648803711,-1310.491943359375,-31.594066619873047,37.89331817626953,7.793019771575928,66.7989501953125,-9.638734817504883,65535.0
18151.856180140938,-1205.0667724609375,441.8939208984375,37.743370056152344,-1319.7354736328125,-34.02853012084961,39.44965744018555,11.902767181396484,67.00657653808594,-24.274885177612305,65535.0
18151.85658014949,-1230.41064453125,432.3659973144531,26.129854202270508,-1341.3172607421875,-41.289695739746094,28.910640716552734,1.3765846490859985,57.37965774536133,-24.268232345581055,65535.0
18151.85698015804,-1235.24755859375,422.9404296875,29.854713439941406,-1354.65234375,-48.782901763916016,18.313920974731445,-5.1438889503479,52.93229293823242,-16.0131778717041,65535.0
18151.857380166595,-1219.969970703125,423.7938537597656,42.833187103271484,-1375.3829345703125,-34.48515701293945,34.4527702331543,8.458486557006836,65.44229125976562,-18.76030731201172,65535.0
18151.85778017515,-1226.774169921875,425.78076171875,42.56727600097656,-1402.824951171875,-39.34306716918945,30.505531311035156,2.439188003540039,58.0517692565918,-13.77524471282959,65535.0
18151.8581801837,-1239.590576171875,412.4644775390625,39.192134857177734,-1404.9134521484375,-42.99467086791992,26.856691360473633,-1.1942559480667114,54.610862731933594,-18.684492111206055,65535.0
18151.858580192253,-1245.1219482421875,412.3994140625,25.131805419921875,-1389.4814453125,-34.973716735839844,32.71981430053711,5.3020710945129395,62.67558670043945,-23.37656593322754,65535.0
18151.858980200806,-1252.952880859375,408.92938232421875,31.51685905456543,-1374.2850341796875,-40.64392852783203,30.975435256958008,3.169902801513672,58.037471771240234,-29.042888641357422,65535.0
18151.85938020936,-1267.9344482421875,389.7721252441406,36.910526275634766,-1363.660888671875,-42.888423919677734,30.594633102416992,0.3857390582561493,55.82184982299805,-27.9787540435791,65535.0
18151.85978021791,-1264.0386962890625,400.0391845703125,32.41049575805664,-1368.2799072265625,-44.75089645385742,29.706945419311523,-0.01968596875667572,55.51640319824219,-29.76337432861328,65535.0
18151.860180226464,-1280.0201416015625,406.5049743652344,23.84844970703125,-1359.55078125,-39.62884521484375,30.91307258605957,2.123039722442627,55.58614730834961,-31.221176147460938,65535.0
18151.860580235018,-1299.483642578125,411.2453918457031,24.10566520690918,-1359.0098876953125,-31.86532211303711,39.56946563720703,9.730514526367188,65.57534790039062,-10.04715347290039,65535.0
18151.860980243568,-1319.1180419921875,410.6225891113281,32.45920944213867,-1369.2547607421875,-28.849878311157227,48.02177429199219,14.691532135009766,70.43730163574219,-18.28900718688965,65535.0
18151.86138025212,-1330.089111328125,399.2729797363281,40.41379165649414,-1375.521728515625,-28.272449493408203,49.06822967529297,14.857723236083984,67.87174224853516,-29.136070251464844,65535.0
18151.861780260675,-1329.612548828125,386.95318603515625,28.499126434326172,-1381.2684326171875,-26.190771102905273,53.70271301269531,16.810440063476562,73.35093688964844,-1.5295964479446411,65535.0
18151.86218026923,-1332.575927734375,394.23797607421875,29.65524673461914,-1380.46630859375,-33.157135009765625,48.28660202026367,12.433365821838379,65.43907928466797,-18.30426788330078,65535.0
18151.86258027778,-1315.6502685546875,383.4446105957031,34.88462829589844,-1372.6341552734375,-29.1066951751709,56.00529479980469,15.908042907714844,70.82447052001953,-23.371501922607422,65535.0
18151.862980286332,-1294.072998046875,369.0251159667969,28.73883628845215,-1352.0469970703125,-28.50164031982422,56.38554382324219,15.038209915161133,68.43515014648438,-16.161623001098633,65535.0
18151.863380294886,-1276.410400390625,362.4345397949219,26.321392059326172,-1353.720947265625,-25.73007583618164,59.10383224487305,17.7872257232666,72.28298950195312,-20.7265625,65535.0
18151.863780303436,-1268.9796142578125,361.7577209472656,32.13446807861328,-1357.259033203125,-25.11309242248535,60.67510986328125,16.4764347076416,72.34901428222656,-14.775205612182617,65535.0
18151.86418031199,-1249.25390625,354.628173828125,24.613126754760742,-1354.4493408203125,-12.152283668518066,74.06208038330078,27.631759643554688,87.75833129882812,-14.171825408935547,65535.0
18151.864580320544,-1246.505615234375,350.93389892578125,28.966276168823242,-1364.426513671875,-13.102975845336914,80.6080093383789,32.230831146240234,86.35958099365234,-19.155149459838867,65535.0
18151.864980329097,-1255.4588623046875,341.7013244628906,20.33895492553711,-1369.58447265625,-23.469514846801758,69.39391326904297,19.439453125,76.0772476196289,-32.6353645324707,65535.0
18151.865380337647,-1245.063720703125,341.1957092285156,28.0633487701416,-1368.6016845703125,-19.58074378967285,78.06324768066406,23.80244255065918,82.48545837402344,-8.177780151367188,65535.0
18151.8657803462,-1229.982177734375,346.4884338378906,39.210201263427734,-1360.8948974609375,-12.60302734375,82.00202941894531,29.350011825561523,89.06983947753906,-10.194329261779785,65535.0
18151.866180354755,-1229.6005859375,343.9735107421875,28.134183883666992,-1362.9354248046875,-8.823829650878906,83.09086608886719,32.98039245605469,89.8232192993164,-42.850181579589844,65535.0
18151.866580363305,-1227.1773681640625,348.9427795410156,33.76358413696289,-1373.967041015625,-8.813504219055176,87.73914337158203,35.6443977355957,89.63720703125,-33.6317024230957,65535.0
