time,X_NOSE,Y_NOSE,Z_NOSE,visibility_NOSE,X_LEFT_EYE_INNER,Y_LEFT_EYE_INNER,Z_LEFT_EYE_INNER,visibility_LEFT_EYE_INNER,X_LEFT_EYE,Y_LEFT_EYE,Z_LEFT_EYE,visibility_LEFT_EYE,X_LEFT_EYE_OUTER,Y_LEFT_EYE_OUTER,Z_LEFT_EYE_OUTER,visibility_LEFT_EYE_OUTER,X_RIGHT_EYE_OUTER,Y_RIGHT_EYE_OUTER,Z_RIGHT_EYE_OUTER,visibility_RIGHT_EYE_OUTER,X_RIGHT_EYE,Y_RIGHT_EYE,Z_RIGHT_EYE,visibility_RIGHT_EYE,X_RIGHT_EYE_OUTER,Y_RIGHT_EYE_OUTER,Z_RIGHT_EYE_OUTER,visibility_RIGHT_EYE_OUTER,X_LEFT_EAR,Y_LEFT_EAR,Z_LEFT_EAR,visibility_LEFT_EAR,X_RIGHT_EAR,Y_RIGHT_EAR,Z_RIGHT_EAR,visibility_RIGHT_EAR,X_MOUTH_LEFT,Y_MOUTH_LEFT,Z_MOUTH_LEFT,visibility_MOUTH_LEFT,X_MOUTH_RIGHT,Y_MOUTH_RIGHT,Z_MOUTH_RIGHT,visibility_MOUTH_RIGHT,X_LEFT_SHOULDER,Y_LEFT_SHOULDER,Z_LEFT_SHOULDER,visibility_LEFT_SHOULDER,X_RIGHT_SHOULDER,Y_RIGHT_SHOULDER,Z_RIGHT_SHOULDER,visibility_RIGHT_SHOULDER,X_LEFT_ELBOW,Y_LEFT_ELBOW,Z_LEFT_ELBOW,visibility_LEFT_ELBOW,X_RIGHT_ELBOW,Y_RIGHT_ELBOW,Z_RIGHT_ELBOW,visibility_RIGHT_ELBOW,X_LEFT_WRIST,Y_LEFT_WRIST,Z_LEFT_WRIST,visibility_LEFT_WRIST,X_RIGHT_WRIST,Y_RIGHT_WRIST,Z_RIGHT_WRIST,visibility_RIGHT_WRIST,X_LEFT_PINKY,Y_LEFT_PINKY,Z_LEFT_PINKY,visibility_LEFT_PINKY,X_RIGHT_PINKY,Y_RIGHT_PINKY,Z_RIGHT_PINKY,visibility_RIGHT_PINKY,X_LEFT_INDEX,Y_LEFT_INDEX,Z_LEFT_INDEX,visibility_LEFT_INDEX,X_RIGHT_INDEX,Y_RIGHT_INDEX,Z_RIGHT_INDEX,visibility_RIGHT_INDEX,X_LEFT_THUMB,Y_LEFT_THUMB,Z_LEFT_THUMB,visibility_LEFT_THUMB,X_RIGHT_THUMB,Y_RIGHT_THUMB,Z_RIGHT_THUMB,visibility_RIGHT_THUMB,X_LEFT_HIP,Y_LEFT_HIP,Z_LEFT_HIP,visibility_LEFT_HIP,X_RIGHT_HIP,Y_RIGHT_HIP,Z_RIGHT_HIP,visibility_RIGHT_HIP,X_LEFT_KNEE,Y_LEFT_KNEE,Z_LEFT_KNEE,visibility_LEFT_KNEE,X_RIGHT_KNEE,Y_RIGHT_KNEE,Z_RIGHT_KNEE,visibility_RIGHT_KNEE,X_LEFT_ANKLE,Y_LEFT_ANKLE,Z_LEFT_ANKLE,visibility_LEFT_ANKLE,X_RIGHT_ANKLE,Y_RIGHT_ANKLE,Z_RIGHT_ANKLE,visibility_RIGHT_ANKLE,X_LEFT_HEEL,Y_LEFT_HEEL,Z_LEFT_HEEL,visibility_LEFT_HEEL,X_RIGHT_HEEL,Y_RIGHT_HEEL,Z_RIGHT_HEEL,visibility_RIGHT_HEEL,X_LEFT_FOOT_INDEX,Y_LEFT_FOOT_INDEX,Z_LEFT_FOOT_INDEX,visibility_LEFT_FOOT_INDEX,X_RIGHT_FOOT_INDEX,Y_RIGHT_FOOT_INDEX,Z_RIGHT_FOOT_INDEX,visibility_RIGHT_FOOT_INDEX
18167.24277817823,0.44086045026779175,0.22929033637046814,-0.976977527141571,0.9999728202819824,0.44614866375923157,0.20543551445007324,-0.9131852388381958,0.9999502897262573,0.45520877838134766,0.2040880024433136,-0.913371741771698,0.999946117401123,0.46329984068870544,0.2030038833618164,-0.9134907722473145,0.9999402761459351,0.41113007068634033,0.20765486359596252,-0.9430283904075623,0.999947190284729,0.3919432759284973,0.2078937590122223,-0.9431115984916687,0.9999403953552246,0.3736782371997833,0.20850563049316406,-0.9431954622268677,0.9999285936355591,0.4579031467437744,0.21180108189582825,-0.526240348815918,0.999943733215332,0.3252389430999756,0.21966221928596497,-0.6741297841072083,0.9999397993087769,0.4519733190536499,0.25092950463294983,-0.8314509987831116,0.9999825954437256,0.41460779309272766,0.25349658727645874,-0.8732235431671143,0.9999837875366211,0.5372785925865173,0.34728413820266724,-0.2740662395954132,0.9998830556869507,0.18854953348636627,0.3642483353614807,-0.4997648000717163,0.9994657635688782,0.5885892510414124,0.5079155564308167,-0.051657531410455704,0.9710030555725098,0.1638508290052414,0.5151752233505249,-0.6350730061531067,0.908788800239563,0.6532343029975891,0.6390698552131653,-0.33324265480041504,0.9600629806518555,0.24976584315299988,0.5544439554214478,-1.0961023569107056,0.7613582015037537,0.6717159748077393,0.679692268371582,-0.42513707280158997,0.9339926242828369,0.28886374831199646,0.5638125538825989,-1.2127995491027832,0.7429460287094116,0.6541391015052795,0.679180383682251,-0.5216658711433411,0.9405207633972168,0.2891441881656647,0.5330662131309509,-1.2771854400634766,0.7527446746826172,0.641961932182312,0.6703876852989197,-0.3765292465686798,0.9421452879905701,0.2777858078479767,0.5254677534103394,-1.1305941343307495,0.7303333878517151,0.4986504018306732,0.6311773061752319,0.09610651433467865,0.9975548386573792,0.32283782958984375,0.6505208611488342,-0.09564580768346786,0.9976242184638977,0.4929574728012085,0.8334851861000061,0.2835831642150879,0.9472083449363708,0.34183263778686523,0.8696785569190979,0.05084278807044029,0.9734451174736023,0.48951470851898193,0.9602318406105042,1.058812141418457,0.8929982781410217,0.35785120725631714,0.9939770698547363,0.6879819631576538,0.9190918207168579,0.464451402425766,0.9734025597572327,1.1164827346801758,0.8449817895889282,0.3588762879371643,0.996177613735199,0.7345322370529175,0.6789652109146118,0.5491331815719604,1.0222198963165283,0.8135269284248352,0.8535947799682617,0.3876432776451111,1.0859663486480713,0.32362934947013855,0.8098414540290833
18183.9094448449,0.4382363259792328,0.22986799478530884,-1.0164161920547485,0.9999853372573853,0.44441744685173035,0.2059345543384552,-0.9503266215324402,0.9999719858169556,0.45386049151420593,0.2046457827091217,-0.9504776000976562,0.9999687671661377,0.4621616303920746,0.20359370112419128,-0.9505352973937988,0.9999632835388184,0.4092479646205902,0.20816776156425476,-0.9781416654586792,0.9999732971191406,0.39030322432518005,0.20843768119812012,-0.978243350982666,0.9999711513519287,0.3726307153701782,0.20908889174461365,-0.9783453941345215,0.9999662637710571,0.45892900228500366,0.2127496898174286,-0.5570725798606873,0.9999679327011108,0.32569199800491333,0.22031617164611816,-0.6945016384124756,0.9999746084213257,0.45045456290245056,0.25200918316841125,-0.8698897957801819,0.9999903440475464,0.4125415086746216,0.2541026175022125,-0.9087262153625488,0.9999926090240479,0.5387547016143799,0.34736064076423645,-0.28438836336135864,0.9999009370803833,0.1902863085269928,0.3645048439502716,-0.5325178503990173,0.9997566342353821,0.5876753330230713,0.5058615803718567,-0.04587627202272415,0.9733288884162903,0.16296423971652985,0.5190432667732239,-0.7291589975357056,0.9600815773010254,0.651124119758606,0.6356706023216248,-0.3215848505496979,0.9678564071655273,0.25078436732292175,0.5538336634635925,-1.281664490699768,0.8993718028068542,0.6716189980506897,0.6768599152565002,-0.4097021222114563,0.9456647634506226,0.29145264625549316,0.5623898506164551,-1.4129029512405396,0.875546395778656,0.6573230624198914,0.6767158508300781,-0.5069991946220398,0.9505189061164856,0.2896692454814911,0.5304872989654541,-1.4745668172836304,0.8802646398544312,0.6461398601531982,0.6675156354904175,-0.3646191358566284,0.9511368870735168,0.2783568799495697,0.5235666632652283,-1.3164384365081787,0.8604293465614319,0.49644002318382263,0.6295817494392395,0.10294118523597717,0.9978761672973633,0.3220714330673218,0.6504380702972412,-0.10250627249479294,0.9982815980911255,0.4972192943096161,0.82565838098526,0.2928585410118103,0.9562181234359741,0.34407076239585876,0.8669494390487671,0.04690774902701378,0.9797664880752563,0.49243977665901184,0.9608624577522278,1.0803630352020264,0.9042264223098755,0.35992929339408875,0.9914155006408691,0.6874247789382935,0.9302170276641846,0.46968770027160645,0.9721500873565674,1.137924075126648,0.859584629535675,0.35770708322525024,0.9920371770858765,0.7340864539146423,0.7138679623603821,0.5508267879486084,1.0188828706741333,0.8287230730056763,0.8669981956481934,0.3981204330921173,1.0882353782653809,0.3154711425304413,0.8302974700927734
18200.576111511567,0.4413912296295166,0.22957581281661987,-1.017311453819275,0.99998939037323,0.4462694227695465,0.20554009079933167,-0.9543747901916504,0.9999799728393555,0.45526665449142456,0.20402750372886658,-0.9544862508773804,0.9999769926071167,0.46317431330680847,0.2027350664138794,-0.9545110464096069,0.9999732971191406,0.41203218698501587,0.20841902494430542,-0.9845061898231506,0.9999815225601196,0.39369121193885803,0.20896026492118835,-0.9846168160438538,0.9999798536300659,0.3754822909832001,0.20974594354629517,-0.9846923351287842,0.9999769926071167,0.45777949690818787,0.21183273196220398,-0.5718806982040405,0.9999756813049316,0.32689276337623596,0.22079074382781982,-0.7204045057296753,0.9999829530715942,0.45281338691711426,0.2510431408882141,-0.8740859627723694,0.999993085861206,0.41573503613471985,0.25428757071495056,-0.9159890413284302,0.9999948740005493,0.5398905873298645,0.3478739261627197,-0.3061531186103821,0.9999223947525024,0.18874424695968628,0.3641861379146576,-0.5631569623947144,0.9998310804367065,0.5888233184814453,0.5062105655670166,-0.07139349728822708,0.9767994284629822,0.15867610275745392,0.5141278505325317,-0.7407299876213074,0.9717844724655151,0.6528205871582031,0.6365808844566345,-0.3505750000476837,0.9745504856109619,0.2506169080734253,0.5520926713943481,-1.243839979171753,0.926663875579834,0.6723008155822754,0.6788763403892517,-0.4400593042373657,0.9555727243423462,0.2927902936935425,0.5608855485916138,-1.3711636066436768,0.9041783809661865,0.6562834978103638,0.6776979565620422,-0.5378397703170776,0.959441602230072,0.2933434247970581,0.5302026867866516,-1.430323839187622,0.9076454639434814,0.6444886922836304,0.6684420704841614,-0.394160658121109,0.9598488807678223,0.28109073638916016,0.5251251459121704,-1.2766010761260986,0.8915061354637146,0.4964334964752197,0.6310968399047852,0.10300340503454208,0.9982391595840454,0.32039114832878113,0.6511380672454834,-0.10263386368751526,0.9986213445663452,0.49607402086257935,0.8277513384819031,0.34877723455429077,0.9601902365684509,0.3417726755142212,0.8675900101661682,0.09030625969171524,0.9840829968452454,0.49042707681655884,0.9588658213615417,1.1316739320755005,0.9148226380348206,0.35480746626853943,0.9941965937614441,0.7315965294837952,0.9419275522232056,0.4641079604625702,0.9727755188941956,1.1899162530899048,0.8735149502754211,0.3537595272064209,0.9965768456459045,0.7798649072647095,0.750469982624054,0.5520596504211426,1.020313024520874,0.8958706259727478,0.8848875164985657,0.3913780748844147,1.0851539373397827,0.3807537257671356,0.857116162776947
18217.242778178235,0.43799078464508057,0.22641423344612122,-0.9517267942428589,0.999981164932251,0.44439542293548584,0.2046166956424713,-0.8847913146018982,0.9999641180038452,0.4536428451538086,0.20385393500328064,-0.8849567770957947,0.9999592304229736,0.4622431695461273,0.2032533586025238,-0.885002613067627,0.9999535083770752,0.40964388847351074,0.20525819063186646,-0.9137345552444458,0.9999653100967407,0.3919832110404968,0.20509353280067444,-0.9138213992118835,0.9999608993530273,0.3748787045478821,0.20539554953575134,-0.9139084219932556,0.9999549388885498,0.45861363410949707,0.21171197295188904,-0.496835321187973,0.9999555349349976,0.32804960012435913,0.21658620238304138,-0.6411828994750977,0.9999638795852661,0.4496557414531708,0.24815356731414795,-0.8079202175140381,0.9999881982803345,0.4128766655921936,0.249568372964859,-0.8485283255577087,0.999990701675415,0.5396173000335693,0.3485425114631653,-0.25526052713394165,0.9999113082885742,0.19234029948711395,0.3627506196498871,-0.4784303903579712,0.9997316002845764,0.5907609462738037,0.5091369152069092,-0.04269592463970184,0.9794189929962158,0.15771086513996124,0.5145580768585205,-0.6659986972808838,0.9563739895820618,0.6559375524520874,0.6377888917922974,-0.351079523563385,0.9777611494064331,0.2513665556907654,0.5537279844284058,-1.2060720920562744,0.9010964632034302,0.6745582818984985,0.6794755458831787,-0.44967707991600037,0.9613332152366638,0.29166504740715027,0.5630425810813904,-1.3372050523757935,0.8793396949768066,0.6567802429199219,0.6787756085395813,-0.5483538508415222,0.9649499654769897,0.2908793091773987,0.5311585068702698,-1.3974348306655884,0.8843229413032532,0.6453380584716797,0.6696218848228455,-0.395744264125824,0.9649395942687988,0.27979838848114014,0.526171863079071,-1.2402820587158203,0.8666910529136658,0.5005626082420349,0.6320639252662659,0.0972469374537468,0.9980663657188416,0.3239707946777344,0.6523947715759277,-0.09680899977684021,0.9983617663383484,0.49253183603286743,0.8335597515106201,0.2949777841567993,0.9547180533409119,0.33908700942993164,0.87098228931427,0.0676586851477623,0.976493239402771,0.4881637394428253,0.9625155925750732,1.1102725267410278,0.8924395442008972,0.35695141553878784,0.9945794939994812,0.7366716265678406,0.9212157130241394,0.4646133482456207,0.9749773740768433,1.1715571880340576,0.8469871282577515,0.35714444518089294,0.9968830347061157,0.7868829965591431,0.7002269625663757,0.5450807213783264,1.0256211757659912,0.8707140684127808,0.8519195914268494,0.38486939668655396,1.0860447883605957,0.3797629177570343,0.8160085082054138
18233.909444844903,0.43881791830062866,0.22653353214263916,-0.9613902568817139,0.9999822378158569,0.44500264525413513,0.20447269082069397,-0.8941501975059509,0.9999665021896362,0.4541868269443512,0.2036115825176239,-0.8943133354187012,0.9999618530273438,0.46273356676101685,0.20293757319450378,-0.8943613767623901,0.9999566078186035,0.4102136492729187,0.20526495575904846,-0.9229992032051086,0.9999676942825317,0.39271777868270874,0.20511633157730103,-0.9230838418006897,0.9999635219573975,0.37544938921928406,0.20543766021728516,-0.9231800436973572,0.9999579191207886,0.4589860737323761,0.211366206407547,-0.5025152564048767,0.9999591112136841,0.3286155164241791,0.21669375896453857,-0.6466146111488342,0.9999666213989258,0.45053964853286743,0.24822764098644257,-0.8161462545394897,0.9999889135360718,0.4140889346599579,0.24984557926654816,-0.8567135334014893,0.9999914169311523,0.5404048562049866,0.3486504554748535,-0.25563594698905945,0.9999101161956787,0.19367273151874542,0.3617454767227173,-0.48192495107650757,0.9997331500053406,0.5910273790359497,0.5090067386627197,-0.04178276285529137,0.9800849556922913,0.1583452671766281,0.5139172077178955,-0.6728457808494568,0.9568275809288025,0.6558597087860107,0.6375226974487305,-0.35028865933418274,0.9785677790641785,0.2480478286743164,0.5525121092796326,-1.2209556102752686,0.9016358256340027,0.6744321584701538,0.6791380643844604,-0.4495308995246887,0.9624815583229065,0.28769680857658386,0.5622139573097229,-1.3529876470565796,0.8803561329841614,0.6563606262207031,0.6784756183624268,-0.5483629107475281,0.9659913182258606,0.28757309913635254,0.5303036570549011,-1.415648341178894,0.8855756521224976,0.6449368596076965,0.6693810820579529,-0.39501193165779114,0.9657487869262695,0.27690133452415466,0.525294303894043,-1.2562726736068726,0.8683875203132629,0.49995848536491394,0.6314246654510498,0.09856359660625458,0.9978809952735901,0.3234124183654785,0.6514366269111633,-0.09809775650501251,0.9982598423957825,0.49324122071266174,0.8320807218551636,0.2940860986709595,0.9553953409194946,0.33962124586105347,0.8697067499160767,0.05861330032348633,0.9763584136962891,0.4888478219509125,0.9619265198707581,1.0960874557495117,0.8913900852203369,0.35793831944465637,0.9938442707061768,0.7150780558586121,0.9180647134780884,0.46493396162986755,0.9747812747955322,1.1557457447052002,0.845045268535614,0.3586558997631073,0.9962399005889893,0.7636718153953552,0.6897464990615845,0.5448916554450989,1.0250505208969116,0.8509154319763184,0.8478977084159851,0.38636744022369385,1.0871738195419312,0.35022589564323425,0.8058326840400696
18250.57611151157,0.44316110014915466,0.2277204692363739,-0.9540119171142578,0.9999792575836182,0.44771525263786316,0.204692542552948,-0.8890493512153625,0.9999618530273438,0.4564535319805145,0.2034541666507721,-0.8892311453819275,0.9999579191207886,0.46442654728889465,0.20241987705230713,-0.8893033266067505,0.9999516010284424,0.4131614565849304,0.20615491271018982,-0.9200313687324524,0.999962329864502,0.3956471383571625,0.20593968033790588,-0.9201323986053467,0.9999583959579468,0.3774162828922272,0.20607906579971313,-0.9202374815940857,0.9999512434005737,0.4579375982284546,0.2107085883617401,-0.506694495677948,0.999958872795105,0.3297807574272156,0.21686938405036926,-0.6584432721138,0.9999641180038452,0.4544776976108551,0.24906118214130402,-0.8113307952880859,0.9999879598617554,0.4187335669994354,0.25156402587890625,-0.8540987968444824,0.9999903440475464,0.5406608581542969,0.3487486243247986,-0.2542322874069214,0.9999051094055176,0.19523252546787262,0.3630990982055664,-0.5021640658378601,0.9997085928916931,0.5884582996368408,0.5075139999389648,-0.031107142567634583,0.9765928983688354,0.16711919009685516,0.5219864845275879,-0.680914044380188,0.9585955142974854,0.6545321941375732,0.6358733177185059,-0.31994983553886414,0.9739794135093689,0.25636807084083557,0.5547320246696472,-1.2025270462036133,0.9014315009117126,0.6740812659263611,0.6780940890312195,-0.4132736921310425,0.9558150172233582,0.29534217715263367,0.5623417496681213,-1.3289564847946167,0.8808008432388306,0.6577208042144775,0.677537202835083,-0.5091568827629089,0.9599635601043701,0.29119929671287537,0.5312951803207397,-1.392086148262024,0.8856905102729797,0.6464429497718811,0.6680117845535278,-0.3630511164665222,0.9605187773704529,0.28049102425575256,0.5259076952934265,-1.2371021509170532,0.8676583170890808,0.49710679054260254,0.6355153322219849,0.102170430123806,0.9973974227905273,0.3231465816497803,0.6550092101097107,-0.10167067497968674,0.9977511763572693,0.489162802696228,0.8362962007522583,0.28471052646636963,0.9436209201812744,0.34101539850234985,0.8709178566932678,0.043838437646627426,0.9719712734222412,0.48906657099723816,0.963340163230896,1.0492033958435059,0.8721714019775391,0.355889230966568,0.9965878129005432,0.6671323776245117,0.9004783034324646,0.4640154540538788,0.9734958410263062,1.1048977375030518,0.8304135203361511,0.3527282178401947,0.9969214797019958,0.7123083472251892,0.6668975353240967,0.547396183013916,1.0259714126586914,0.8055964112281799,0.824698269367218,0.39272186160087585,1.0947234630584717,0.30224305391311646,0.7740935683250427
18267.24277817824,0.4424400329589844,0.22821545600891113,-0.9722533226013184,0.9999783039093018,0.44719865918159485,0.20449092984199524,-0.9079133868217468,0.99996018409729,0.45586299896240234,0.2030434012413025,-0.9080955386161804,0.9999547004699707,0.46385839581489563,0.20188850164413452,-0.9081947207450867,0.9999500513076782,0.4125383198261261,0.20715290307998657,-0.9378342032432556,0.9999618530273438,0.39417311549186707,0.20762693881988525,-0.9379633665084839,0.9999566078186035,0.3757779598236084,0.20844754576683044,-0.9380939602851868,0.9999512434005737,0.45735278725624084,0.21141964197158813,-0.5223944187164307,0.9999539852142334,0.32699891924858093,0.219766765832901,-0.6708977222442627,0.999962568283081,0.45338353514671326,0.24962997436523438,-0.8279322385787964,0.9999872446060181,0.4162852168083191,0.2524847686290741,-0.8698586821556091,0.9999901056289673,0.53910231590271,0.3492235541343689,-0.2701266407966614,0.9998873472213745,0.19082358479499817,0.362611323595047,-0.5067737698554993,0.9997163414955139,0.5889308452606201,0.5102604627609253,-0.05524325370788574,0.9764662981033325,0.16108478605747223,0.5138493180274963,-0.66845703125,0.9527289867401123,0.6539013981819153,0.6391185522079468,-0.35258275270462036,0.9714884161949158,0.24649377167224884,0.5593723058700562,-1.1760095357894897,0.8818451166152954,0.672802209854126,0.6800824403762817,-0.4494374990463257,0.9518585205078125,0.28623783588409424,0.5667924880981445,-1.301189661026001,0.8605220913887024,0.6546322107315063,0.6792241930961609,-0.5485464334487915,0.9563939571380615,0.2865075469017029,0.5367977619171143,-1.369230031967163,0.8674132823944092,0.6421310901641846,0.6700982451438904,-0.3974398970603943,0.9572175741195679,0.2751994729042053,0.5315596461296082,-1.2124425172805786,0.8503016233444214,0.4972338378429413,0.6323992609977722,0.09779825806617737,0.9969658255577087,0.318895548582077,0.6515101194381714,-0.09735383093357086,0.9976046085357666,0.4872410297393799,0.8375259041786194,0.2665894627571106,0.9455468654632568,0.33704501390457153,0.8741257190704346,0.03342418745160103,0.9714142680168152,0.48933491110801697,0.9639110565185547,1.028138518333435,0.8691807985305786,0.3539462983608246,1.0009196996688843,0.6428139209747314,0.9051069617271423,0.46498197317123413,0.9756541848182678,1.0840139389038086,0.8216318488121033,0.352603018283844,1.0016902685165405,0.6862625479698181,0.6483555436134338,0.5443311333656311,1.0289206504821777,0.784498393535614,0.8249456882476807,0.3868723511695862,1.1007137298583984,0.2692005932331085,0.7821913361549377
18283.909444844907,0.44158244132995605,0.22918099164962769,-0.9795873761177063,0.999983549118042,0.44676679372787476,0.20545485615730286,-0.9146655201911926,0.9999691247940063,0.4556777775287628,0.20400583744049072,-0.9148346781730652,0.9999643564224243,0.46368637681007385,0.2028433084487915,-0.9149073362350464,0.9999597072601318,0.4116370379924774,0.20800432562828064,-0.944349467754364,0.999970555305481,0.39261525869369507,0.2083735167980194,-0.9444608092308044,0.9999673366546631,0.3741822838783264,0.2090659737586975,-0.9445736408233643,0.9999631643295288,0.45797231793403625,0.21196970343589783,-0.5262699127197266,0.9999630451202393,0.3254252076148987,0.22019913792610168,-0.6733654737472534,0.9999732971191406,0.4527720808982849,0.25059670209884644,-0.8342849612236023,0.9999905824661255,0.4155237078666687,0.25312870740890503,-0.8757998943328857,0.9999929666519165,0.5371478199958801,0.348274290561676,-0.2622928023338318,0.999913215637207,0.18906907737255096,0.36356428265571594,-0.5148670077323914,0.9997872710227966,0.5902438759803772,0.5088130831718445,-0.03152063116431236,0.9779683947563171,0.16034959256649017,0.5149439573287964,-0.6820158362388611,0.9642049074172974,0.6547530889511108,0.6396343111991882,-0.3224375247955322,0.9748900532722473,0.24466994404792786,0.5593339204788208,-1.1983226537704468,0.9120810031890869,0.6738663911819458,0.6803758144378662,-0.41772884130477905,0.9569993019104004,0.28652092814445496,0.5671584606170654,-1.3265248537063599,0.8917015194892883,0.6554011106491089,0.6795492768287659,-0.5156645774841309,0.9610839486122131,0.2878529727458954,0.5371035933494568,-1.39359450340271,0.8973084092140198,0.6431292295455933,0.6703863143920898,-0.3666355311870575,0.9615603089332581,0.27571356296539307,0.5321236252784729,-1.2342805862426758,0.8818994164466858,0.49486014246940613,0.6317925453186035,0.10341686010360718,0.9978159666061401,0.32069385051727295,0.6509178876876831,-0.10298799723386765,0.9981498718261719,0.49010607600212097,0.8322124481201172,0.2840750217437744,0.9437832832336426,0.3415863811969757,0.8704233169555664,0.0427466556429863,0.9713189601898193,0.49067121744155884,0.963584303855896,1.0678406953811646,0.8688855767250061,0.359036922454834,0.9973399043083191,0.6811728477478027,0.9013355374336243,0.4673477113246918,0.974662184715271,1.1261669397354126,0.8266476392745972,0.3566094934940338,0.9989925622940063,0.7286803722381592,0.6616483330726624,0.5474076867103577,1.0282914638519287,0.8272255063056946,0.8238406181335449,0.3970588445663452,1.0931754112243652,0.31717172265052795,0.7779541611671448
18300.576111511575,0.4387025833129883,0.22657883167266846,-1.0553321838378906,0.9999827146530151,0.44546231627464294,0.2040967047214508,-0.9912075400352478,0.9999672174453735,0.4549894332885742,0.203098326921463,-0.9913459420204163,0.9999630451202393,0.46348103880882263,0.2023460566997528,-0.9914196133613586,0.9999573230743408,0.41046279668807983,0.20540973544120789,-1.0197986364364624,0.9999679327011108,0.3926343619823456,0.20543846487998962,-1.0199365615844727,0.9999648332595825,0.3748667538166046,0.20586088299751282,-1.0200235843658447,0.9999595880508423,0.4599374830722809,0.21119964122772217,-0.5989882946014404,0.9999582767486572,0.326676607131958,0.21698617935180664,-0.7425817847251892,0.9999676942825317,0.45056813955307007,0.2484470158815384,-0.9081395864486694,0.9999887943267822,0.4129907488822937,0.2500678300857544,-0.9485916495323181,0.9999911785125732,0.540481686592102,0.3492392599582672,-0.3356900215148926,0.9999029636383057,0.19000092148780823,0.3631102442741394,-0.5555012226104736,0.9997017979621887,0.5902814865112305,0.5082144737243652,-0.10845711082220078,0.9816158413887024,0.1590380221605301,0.5200477838516235,-0.7158337831497192,0.9643644690513611,0.6526452898979187,0.6378285884857178,-0.40241774916648865,0.9775530099868774,0.25432977080345154,0.5575684905052185,-1.2292335033416748,0.9083593487739563,0.6715816259384155,0.6802038550376892,-0.49843892455101013,0.9587014317512512,0.2996925711631775,0.5638768672943115,-1.3560394048690796,0.8817611932754517,0.653408408164978,0.6794355511665344,-0.5974239110946655,0.9624138474464417,0.2979902923107147,0.5342893600463867,-1.4158037900924683,0.886572003364563,0.6411428451538086,0.6700130105018616,-0.4465269148349762,0.9626736044883728,0.2853696346282959,0.5287338495254517,-1.2618811130523682,0.8696906566619873,0.5013847947120667,0.6294512152671814,0.09015706926584244,0.9975666999816895,0.32054951786994934,0.6487357020378113,-0.08974985778331757,0.9978297352790833,0.4923490285873413,0.8335312604904175,0.25034624338150024,0.9516157507896423,0.34024494886398315,0.8684279918670654,0.03630322962999344,0.9721030592918396,0.4904806315898895,0.9675174355506897,1.0431851148605347,0.885356068611145,0.36164677143096924,0.9943479299545288,0.6877054572105408,0.9085681438446045,0.4663407802581787,0.9794232249259949,1.1012084484100342,0.8337053060531616,0.36385688185691833,0.9963451027870178,0.7349917888641357,0.657317578792572,0.5447291135787964,1.0302135944366455,0.7859171032905579,0.8377434015274048,0.38673704862594604,1.0926613807678223,0.3102070093154907,0.7897749543190002
18317.242778178243,0.4382150173187256,0.22422552108764648,-1.0607194900512695,0.9999898672103882,0.4452471435070038,0.20266908407211304,-0.9921911954879761,0.999980092048645,0.45475316047668457,0.2021496295928955,-0.9923033714294434,0.9999778270721436,0.4633663594722748,0.20159494876861572,-0.9922985434532166,0.9999735355377197,0.41036656498908997,0.20340633392333984,-1.0223631858825684,0.9999806880950928,0.3921774625778198,0.20349854230880737,-1.022473931312561,0.9999792575836182,0.37395191192626953,0.20379310846328735,-1.0225143432617188,0.9999749660491943,0.4607574939727783,0.21012359857559204,-0.5930778384208679,0.9999743700027466,0.3267226815223694,0.21462470293045044,-0.7439095377922058,0.9999786615371704,0.45007917284965515,0.24756580591201782,-0.913068950176239,0.9999924898147583,0.4129830300807953,0.24890464544296265,-0.955581545829773,0.9999940395355225,0.5377504825592041,0.3466462194919586,-0.3353281319141388,0.9999217987060547,0.18803247809410095,0.3651946485042572,-0.5607026219367981,0.9997273087501526,0.593748927116394,0.5082383751869202,-0.10365957021713257,0.9827605485916138,0.15975429117679596,0.5220819711685181,-0.75258868932724,0.9610220789909363,0.6574907302856445,0.6404047608375549,-0.3966004550457001,0.9809485673904419,0.2552099823951721,0.5542787313461304,-1.3105320930480957,0.9117123484611511,0.6751737594604492,0.6813567876815796,-0.49032869935035706,0.9639312624931335,0.29536744952201843,0.5604507327079773,-1.4446314573287964,0.888614296913147,0.6563518047332764,0.6803446412086487,-0.5891827940940857,0.9671424627304077,0.29135823249816895,0.5281684398651123,-1.5017348527908325,0.8922911286354065,0.6447807550430298,0.6710410714149475,-0.4402807056903839,0.9670511484146118,0.2803415060043335,0.5244438052177429,-1.3435553312301636,0.8739407658576965,0.49861329793930054,0.6300361156463623,0.09331021457910538,0.9982849955558777,0.3197750151157379,0.6504488587379456,-0.09292210638523102,0.998537540435791,0.4956537187099457,0.8268651962280273,0.31807780265808105,0.9629713296890259,0.341219037771225,0.8625085949897766,0.08358985930681229,0.9817600846290588,0.49183568358421326,0.9606531262397766,1.1255009174346924,0.9197255373001099,0.36185503005981445,0.9908095598220825,0.7515726089477539,0.9413438439369202,0.46757468581199646,0.9728701114654541,1.1849524974822998,0.8782566785812378,0.3624524176120758,0.9891514778137207,0.8003050684928894,0.7431020140647888,0.557919979095459,1.0214171409606934,0.8732468485832214,0.8891282081604004,0.39333420991897583,1.086459994316101,0.3803337514400482,0.8551377654075623
18333.90944484491,0.438685804605484,0.2265518307685852,-1.0141818523406982,0.9999891519546509,0.44523438811302185,0.20502236485481262,-0.9462248086929321,0.9999799728393555,0.45442602038383484,0.2044447362422943,-0.9463729858398438,0.9999768733978271,0.46282392740249634,0.2037453055381775,-0.9463922381401062,0.9999727010726929,0.4106755256652832,0.2052363157272339,-0.9775453805923462,0.9999805688858032,0.39254921674728394,0.2048165202140808,-0.9776647686958313,0.9999786615371704,0.3740321099758148,0.20467516779899597,-0.9777593016624451,0.9999755620956421,0.45868581533432007,0.21109595894813538,-0.5510345697402954,0.9999750852584839,0.32547035813331604,0.2147928774356842,-0.7067274451255798,0.9999805688858032,0.44898274540901184,0.2496417909860611,-0.8674807548522949,0.9999932050704956,0.4133301377296448,0.2506903409957886,-0.9114246368408203,0.9999947547912598,0.538926899433136,0.34702515602111816,-0.30137863755226135,0.9999253749847412,0.1826174259185791,0.36402812600135803,-0.524857223033905,0.9997729659080505,0.5921775698661804,0.509260892868042,-0.07919394969940186,0.9826258420944214,0.15634925663471222,0.5196519494056702,-0.7226085662841797,0.9658035039901733,0.6551364660263062,0.6415842771530151,-0.39933305978775024,0.9818940758705139,0.24943475425243378,0.5562078356742859,-1.300801157951355,0.9302107691764832,0.6735022068023682,0.6828917860984802,-0.5009991526603699,0.9664292931556702,0.2893108129501343,0.5638968348503113,-1.437394618988037,0.9114784598350525,0.654586911201477,0.6817827224731445,-0.599811315536499,0.9695284962654114,0.2863326072692871,0.5324420928955078,-1.498842477798462,0.9155228137969971,0.6427457928657532,0.6722290515899658,-0.44394639134407043,0.9693430066108704,0.275276243686676,0.5271159410476685,-1.3354049921035767,0.9002133011817932,0.49951016902923584,0.6304739713668823,0.08353060483932495,0.9984266757965088,0.3208044171333313,0.6513751745223999,-0.08308492600917816,0.9987731575965881,0.4906858503818512,0.8347119688987732,0.2660582363605499,0.9663978815078735,0.33809754252433777,0.8690275549888611,0.06102156639099121,0.9783360958099365,0.49315783381462097,0.964360773563385,1.139064073562622,0.9133923649787903,0.3619639575481415,0.9972230195999146,0.7444623112678528,0.9318518042564392,0.47249266505241394,0.9759243726730347,1.205593466758728,0.8697741627693176,0.3688141703605652,1.0213693380355835,0.7954595685005188,0.717191755771637,0.5470089912414551,1.028491497039795,0.8964316844940186,0.8747865557670593,0.3824317455291748,1.0924108028411865,0.3740893006324768,0.8349668383598328
18350.57611151158,0.4429572820663452,0.22651541233062744,-1.0366891622543335,0.9999884366989136,0.447333425283432,0.20458608865737915,-0.9700945615768433,0.9999785423278809,0.45615649223327637,0.20372790098190308,-0.9702245593070984,0.9999750852584839,0.4641905725002289,0.2028403878211975,-0.9702097177505493,0.9999704360961914,0.41305992007255554,0.20547887682914734,-1.0036377906799316,0.9999803304672241,0.3953858017921448,0.20525988936424255,-1.0037715435028076,0.99997878074646,0.3763488829135895,0.20537856221199036,-1.003857970237732,0.9999756813049316,0.4575849771499634,0.2104485034942627,-0.5775217413902283,0.9999728202819824,0.32652559876441956,0.21596166491508484,-0.7416741251945496,0.9999821186065674,0.4530150890350342,0.24912790954113007,-0.8905687928199768,0.9999926090240479,0.41678592562675476,0.25108370184898376,-0.9367530941963196,0.9999948740005493,0.5382726192474365,0.3483346402645111,-0.31685537099838257,0.9999226331710815,0.18189837038516998,0.36606112122535706,-0.5726932883262634,0.9998020529747009,0.5907720327377319,0.5091872811317444,-0.08843598514795303,0.9814613461494446,0.15724453330039978,0.5251893997192383,-0.755556583404541,0.9747937321662903,0.653671145439148,0.6384595632553101,-0.40922433137893677,0.9817174673080444,0.24736686050891876,0.5551556348800659,-1.293282151222229,0.9438084363937378,0.6734411120414734,0.6807652711868286,-0.5097352266311646,0.9665073156356812,0.28703001141548157,0.5609666109085083,-1.4276187419891357,0.9253367781639099,0.6550657749176025,0.6800243258476257,-0.6088652014732361,0.9695884585380554,0.28204894065856934,0.5302156209945679,-1.4896191358566284,0.9287844300270081,0.6432746648788452,0.6704568862915039,-0.45438992977142334,0.9698161482810974,0.27140629291534424,0.5259427428245544,-1.327227234840393,0.9151520133018494,0.496604859828949,0.6325775384902954,0.10063084214925766,0.9982611536979675,0.319108247756958,0.6532573103904724,-0.10022640228271484,0.9986556768417358,0.49133214354515076,0.8321363925933838,0.3505672216415405,0.9600789546966553,0.33898231387138367,0.8686050176620483,0.10296560823917389,0.9805507659912109,0.48937299847602844,0.9614957571029663,1.185370922088623,0.9098852872848511,0.35877081751823425,0.9962420463562012,0.7785069942474365,0.9330694675445557,0.46601733565330505,0.9736024141311646,1.2487046718597412,0.8744813203811646,0.3597092032432556,0.9980133175849915,0.8299429416656494,0.7426531910896301,0.5494042038917542,1.0247600078582764,0.9503090381622314,0.8769335746765137,0.39294230937957764,1.0908184051513672,0.4212915599346161,0.8377864360809326
18367.242778178246,0.43843042850494385,0.2263895869255066,-0.9839549660682678,0.9999891519546509,0.44455835223197937,0.20311301946640015,-0.9165686368942261,0.9999799728393555,0.4542069733142853,0.20196014642715454,-0.9167214632034302,0.9999772310256958,0.46270811557769775,0.2010495960712433,-0.9167100787162781,0.9999731779098511,0.4086568355560303,0.2046717405319214,-0.9459671378135681,0.999981164932251,0.39024797081947327,0.20473164319992065,-0.9460628628730774,0.9999794960021973,0.3728836178779602,0.20525920391082764,-0.9461398124694824,0.9999762773513794,0.4593290090560913,0.209951251745224,-0.527384877204895,0.9999760389328003,0.32623881101608276,0.21676188707351685,-0.6716045141220093,0.9999830722808838,0.4514598250389099,0.24821320176124573,-0.8401905298233032,0.9999933242797852,0.41379836201667786,0.25048595666885376,-0.8806968331336975,0.9999949932098389,0.5400168895721436,0.3466792404651642,-0.2650410234928131,0.9999264478683472,0.19086262583732605,0.3653985559940338,-0.522480309009552,0.9998326301574707,0.5875701904296875,0.505967378616333,-0.041770417243242264,0.9771392941474915,0.15873555839061737,0.5188058614730835,-0.7129306197166443,0.9728409647941589,0.6524225473403931,0.6370466947555542,-0.3500380516052246,0.9759935736656189,0.24530862271785736,0.5531332492828369,-1.258471965789795,0.9341245889663696,0.6714077591896057,0.6790978908538818,-0.44557344913482666,0.9588404893875122,0.28493428230285645,0.5617218613624573,-1.3923707008361816,0.9139918684959412,0.6550785303115845,0.6782932281494141,-0.5431753396987915,0.9624354839324951,0.2822331190109253,0.530197262763977,-1.4533156156539917,0.9174478054046631,0.6441141366958618,0.6687780022621155,-0.39431172609329224,0.9628283381462097,0.2711849510669708,0.5249595046043396,-1.2929645776748657,0.9030482769012451,0.4948100447654724,0.6338217258453369,0.1112876683473587,0.9981766939163208,0.3228990435600281,0.6554951667785645,-0.11084108799695969,0.9985384941101074,0.4961393177509308,0.8276712894439697,0.34608542919158936,0.9534252285957336,0.3423258364200592,0.8686875104904175,0.08029971271753311,0.9822494983673096,0.4897673726081848,0.9606466889381409,1.1328703165054321,0.9046241641044617,0.356192022562027,0.9941563606262207,0.724572479724884,0.9332753419876099,0.46253103017807007,0.9732300043106079,1.1907448768615723,0.8696720004081726,0.3551216125488281,0.9952788352966309,0.772641658782959,0.745243489742279,0.5519436597824097,1.0221707820892334,0.8944777250289917,0.8704960346221924,0.3976808488368988,1.0897637605667114,0.36949440836906433,0.8364410400390625
18383.909444844914,0.4402022063732147,0.2264518141746521,-0.9946351051330566,0.9999891519546509,0.4454275369644165,0.20275062322616577,-0.9274230599403381,0.9999796152114868,0.45487046241760254,0.20140036940574646,-0.9275653958320618,0.999976634979248,0.463182657957077,0.20032158493995667,-0.9275643229484558,0.9999727010726929,0.409495085477829,0.20484602451324463,-0.9547970294952393,0.9999806880950928,0.39063918590545654,0.2050490379333496,-0.954902172088623,0.9999792575836182,0.3729425072669983,0.20569875836372375,-0.9549822807312012,0.9999760389328003,0.459944486618042,0.20964065194129944,-0.5386892557144165,0.999974250793457,0.3266156315803528,0.21742019057273865,-0.6746007204055786,0.9999823570251465,0.45323145389556885,0.24832603335380554,-0.8513277769088745,0.999992847442627,0.4153027832508087,0.25068312883377075,-0.8894799947738647,0.9999947547912598,0.5406482815742493,0.34716561436653137,-0.2740778923034668,0.9999188184738159,0.19241268932819366,0.36244332790374756,-0.5314085483551025,0.9998351335525513,0.5893847942352295,0.5071208477020264,-0.04768509790301323,0.9756497144699097,0.16153034567832947,0.5137420892715454,-0.7199268341064453,0.9694616198539734,0.6534544825553894,0.6385077238082886,-0.33995261788368225,0.9734572172164917,0.24843750894069672,0.5575828552246094,-1.2609096765518188,0.9256613850593567,0.6720105409622192,0.6798180341720581,-0.43277764320373535,0.955070436000824,0.2862069010734558,0.5668650269508362,-1.3948343992233276,0.9058122038841248,0.6555227637290955,0.6790946125984192,-0.530458927154541,0.9589431285858154,0.2870207726955414,0.5354475975036621,-1.4586777687072754,0.9100236296653748,0.644479513168335,0.6699311137199402,-0.3840097188949585,0.9596533179283142,0.2762269377708435,0.5289489030838013,-1.2968285083770752,0.8956206440925598,0.4945935606956482,0.631277859210968,0.11133625358343124,0.9983139038085938,0.3215736448764801,0.6514546275138855,-0.1109376847743988,0.9986225366592407,0.4954572916030884,0.8234933018684387,0.34233421087265015,0.9511117935180664,0.34262585639953613,0.8641811013221741,0.076969213783741,0.9818325042724609,0.4893920421600342,0.95924311876297,1.120071291923523,0.904136061668396,0.35726597905158997,0.9901628494262695,0.7180740237236023,0.9346094727516174,0.46210455894470215,0.9732697606086731,1.177392840385437,0.8717790842056274,0.3561364710330963,0.9925726056098938,0.7659642100334167,0.745486319065094,0.5557518005371094,1.0196340084075928,0.8820602893829346,0.8719611167907715,0.3971919119358063,1.0846357345581055,0.3636643886566162,0.8401049971580505
18400.576111511582,0.437030553817749,0.22498726844787598,-1.0671039819717407,0.9999915361404419,0.4429854452610016,0.20173737406730652,-1.0003528594970703,0.9999834299087524,0.4530212879180908,0.2006320059299469,-1.0004768371582031,0.9999810457229614,0.4618714451789856,0.19975483417510986,-1.000460147857666,0.9999768733978271,0.40687137842178345,0.20351552963256836,-1.029165267944336,0.9999849796295166,0.3878384530544281,0.20382606983184814,-1.0293034315109253,0.9999840259552002,0.37086525559425354,0.2045532464981079,-1.029387354850769,0.9999817609786987,0.459713876247406,0.20937037467956543,-0.6053218841552734,0.9999794960021973,0.32461556792259216,0.2163621187210083,-0.7466859221458435,0.9999852180480957,0.4502236843109131,0.24754756689071655,-0.9205150604248047,0.999994158744812,0.41191548109054565,0.24947665631771088,-0.9603171348571777,0.9999957084655762,0.5404137372970581,0.3467865288257599,-0.3343699872493744,0.9999200105667114,0.1824999451637268,0.36706075072288513,-0.5746691823005676,0.9998243451118469,0.5880697965621948,0.5083490610122681,-0.10798239707946777,0.9813795685768127,0.15954473614692688,0.5256658792495728,-0.7832059264183044,0.9763619303703308,0.6525905132293701,0.63914954662323,-0.4263972342014313,0.9787393808364868,0.25503283739089966,0.554084062576294,-1.3693411350250244,0.9529442191123962,0.6703687310218811,0.680442214012146,-0.5238311886787415,0.960720419883728,0.2959928512573242,0.5607700943946838,-1.5095789432525635,0.9347357153892517,0.6528871655464172,0.6796233654022217,-0.6237633228302002,0.9641060829162598,0.290980726480484,0.5248615741729736,-1.5652623176574707,0.9370089173316956,0.6414799690246582,0.6704502105712891,-0.4714686870574951,0.9643780589103699,0.2798999845981598,0.5214831233024597,-1.4019137620925903,0.9230480194091797,0.49721476435661316,0.6293491125106812,0.09806408733129501,0.9981734752655029,0.3203932046890259,0.6510934233665466,-0.09761752933263779,0.9986472725868225,0.4933898448944092,0.8283257484436035,0.300851047039032,0.9651684165000916,0.34416547417640686,0.867384135723114,0.07038099318742752,0.9839640259742737,0.4876282215118408,0.9581678509712219,1.1602864265441895,0.9124715924263,0.362052321434021,0.9920525550842285,0.7616273164749146,0.9427866339683533,0.46324312686920166,0.9709768891334534,1.2247443199157715,0.8711284399032593,0.3635159134864807,0.9916431307792664,0.8137163519859314,0.7543200850486755,0.5473582744598389,1.0223896503448486,0.9158423542976379,0.8784775137901306,0.39296698570251465,1.0888500213623047,0.3946618139743805,0.8563164472579956
18417.24277817825,0.44124865531921387,0.22864505648612976,-1.03916597366333,0.9999853372573853,0.44774186611175537,0.20433634519577026,-0.9771078824996948,0.9999715089797974,0.456729531288147,0.20306113362312317,-0.977239727973938,0.9999659061431885,0.4652348458766937,0.20202699303627014,-0.977286159992218,0.9999614953994751,0.41159170866012573,0.20683711767196655,-1.0060558319091797,0.9999741315841675,0.3927682340145111,0.2072923183441162,-1.0061755180358887,0.9999704360961914,0.3739257752895355,0.20818892121315002,-1.0062960386276245,0.9999672174453735,0.4600728750228882,0.21050140261650085,-0.5890694260597229,0.9999626874923706,0.32477349042892456,0.21879640221595764,-0.7337689995765686,0.9999748468399048,0.45324552059173584,0.24963700771331787,-0.8929299712181091,0.999990701675415,0.41480034589767456,0.25202450156211853,-0.9338704943656921,0.9999936819076538,0.5404908657073975,0.3485507071018219,-0.320717990398407,0.9999028444290161,0.18363605439662933,0.36141330003738403,-0.5549367070198059,0.9998050332069397,0.5900703072547913,0.5088433027267456,-0.088887520134449,0.979381799697876,0.15212664008140564,0.5139865875244141,-0.7069795727729797,0.9637425541877747,0.6537379026412964,0.6375423669815063,-0.3866617679595947,0.9741902351379395,0.25089192390441895,0.5661727786064148,-1.2080962657928467,0.9065746665000916,0.6728050708770752,0.6801993250846863,-0.48322954773902893,0.9542772173881531,0.2893582582473755,0.5757808685302734,-1.335018515586853,0.882660448551178,0.6568013429641724,0.6792610287666321,-0.5870286822319031,0.9584864377975464,0.2960767447948456,0.5482773184776306,-1.4036957025527954,0.8891032338142395,0.6460069417953491,0.6694377660751343,-0.433473140001297,0.959290087223053,0.28520020842552185,0.5422126054763794,-1.244253158569336,0.8740617036819458,0.49647536873817444,0.6270068883895874,0.09464994072914124,0.9977411031723022,0.31532108783721924,0.647366464138031,-0.09417632222175598,0.9983882904052734,0.4916646480560303,0.8327010869979858,0.26039987802505493,0.9663559198379517,0.3399042785167694,0.8676375150680542,0.04494212567806244,0.9826280474662781,0.48974183201789856,0.9603577852249146,1.082487940788269,0.8986692428588867,0.35963404178619385,0.9986101984977722,0.6827030181884766,0.9398007392883301,0.46747177839279175,0.9708120822906494,1.1438772678375244,0.8476946353912354,0.36284828186035156,0.9981491565704346,0.7293174862861633,0.7200188040733337,0.5452565550804138,1.023606538772583,0.8441283702850342,0.854569137096405,0.38377508521080017,1.0904624462127686,0.31378382444381714,0.8461723923683167
18433.909444844918,0.4421824812889099,0.2263074517250061,-0.9427911043167114,0.9999880790710449,0.4479049742221832,0.20038515329360962,-0.8794876933097839,0.9999768733978271,0.45692574977874756,0.19954943656921387,-0.8796372413635254,0.999972939491272,0.4657333791255951,0.19865640997886658,-0.8796608448028564,0.9999688863754272,0.4120834171772003,0.20414689183235168,-0.9106771349906921,0.9999788999557495,0.392979234457016,0.20583215355873108,-0.9108002185821533,0.9999769926071167,0.3738160729408264,0.20765531063079834,-0.910921573638916,0.9999738931655884,0.4600115716457367,0.20865127444267273,-0.5042131543159485,0.9999717473983765,0.32442718744277954,0.21989718079566956,-0.658057689666748,0.9999823570251465,0.45555856823921204,0.24788211286067963,-0.802525520324707,0.9999933242797852,0.41630417108535767,0.24986444413661957,-0.8459489941596985,0.9999954700469971,0.5424992442131042,0.3474378287792206,-0.24640512466430664,0.9999285936355591,0.18555593490600586,0.36370253562927246,-0.5111496448516846,0.9998555183410645,0.589367151260376,0.5059159398078918,-0.008936334401369095,0.9820652604103088,0.15465828776359558,0.5140140056610107,-0.6843260526657104,0.9754378199577332,0.6536865234375,0.6372445225715637,-0.2929733693599701,0.9833206534385681,0.24844016134738922,0.5583409667015076,-1.1980152130126953,0.9474138617515564,0.674498975276947,0.6800283789634705,-0.38588663935661316,0.9707566499710083,0.2865770161151886,0.5678681135177612,-1.3238846063613892,0.9328246116638184,0.6592538952827454,0.6793746948242188,-0.4833141267299652,0.9735457897186279,0.2887975573539734,0.5398524403572083,-1.3928240537643433,0.9368957877159119,0.6488500833511353,0.6699368953704834,-0.3366602659225464,0.9738355875015259,0.278205931186676,0.5346641540527344,-1.233982801437378,0.9262368679046631,0.49729257822036743,0.6293331384658813,0.1085413470864296,0.9980387091636658,0.32078132033348083,0.6513707637786865,-0.10814981907606125,0.9984467625617981,0.4894980490207672,0.8382658362388611,0.30876782536506653,0.9555655717849731,0.33978912234306335,0.8689178228378296,0.055642228573560715,0.9771301746368408,0.4872851073741913,0.963977038860321,1.0941357612609863,0.8814042210578918,0.35555875301361084,0.9966240525245667,0.6851693391799927,0.9114676713943481,0.4604661464691162,0.9727654457092285,1.1527249813079834,0.8362608551979065,0.35461002588272095,0.9958054423332214,0.7326563596725464,0.6937970519065857,0.5453963279724121,1.0266425609588623,0.8668861389160156,0.8312555551528931,0.39583584666252136,1.0921623706817627,0.33477821946144104,0.791278064250946
18450.576111511586,0.4416727125644684,0.22572290897369385,-1.0453444719314575,0.9999899864196777,0.44742849469184875,0.2002716064453125,-0.9800661206245422,0.9999810457229614,0.45653700828552246,0.1995576024055481,-0.9801936149597168,0.9999783039093018,0.46532556414604187,0.19887304306030273,-0.9802238345146179,0.9999746084213257,0.4115082621574402,0.2032439410686493,-1.0113775730133057,0.9999818801879883,0.3926904797554016,0.2044488787651062,-1.01150643825531,0.999980092048645,0.3740970194339752,0.20613384246826172,-1.0116249322891235,0.999976634979248,0.4599292576313019,0.21021488308906555,-0.585452139377594,0.9999780654907227,0.3243103623390198,0.21929830312728882,-0.7399278879165649,0.9999830722808838,0.4540601074695587,0.24713335931301117,-0.8977488279342651,0.9999939203262329,0.4154946804046631,0.24931558966636658,-0.9415362477302551,0.9999953508377075,0.541799783706665,0.3482487201690674,-0.3081914186477661,0.9999301433563232,0.1863269954919815,0.36283084750175476,-0.5732082724571228,0.9998182654380798,0.5910472869873047,0.5077260732650757,-0.06663686037063599,0.9815238118171692,0.15661898255348206,0.5127854347229004,-0.7642815709114075,0.9699894189834595,0.6536505222320557,0.6382051706314087,-0.3617190718650818,0.9815798401832581,0.24742774665355682,0.555011510848999,-1.3123779296875,0.9321107268333435,0.6720935702323914,0.6811102628707886,-0.45520535111427307,0.9665212631225586,0.2858352065086365,0.5654594898223877,-1.4452002048492432,0.9131654500961304,0.6567606329917908,0.6799756288528442,-0.558058500289917,0.9697571396827698,0.28800588846206665,0.5348445177078247,-1.5132050514221191,0.9177432060241699,0.6467198133468628,0.6701008081436157,-0.4076554477214813,0.9696459770202637,0.2772432565689087,0.5285519957542419,-1.349441409111023,0.9032824635505676,0.4971522390842438,0.6256071925163269,0.10459664463996887,0.9982032775878906,0.31899213790893555,0.6478546261787415,-0.10415764898061752,0.9986696243286133,0.4920410215854645,0.830525279045105,0.30706480145454407,0.965628981590271,0.3425430357456207,0.8647871017456055,0.04618168622255325,0.9828118681907654,0.48703324794769287,0.9601566791534424,1.141964077949524,0.9062504172325134,0.3616543114185333,0.9944419860839844,0.6918818354606628,0.9374955296516418,0.46287888288497925,0.9705380797386169,1.204078197479248,0.8602883219718933,0.3603495657444,0.9959168434143066,0.7392184138298035,0.7261740565299988,0.5428468585014343,1.0213501453399658,0.9002962708473206,0.8676265478134155,0.3960283100605011,1.089369297027588,0.3199059069156647,0.8457726240158081
18467.242778178254,0.44071638584136963,0.23032179474830627,-1.0044786930084229,0.9999816417694092,0.44683703780174255,0.20637527108192444,-0.941281795501709,0.9999642372131348,0.45587819814682007,0.20494556427001953,-0.9414065480232239,0.9999583959579468,0.4640929698944092,0.20378318428993225,-0.9414310455322266,0.9999514818191528,0.41089725494384766,0.2089981734752655,-0.9709439277648926,0.9999672174453735,0.3919500410556793,0.2093890905380249,-0.9710517525672913,0.9999651908874512,0.3731967806816101,0.20998555421829224,-0.9711743593215942,0.9999607801437378,0.4593401551246643,0.21209335327148438,-0.5532401204109192,0.9999542236328125,0.3251488208770752,0.22000354528427124,-0.7000819444656372,0.9999730587005615,0.4526328444480896,0.25132521986961365,-0.8585709929466248,0.9999886751174927,0.4141700267791748,0.2544421851634979,-0.9000506401062012,0.9999922513961792,0.5389570593833923,0.3477669954299927,-0.27143675088882446,0.9999053478240967,0.18688556551933289,0.36064139008522034,-0.5468786358833313,0.9998345375061035,0.5897908210754395,0.5087524652481079,-0.01592297852039337,0.9736156463623047,0.15672270953655243,0.5094099640846252,-0.7168164849281311,0.9709779024124146,0.6522199511528015,0.637802243232727,-0.2938239872455597,0.9716413021087646,0.2482360601425171,0.5609035491943359,-1.2302582263946533,0.9284543991088867,0.6713626384735107,0.6811974048614502,-0.3843356668949127,0.9526195526123047,0.28876274824142456,0.5710340142250061,-1.3596158027648926,0.9097665548324585,0.6568505764007568,0.6804076433181763,-0.4839985966682434,0.9570204019546509,0.29236873984336853,0.5418031811714172,-1.42906653881073,0.915032684803009,0.6468045115470886,0.6703118085861206,-0.338736355304718,0.9580559134483337,0.28099656105041504,0.5361028909683228,-1.2673025131225586,0.9019362926483154,0.4970880448818207,0.6302151083946228,0.11289270222187042,0.9984069466590881,0.31947994232177734,0.6506578326225281,-0.11248502135276794,0.998748779296875,0.4938455820083618,0.8320058584213257,0.3205401301383972,0.9585685729980469,0.34572166204452515,0.8618673086166382,0.06616231054067612,0.981212317943573,0.4873916804790497,0.9580928087234497,1.1745575666427612,0.8958452343940735,0.3561597168445587,0.9873234629631042,0.7557597756385803,0.9275866746902466,0.4621433913707733,0.9685503840446472,1.2402628660202026,0.854059100151062,0.35384324193000793,0.9872956275939941,0.8099908232688904,0.7208082675933838,0.5500962734222412,1.0197092294692993,0.9488692283630371,0.8537541031837463,0.3976932764053345,1.0790073871612549,0.4093257486820221,0.8255502581596375
18483.90944484492,0.4405157268047333,0.23024770617485046,-1.028542399406433,0.9999884366989136,0.4462321996688843,0.20626327395439148,-0.9649698138237,0.9999778270721436,0.4552714228630066,0.20493042469024658,-0.9650864005088806,0.9999748468399048,0.463502436876297,0.20385733246803284,-0.9651029706001282,0.9999701976776123,0.41058143973350525,0.20864447951316833,-0.9951311349868774,0.9999794960021973,0.39181312918663025,0.2089686393737793,-0.9952433705329895,0.9999780654907227,0.37333136796951294,0.20957690477371216,-0.9953466653823853,0.9999744892120361,0.45818379521369934,0.2121887505054474,-0.5730360746383667,0.9999728202819824,0.32479023933410645,0.21990719437599182,-0.7226269245147705,0.9999819993972778,0.4522685110569,0.2514951825141907,-0.8813944458961487,0.9999923706054688,0.4141494035720825,0.2542913556098938,-0.9236580729484558,0.9999945163726807,0.5377320051193237,0.34808430075645447,-0.2885914444923401,0.9999246597290039,0.18655940890312195,0.3642829358577728,-0.5611984729766846,0.9998384714126587,0.5891233682632446,0.5062113404273987,-0.03420567885041237,0.9774953722953796,0.1575898975133896,0.5128148794174194,-0.7458600997924805,0.9709503650665283,0.6502172946929932,0.6367685198783875,-0.30925968289375305,0.9755977392196655,0.24853655695915222,0.5544586181640625,-1.278613567352295,0.9288634657859802,0.6687769889831543,0.6795366406440735,-0.3978400230407715,0.9575110673904419,0.291728138923645,0.5659657120704651,-1.408362627029419,0.9096185564994812,0.6533795595169067,0.678627073764801,-0.4972633421421051,0.9613163471221924,0.29553231596946716,0.5359855890274048,-1.4750934839248657,0.9140374660491943,0.6426286697387695,0.6689870953559875,-0.35329464077949524,0.9617506265640259,0.2826903462409973,0.5292641520500183,-1.314497709274292,0.899111807346344,0.4947691559791565,0.6282772421836853,0.10951915383338928,0.9982026815414429,0.31773027777671814,0.6497858166694641,-0.1090749055147171,0.9986613988876343,0.4949134588241577,0.825363039970398,0.3232753574848175,0.9557684659957886,0.34233856201171875,0.8647676706314087,0.04021671786904335,0.9803952574729919,0.48826292157173157,0.9589466452598572,1.1133838891983032,0.8963974118232727,0.35784971714019775,0.9944929480552673,0.6590461730957031,0.9262163639068604,0.46268486976623535,0.9712964296340942,1.171527624130249,0.8553169369697571,0.3570239543914795,0.9951916933059692,0.7044774889945984,0.7084957361221313,0.5443341732025146,1.0218371152877808,0.8729835152626038,0.8526594638824463,0.39350518584251404,1.0886805057525635,0.2918092906475067,0.8200567960739136
18500.57611151159,0.44324246048927307,0.22657078504562378,-1.0153752565383911,0.9999879598617554,0.44882744550704956,0.2013903558254242,-0.9491270780563354,0.9999781847000122,0.45766934752464294,0.2005593478679657,-0.9492641091346741,0.999975323677063,0.46633169054985046,0.19982674717903137,-0.94930499792099,0.9999716281890869,0.41321009397506714,0.20400667190551758,-0.9812771677970886,0.9999783039093018,0.39443156123161316,0.20496651530265808,-0.9813713431358337,0.9999758005142212,0.37515580654144287,0.2064729630947113,-0.9814359545707703,0.9999712705612183,0.45977649092674255,0.21021625399589539,-0.5521076917648315,0.9999731779098511,0.3256077468395233,0.21925926208496094,-0.7110945582389832,0.9999778270721436,0.45499250292778015,0.24791279435157776,-0.8670451641082764,0.9999918937683105,0.41696810722351074,0.25033852458000183,-0.9120609164237976,0.9999934434890747,0.5392276048660278,0.3485177159309387,-0.2835928797721863,0.999923586845398,0.19008111953735352,0.36332443356513977,-0.5448530912399292,0.9997367262840271,0.587064802646637,0.5064653158187866,-0.050415389239788055,0.9762746691703796,0.15783539414405823,0.5122020840644836,-0.7119827270507812,0.9534461498260498,0.6511296033859253,0.6373605728149414,-0.3386565148830414,0.9743554592132568,0.24644021689891815,0.5549659729003906,-1.2123677730560303,0.8824700713157654,0.6694597601890564,0.6793839931488037,-0.42945730686187744,0.9551509022712708,0.2867952883243561,0.5641442537307739,-1.3391481637954712,0.8586879968643188,0.6538842916488647,0.6784318089485168,-0.5295428037643433,0.9594069123268127,0.2892138361930847,0.5351681709289551,-1.4019818305969238,0.8647876381874084,0.6430531144142151,0.6686728000640869,-0.38350537419319153,0.9593549966812134,0.2782537341117859,0.5296952724456787,-1.2468526363372803,0.8453793525695801,0.4962935745716095,0.6285346150398254,0.10642218589782715,0.9982910752296448,0.3193918466567993,0.6493050456047058,-0.10601641237735748,0.9984270334243774,0.49676328897476196,0.822442352771759,0.3227958679199219,0.9607276916503906,0.3420562744140625,0.8629344701766968,0.06508056074380875,0.9818535447120667,0.4893690347671509,0.9586547017097473,1.117225170135498,0.9164271950721741,0.3569484353065491,0.9899395704269409,0.7266637682914734,0.9405384659767151,0.464322954416275,0.9720267057418823,1.1757370233535767,0.8736447095870972,0.3558642864227295,0.9927881360054016,0.7759702205657959,0.7324352264404297,0.5490190982818604,1.0193794965744019,0.8692097067832947,0.8860968351364136,0.38597866892814636,1.0833141803741455,0.3637123703956604,0.8567175269126892
18517.242778178257,0.4397609531879425,0.22396257519721985,-1.0347615480422974,0.9999874830245972,0.4456908702850342,0.19905522465705872,-0.9705851674079895,0.9999761581420898,0.45500513911247253,0.1985061764717102,-0.9707121849060059,0.9999722242355347,0.46396008133888245,0.19790425896644592,-0.9707350730895996,0.9999681711196899,0.40984809398651123,0.202154278755188,-0.9990872740745544,0.9999783039093018,0.39093121886253357,0.2037253975868225,-0.9991946220397949,0.9999760389328003,0.3729760944843292,0.20556598901748657,-0.9993029236793518,0.9999731779098511,0.46038365364074707,0.20891109108924866,-0.5807633399963379,0.9999696016311646,0.32385680079460144,0.21939250826835632,-0.7227907180786133,0.9999804496765137,0.45283111929893494,0.2463465929031372,-0.8892489075660706,0.999991774559021,0.4147041440010071,0.2482113093137741,-0.9293742179870605,0.9999943971633911,0.5416392683982849,0.34762799739837646,-0.3007686138153076,0.9999023675918579,0.18560972809791565,0.363646000623703,-0.56284499168396,0.9998263716697693,0.5862235426902771,0.5074430704116821,-0.059260956943035126,0.9748855233192444,0.1553521305322647,0.5121448040008545,-0.7368733882904053,0.970027506351471,0.6484135389328003,0.6388888359069824,-0.3381832540035248,0.9720160365104675,0.2528442144393921,0.5594737529754639,-1.2550086975097656,0.9220210313796997,0.6669255495071411,0.681814968585968,-0.42935776710510254,0.9518516659736633,0.2937101125717163,0.5678132772445679,-1.3849848508834839,0.8997764587402344,0.6494084000587463,0.6808151602745056,-0.5293401479721069,0.9558366537094116,0.2978798747062683,0.5401808619499207,-1.4504574537277222,0.9042268395423889,0.6380196809768677,0.6709285974502563,-0.38258010149002075,0.956389844417572,0.2864331603050232,0.534264087677002,-1.2901936769485474,0.8888439536094666,0.4948168396949768,0.6295306086540222,0.10876188427209854,0.9978969097137451,0.31774890422821045,0.6506060361862183,-0.10837215185165405,0.9984525442123413,0.4925668239593506,0.8304862976074219,0.3516738712787628,0.956232488155365,0.34133225679397583,0.8634618520736694,0.06838935613632202,0.9817018508911133,0.4879980981349945,0.962941586971283,1.1312249898910522,0.8964455127716064,0.3583179712295532,0.9952842593193054,0.6968838572502136,0.9274247884750366,0.46305838227272034,0.9744771122932434,1.1877959966659546,0.8505423069000244,0.35802263021469116,0.9970180988311768,0.7431556582450867,0.7099725008010864,0.5445704460144043,1.0225955247879028,0.882085382938385,0.8556811213493347,0.39203986525535583,1.090371012687683,0.3286648094654083,0.824291467666626
18533.909444844925,0.44135424494743347,0.22368070483207703,-0.9629425406455994,0.9999847412109375,0.44701266288757324,0.19864347577095032,-0.8986923694610596,0.9999713897705078,0.4562445282936096,0.19813323020935059,-0.898845374584198,0.9999672174453735,0.46530431509017944,0.1975540816783905,-0.8989036083221436,0.9999624490737915,0.4111339747905731,0.20163026452064514,-0.9284151792526245,0.999972939491272,0.39228639006614685,0.20320889353752136,-0.9285171031951904,0.9999699592590332,0.37389376759529114,0.20507004857063293,-0.9286491274833679,0.9999656677246094,0.4613669514656067,0.20877620577812195,-0.5144628882408142,0.999967098236084,0.3240315914154053,0.21924373507499695,-0.6617187857627869,0.9999759197235107,0.45462843775749207,0.24572163820266724,-0.8192930221557617,0.9999912977218628,0.41612887382507324,0.2477058619260788,-0.8609544038772583,0.9999935626983643,0.5426108837127686,0.34770020842552185,-0.25138944387435913,0.9999165534973145,0.18641097843647003,0.3626213073730469,-0.5056874752044678,0.9997987151145935,0.587457001209259,0.5067518353462219,-0.006217793095856905,0.9788100719451904,0.15301071107387543,0.5082710981369019,-0.6791818141937256,0.9631515741348267,0.6518682837486267,0.6377376914024353,-0.28223466873168945,0.9772916436195374,0.24221019446849823,0.5581468939781189,-1.1966056823730469,0.9123345613479614,0.6708646416664124,0.6808055639266968,-0.3732389509677887,0.9609987139701843,0.2795497179031372,0.5695897936820984,-1.3219013214111328,0.8933388590812683,0.6561552286148071,0.6799246072769165,-0.47290363907814026,0.9647506475448608,0.2866729497909546,0.5402549505233765,-1.3930537700653076,0.8993690013885498,0.6462841033935547,0.670190691947937,-0.3267967998981476,0.9652763605117798,0.2764107286930084,0.5344023704528809,-1.2342556715011597,0.8852941393852234,0.4955030381679535,0.6281989216804504,0.10269566625356674,0.9981681108474731,0.3177105188369751,0.6492185592651367,-0.10223150253295898,0.9985429048538208,0.4894385039806366,0.8348331451416016,0.2706774175167084,0.9629172682762146,0.3379165530204773,0.8671944737434387,0.03894150257110596,0.9789931774139404,0.48689863085746765,0.9616689085960388,1.0946284532546997,0.8927872776985168,0.3529249429702759,0.9951809644699097,0.6855921745300293,0.921028733253479,0.4601669907569885,0.9707229137420654,1.156368613243103,0.8406520485877991,0.3527832329273224,0.9949970245361328,0.7339555025100708,0.6850633025169373,0.5418298244476318,1.0229146480560303,0.8581450581550598,0.8431237936019897,0.38965728878974915,1.0889405012130737,0.3229362368583679,0.8111634850502014
18550.576111511593,0.44305139780044556,0.22818365693092346,-1.047418475151062,0.9999877214431763,0.4493675231933594,0.20424708724021912,-0.9825653433799744,0.9999773502349854,0.45853549242019653,0.20296481251716614,-0.9827075600624084,0.9999736547470093,0.46648889780044556,0.2019595503807068,-0.9827196002006531,0.9999691247940063,0.41322094202041626,0.20640304684638977,-1.0114140510559082,0.9999785423278809,0.3936803340911865,0.2066805064678192,-1.0115303993225098,0.9999762773513794,0.3755139708518982,0.20741969347000122,-1.0116281509399414,0.9999728202819824,0.4617656469345093,0.21137702465057373,-0.5900788307189941,0.9999721050262451,0.32717856764793396,0.21869048476219177,-0.7335071563720703,0.9999793767929077,0.45483994483947754,0.24977871775627136,-0.9009292721748352,0.9999922513961792,0.41623345017433167,0.25162768363952637,-0.9412963390350342,0.9999943971633911,0.5390768647193909,0.3482777178287506,-0.31886839866638184,0.9999202489852905,0.18795105814933777,0.36488479375839233,-0.5607549548149109,0.9997891783714294,0.5881936550140381,0.5108108520507812,-0.08231504261493683,0.9788626432418823,0.16013877093791962,0.5204627513885498,-0.7600388526916504,0.9687488079071045,0.6515268683433533,0.6410951614379883,-0.3788205087184906,0.9788683652877808,0.2437814474105835,0.5559506416320801,-1.3241183757781982,0.9338558912277222,0.6701397895812988,0.6843135952949524,-0.4734323024749756,0.962411105632782,0.2849119305610657,0.5625024437904358,-1.4601163864135742,0.9145118594169617,0.6517364382743835,0.6831207871437073,-0.5739744305610657,0.9657012224197388,0.2821667194366455,0.5318741202354431,-1.520263910293579,0.918278694152832,0.639393150806427,0.6737422943115234,-0.42346134781837463,0.966021716594696,0.2713724374771118,0.5274292230606079,-1.358416199684143,0.9042767286300659,0.49714991450309753,0.6326045393943787,0.1012353003025055,0.9981558918952942,0.3210373520851135,0.6543695330619812,-0.10081442445516586,0.9985384941101074,0.49550509452819824,0.8325165510177612,0.33688196539878845,0.9604721069335938,0.341104120016098,0.8704730868339539,0.08614061027765274,0.9812285304069519,0.49079328775405884,0.9587734937667847,1.1818865537643433,0.9023300409317017,0.36320558190345764,0.9931776523590088,0.7662129998207092,0.9325458407402039,0.46660855412483215,0.9728126525878906,1.2456303834915161,0.8590787649154663,0.36736056208610535,0.9946338534355164,0.8182404041290283,0.7320960164070129,0.5464723706245422,1.0236159563064575,0.9441081881523132,0.8615848422050476,0.38552913069725037,1.0910099744796753,0.40639087557792664,0.8333738446235657
18567.24277817826,0.4422590434551239,0.2290094494819641,-0.9286678433418274,0.9999831914901733,0.44717955589294434,0.20492035150527954,-0.8615812063217163,0.9999697208404541,0.4560473561286926,0.20337408781051636,-0.8617593050003052,0.9999657869338989,0.46416911482810974,0.2021145224571228,-0.8618168830871582,0.999961256980896,0.41199585795402527,0.20817402005195618,-0.8922845721244812,0.9999686479568481,0.39370760321617126,0.20891088247299194,-0.8923854827880859,0.9999650716781616,0.3752368986606598,0.20981726050376892,-0.892484188079834,0.999958872795105,0.4587480127811432,0.21147406101226807,-0.47475725412368774,0.9999641180038452,0.32687342166900635,0.22098132967948914,-0.627301812171936,0.9999692440032959,0.45433545112609863,0.2504626512527466,-0.7850849628448486,0.9999902248382568,0.4168052077293396,0.2540395259857178,-0.8280841708183289,0.9999918937683105,0.5393110513687134,0.35151904821395874,-0.22934983670711517,0.9999294281005859,0.19269220530986786,0.3631850779056549,-0.47694817185401917,0.9997459053993225,0.5880885124206543,0.511789083480835,-0.015995746478438377,0.9803671836853027,0.15978579223155975,0.5100592374801636,-0.6616489291191101,0.9558537602424622,0.6513240337371826,0.6424631476402283,-0.32206088304519653,0.9804916381835938,0.23575574159622192,0.556397020816803,-1.2001022100448608,0.904694139957428,0.6699995398521423,0.6830179691314697,-0.42035967111587524,0.9660467505455017,0.2743513584136963,0.5657637119293213,-1.330670714378357,0.8875781893730164,0.651167631149292,0.6821027398109436,-0.517073929309845,0.9694572687149048,0.2733347415924072,0.5348849296569824,-1.3975259065628052,0.8937549591064453,0.6387298107147217,0.6724271178245544,-0.3660537898540497,0.9692649245262146,0.2640092968940735,0.5291830897331238,-1.2371888160705566,0.8785821795463562,0.4964722990989685,0.6298354864120483,0.10406628996133804,0.9984375834465027,0.3208022713661194,0.6484824419021606,-0.10365637391805649,0.9985536932945251,0.4911428689956665,0.8319422006607056,0.29035478830337524,0.948049008846283,0.3410336971282959,0.865166425704956,0.052228402346372604,0.9708307981491089,0.4888972342014313,0.9584054350852966,1.0973405838012695,0.8816655874252319,0.35351312160491943,0.990496814250946,0.716562807559967,0.9060887098312378,0.4647057056427002,0.9705561995506287,1.1581945419311523,0.8393247723579407,0.35202422738075256,0.9939914345741272,0.7668694257736206,0.6681970953941345,0.5424647331237793,1.0247654914855957,0.8621776700019836,0.8380513191223145,0.3854351043701172,1.08363676071167,0.3628730773925781,0.7905246615409851
18583.90944484493,0.4444952607154846,0.22885948419570923,-0.9461970925331116,0.9999850988388062,0.44896960258483887,0.20538631081581116,-0.8789700865745544,0.9999732971191406,0.4576488435268402,0.20400044322013855,-0.8791399598121643,0.9999697208404541,0.46570512652397156,0.2028539478778839,-0.8791784048080444,0.9999653100967407,0.41448521614074707,0.20811760425567627,-0.9102463126182556,0.999972939491272,0.39719992876052856,0.20868051052093506,-0.910354733467102,0.9999700784683228,0.3782719671726227,0.20943725109100342,-0.9104526042938232,0.9999650716781616,0.4583936631679535,0.21191570162773132,-0.48993197083473206,0.9999686479568481,0.3291267454624176,0.22057199478149414,-0.6447713971138,0.9999744892120361,0.4553600549697876,0.25037699937820435,-0.8017898797988892,0.9999915361404419,0.41882553696632385,0.25380006432533264,-0.8454416394233704,0.999993085861206,0.539814829826355,0.3513616621494293,-0.23842044174671173,0.9999319314956665,0.19363562762737274,0.36341944336891174,-0.4947512149810791,0.9997838139533997,0.5879224538803101,0.5118783116340637,-0.02109989896416664,0.9798988103866577,0.15957555174827576,0.511961817741394,-0.6881693601608276,0.9627639055252075,0.6514642238616943,0.6428410410881042,-0.3273472785949707,0.9805143475532532,0.2362319976091385,0.5557476878166199,-1.2372257709503174,0.9194765686988831,0.6696306467056274,0.6828572750091553,-0.42537885904312134,0.9660372734069824,0.2750581204891205,0.5646768808364868,-1.3702951669692993,0.9022530317306519,0.6510982513427734,0.6820922493934631,-0.5221008062362671,0.9693362712860107,0.2736594080924988,0.534085750579834,-1.4363698959350586,0.9074739813804626,0.6389406323432922,0.672395646572113,-0.3713380992412567,0.9690998792648315,0.2642262578010559,0.5286986231803894,-1.2741771936416626,0.8930789828300476,0.496622234582901,0.63055819272995,0.10699716210365295,0.9984865188598633,0.32236000895500183,0.6494346261024475,-0.10659903287887573,0.9986448884010315,0.49159350991249084,0.8305253982543945,0.3101719915866852,0.9489524960517883,0.3417801260948181,0.8650314211845398,0.06450536102056503,0.9726578593254089,0.4901878833770752,0.9577351808547974,1.1252329349517822,0.8851370811462402,0.35397547483444214,0.9903876185417175,0.7334247827529907,0.9101112484931946,0.46584343910217285,0.9700510501861572,1.1869773864746094,0.8457276225090027,0.35173332691192627,0.9943490624427795,0.7844021916389465,0.6841070055961609,0.5423314571380615,1.024543285369873,0.8925948739051819,0.8452985882759094,0.39070457220077515,1.0845664739608765,0.380927711725235,0.7986634969711304
18600.576111511597,0.4437192976474762,0.22794538736343384,-1.021585464477539,0.9999843835830688,0.44852155447006226,0.20446866750717163,-0.9532967805862427,0.9999722242355347,0.4573054611682892,0.20295700430870056,-0.9534618258476257,0.9999693632125854,0.4651685953140259,0.20169171690940857,-0.9535412788391113,0.9999648332595825,0.41374072432518005,0.20716503262519836,-0.9838907122612,0.9999715089797974,0.39597034454345703,0.20752787590026855,-0.9840086102485657,0.9999682903289795,0.37751805782318115,0.20810863375663757,-0.984117329120636,0.9999624490737915,0.4589654505252838,0.210170716047287,-0.5510020852088928,0.9999682903289795,0.3299351632595062,0.21912527084350586,-0.7026278376579285,0.9999721050262451,0.45543885231018066,0.24954624474048615,-0.8717063069343567,0.9999905824661255,0.4189895987510681,0.25240108370780945,-0.9145826101303101,0.9999922513961792,0.5386521816253662,0.35036492347717285,-0.27656325697898865,0.9999101161956787,0.1958102434873581,0.3637644648551941,-0.535263180732727,0.9996905326843262,0.5889838337898254,0.5108978748321533,-0.04840096831321716,0.9772635102272034,0.16014254093170166,0.5171767473220825,-0.7101176381111145,0.9541650414466858,0.6511097550392151,0.6426076292991638,-0.3399488031864166,0.9734375476837158,0.255185604095459,0.5606256723403931,-1.241456389427185,0.8805215358734131,0.6687160134315491,0.6832870841026306,-0.4339805543422699,0.9537063241004944,0.29267919063568115,0.5646188855171204,-1.3712975978851318,0.8558446764945984,0.6504701972007751,0.6823651194572449,-0.5314388871192932,0.9579806327819824,0.29280415177345276,0.5344741344451904,-1.4357597827911377,0.8621628880500793,0.6387785077095032,0.6718261241912842,-0.38337084650993347,0.9577879905700684,0.28234413266181946,0.5298685431480408,-1.2767442464828491,0.8420791625976562,0.4968450367450714,0.6334115862846375,0.10838112235069275,0.997784435749054,0.3204812705516815,0.6523287296295166,-0.10793401300907135,0.9979998469352722,0.4902631938457489,0.8328272104263306,0.2670426070690155,0.9491727948188782,0.3412730395793915,0.8714133501052856,0.02489737793803215,0.9725200533866882,0.4938104450702667,0.9621327519416809,1.0498242378234863,0.8911744356155396,0.3554031252861023,0.9941027760505676,0.6765499114990234,0.9118823409080505,0.46978825330734253,0.9719735383987427,1.106477975845337,0.8474422693252563,0.3500257730484009,0.9947727918624878,0.7232978343963623,0.661055326461792,0.5476981401443481,1.0266551971435547,0.7892839312553406,0.8487665057182312,0.39194339513778687,1.0953559875488281,0.29211315512657166,0.7958235144615173
18617.242778178264,0.441204309463501,0.22822368144989014,-1.0236884355545044,0.9999868869781494,0.44558465480804443,0.2041146457195282,-0.9570301175117493,0.9999752044677734,0.4544293284416199,0.20251095294952393,-0.9571760296821594,0.9999725818634033,0.4622648060321808,0.2011844515800476,-0.9572110176086426,0.9999679327011108,0.41097378730773926,0.20725929737091064,-0.9840582609176636,0.9999752044677734,0.392452597618103,0.20779713988304138,-0.9841707348823547,0.9999731779098511,0.3743669092655182,0.2085648775100708,-0.9842617511749268,0.9999682903289795,0.45746320486068726,0.21047216653823853,-0.5657986402511597,0.9999713897705078,0.3270384967327118,0.21961727738380432,-0.6998443007469177,0.9999761581420898,0.4536108076572418,0.249772846698761,-0.8785592913627625,0.9999916553497314,0.41697150468826294,0.2529847323894501,-0.9162967801094055,0.9999933242797852,0.5391265153884888,0.35151875019073486,-0.2949623763561249,0.9999126195907593,0.19099581241607666,0.3643638789653778,-0.5428884029388428,0.9997506737709045,0.5869112014770508,0.5103363990783691,-0.059533264487981796,0.9775522947311401,0.16229166090488434,0.5198600888252258,-0.7268514633178711,0.9643577933311462,0.6507648229598999,0.641926109790802,-0.337819904088974,0.9744219779968262,0.2571646571159363,0.5580689907073975,-1.2684017419815063,0.9105745553970337,0.6681939363479614,0.68354731798172,-0.42939668893814087,0.9558312296867371,0.2950993478298187,0.5645826458930969,-1.400506854057312,0.8886264562606812,0.6504917144775391,0.6821518540382385,-0.5253757238388062,0.9597289562225342,0.2930849492549896,0.5351240038871765,-1.4631327390670776,0.8929428458213806,0.6399387121200562,0.6714552640914917,-0.3802536725997925,0.9600836634635925,0.28127339482307434,0.5290716290473938,-1.303471565246582,0.8754133582115173,0.49402883648872375,0.6332001686096191,0.10442693531513214,0.9983491897583008,0.3184989094734192,0.6528194546699524,-0.10399287939071655,0.9984900951385498,0.4935319721698761,0.828471302986145,0.2978886067867279,0.9530309438705444,0.34102657437324524,0.8650103807449341,0.07852669805288315,0.978515625,0.489773154258728,0.9626418352127075,1.090485692024231,0.9009329080581665,0.3552885949611664,0.9891142845153809,0.7472377419471741,0.9257474541664124,0.4653128981590271,0.9732904434204102,1.1489852666854858,0.8652523159980774,0.35031381249427795,0.9913105368614197,0.7975401282310486,0.7222975492477417,0.5485672950744629,1.020861029624939,0.8431816101074219,0.8637520670890808,0.394577294588089,1.0845987796783447,0.38728392124176025,0.821828305721283
18633.909444844932,0.4443916082382202,0.22851160168647766,-0.9912212491035461,0.999987006187439,0.449575275182724,0.20428994297981262,-0.923823893070221,0.999976396560669,0.45837870240211487,0.20290511846542358,-0.923987865447998,0.9999731779098511,0.4669418931007385,0.20181137323379517,-0.9240612387657166,0.9999691247940063,0.4142528474330902,0.2075776755809784,-0.9549415111541748,0.9999760389328003,0.3957478106021881,0.20838859677314758,-0.955065906047821,0.9999736547470093,0.3766409456729889,0.20952534675598145,-0.9551888704299927,0.9999696016311646,0.4609607756137848,0.21142008900642395,-0.5275614857673645,0.9999736547470093,0.32770565152168274,0.22111251950263977,-0.681065559387207,0.9999780654907227,0.4569302201271057,0.24914982914924622,-0.8433243632316589,0.9999929666519165,0.4189647138118744,0.25271913409233093,-0.8867671489715576,0.9999946355819702,0.5414088368415833,0.35118141770362854,-0.2627738118171692,0.9999349117279053,0.19010436534881592,0.3640540540218353,-0.5148262977600098,0.9997650980949402,0.5871763229370117,0.510865330696106,-0.030088378116488457,0.9817072749137878,0.15954892337322235,0.5155785083770752,-0.698857307434082,0.9651826620101929,0.6510599851608276,0.6420290470123291,-0.32718029618263245,0.9816141128540039,0.25073808431625366,0.5614896416664124,-1.2431259155273438,0.9152469635009766,0.6687747836112976,0.6820989847183228,-0.4234744608402252,0.9674687385559082,0.28989604115486145,0.5664486289024353,-1.3746318817138672,0.8944459557533264,0.6508199572563171,0.6808819770812988,-0.5219469666481018,0.9705742001533508,0.28917425870895386,0.5385500192642212,-1.440922498703003,0.8998149037361145,0.6395068168640137,0.6707010865211487,-0.3710695505142212,0.9699270129203796,0.2790153920650482,0.5340198278427124,-1.278959035873413,0.883145809173584,0.49540796875953674,0.631098210811615,0.09935448318719864,0.9982067346572876,0.31880953907966614,0.6508680582046509,-0.09892187267541885,0.9983643889427185,0.48936688899993896,0.8336982131004333,0.23424357175827026,0.9590040445327759,0.3396638333797455,0.8702806234359741,0.02461475506424904,0.972423791885376,0.4897800385951996,0.9604180455207825,1.0636732578277588,0.894037127494812,0.3562394082546234,0.9945675134658813,0.6853592991828918,0.912370502948761,0.4670517146587372,0.9702485203742981,1.1259045600891113,0.8397706151008606,0.35407283902168274,0.9948758482933044,0.7340591549873352,0.6639741063117981,0.5406102538108826,1.0276076793670654,0.815983772277832,0.8515275120735168,0.39462101459503174,1.0946154594421387,0.3097188174724579,0.8013708591461182
18650.5761115116,0.44322243332862854,0.23011615872383118,-1.0221493244171143,0.999985933303833,0.44839391112327576,0.20599937438964844,-0.9550437927246094,0.9999749660491943,0.45746415853500366,0.20460012555122375,-0.9552095532417297,0.9999716281890869,0.466085821390152,0.20348069071769714,-0.9552991986274719,0.9999676942825317,0.4130210876464844,0.20881232619285583,-0.9851690530776978,0.999974250793457,0.3945675790309906,0.20931455492973328,-0.9852913022041321,0.9999715089797974,0.37576669454574585,0.21003076434135437,-0.9854089021682739,0.9999673366546631,0.4599181115627289,0.21240341663360596,-0.5544992089271545,0.9999715089797974,0.32683950662612915,0.22093674540519714,-0.703389585018158,0.9999761581420898,0.4547094404697418,0.25166943669319153,-0.8722320199012756,0.9999922513961792,0.41744324564933777,0.2548472583293915,-0.9143560528755188,0.9999938011169434,0.539090096950531,0.3503303527832031,-0.2786153256893158,0.9999263286590576,0.19135910272598267,0.36435574293136597,-0.5309144854545593,0.9997362494468689,0.5877487659454346,0.5111422538757324,-0.04411448538303375,0.9796051979064941,0.1599455624818802,0.5185129642486572,-0.7026913166046143,0.960980236530304,0.6496630907058716,0.6433072686195374,-0.34054040908813477,0.9774462580680847,0.2544299364089966,0.5616949796676636,-1.237788200378418,0.902018129825592,0.6675885915756226,0.6834299564361572,-0.43690624833106995,0.9605224132537842,0.2937217950820923,0.5655704736709595,-1.369222640991211,0.8790470361709595,0.6490524411201477,0.6824805736541748,-0.5361465215682983,0.964218258857727,0.29394975304603577,0.5385617613792419,-1.4355218410491943,0.884989857673645,0.6370836496353149,0.6721222996711731,-0.38481107354164124,0.9637688994407654,0.2837783992290497,0.5344544053077698,-1.2734757661819458,0.8668926358222961,0.494911253452301,0.6318280696868896,0.10213314741849899,0.9980120658874512,0.32001277804374695,0.650782585144043,-0.10170497745275497,0.9981168508529663,0.48861488699913025,0.8363603949546814,0.23216626048088074,0.9538466334342957,0.3405807614326477,0.8724242448806763,0.020285356789827347,0.9707784056663513,0.492333322763443,0.9625025987625122,1.0478090047836304,0.8856296539306641,0.3561134338378906,0.9947620630264282,0.6792593002319336,0.9070147275924683,0.46885785460472107,0.9709747433662415,1.1081955432891846,0.8296335935592651,0.3516371548175812,0.9947772026062012,0.727484405040741,0.649228572845459,0.5436108708381653,1.0282968282699585,0.791599452495575,0.8394341468811035,0.3947567343711853,1.0965758562088013,0.29747194051742554,0.7890275716781616
18667.242778178268,0.4423549175262451,0.2237371802330017,-0.9528224468231201,0.9999752044677734,0.44734930992126465,0.19877147674560547,-0.8843315243721008,0.9999560117721558,0.45658648014068604,0.19808414578437805,-0.8845447897911072,0.9999520778656006,0.46578145027160645,0.19736120104789734,-0.8846610188484192,0.9999464750289917,0.4113199710845947,0.2019701600074768,-0.9149778485298157,0.9999533891677856,0.39258742332458496,0.203499436378479,-0.9151034951210022,0.9999492168426514,0.3740346431732178,0.20542362332344055,-0.915269136428833,0.9999415874481201,0.4612051248550415,0.20889756083488464,-0.490878701210022,0.9999573230743408,0.3253900408744812,0.21926945447921753,-0.6387478709220886,0.999957799911499,0.45697423815727234,0.2450879067182541,-0.8063374757766724,0.999988317489624,0.4174111485481262,0.24749386310577393,-0.8483185172080994,0.9999899864196777,0.5404133200645447,0.34994232654571533,-0.22491173446178436,0.9999175071716309,0.18989449739456177,0.36534324288368225,-0.48438921570777893,0.9996368885040283,0.5869497656822205,0.5094356536865234,0.004345584195107222,0.9772276282310486,0.1617836356163025,0.516389787197113,-0.677587628364563,0.9544692635536194,0.6476157903671265,0.6419587135314941,-0.2898206114768982,0.9724524021148682,0.250800758600235,0.5583428144454956,-1.2383606433868408,0.890723705291748,0.6646823287010193,0.6816931366920471,-0.3848086893558502,0.9538450837135315,0.28701937198638916,0.5665727853775024,-1.3699584007263184,0.8698469996452332,0.6475766897201538,0.6807420253753662,-0.47875073552131653,0.9581631422042847,0.2873859107494354,0.5342289805412292,-1.4381401538848877,0.8762575387954712,0.6370283365249634,0.6701875925064087,-0.33183354139328003,0.9580487608909607,0.2773929834365845,0.5287258625030518,-1.2753267288208008,0.8558130264282227,0.4926432967185974,0.6335050463676453,0.10177042335271835,0.9981887936592102,0.3167518675327301,0.652779757976532,-0.10133348405361176,0.9980694651603699,0.4880775511264801,0.837550938129425,0.1875062882900238,0.9495859146118164,0.34051012992858887,0.8712693452835083,0.010713272728025913,0.9577054381370544,0.48615169525146484,0.9642230868339539,1.0300804376602173,0.8595473766326904,0.35764893889427185,0.9920626878738403,0.6929761171340942,0.8642955422401428,0.46387937664985657,0.9722810983657837,1.0930451154708862,0.773356020450592,0.35517212748527527,0.9917309880256653,0.7438468337059021,0.5611220002174377,0.5332949161529541,1.0302482843399048,0.7690850496292114,0.8013759851455688,0.3957144320011139,1.0977455377578735,0.3133953809738159,0.7300931215286255
18683.909444844936,0.4437505304813385,0.22439411282539368,-0.9839469790458679,0.999985933303833,0.4488149583339691,0.19890281558036804,-0.9180654287338257,0.9999740123748779,0.45830798149108887,0.19822567701339722,-0.9182307720184326,0.9999709129333496,0.46768659353256226,0.19751450419425964,-0.9182881712913513,0.9999666213989258,0.41238170862197876,0.20196488499641418,-0.948624849319458,0.9999746084213257,0.3938065469264984,0.20354518294334412,-0.9487379789352417,0.9999722242355347,0.3750637173652649,0.20553267002105713,-0.9488635659217834,0.9999679327011108,0.46263161301612854,0.20851868391036987,-0.5318556427955627,0.999970555305481,0.3248908817768097,0.21979060769081116,-0.6820891499519348,0.9999778270721436,0.45787695050239563,0.2462833821773529,-0.8401151895523071,0.9999921321868896,0.4188322126865387,0.2481112778186798,-0.882564127445221,0.999994158744812,0.5428915023803711,0.3494846224784851,-0.26343297958374023,0.9999129772186279,0.18788811564445496,0.36531856656074524,-0.5353087782859802,0.9997982382774353,0.5839006304740906,0.5078220367431641,-0.03366300091147423,0.9760233163833618,0.16374093294143677,0.519049346446991,-0.7057499885559082,0.967325747013092,0.6467963457107544,0.6406432390213013,-0.3214949369430542,0.9755706191062927,0.2585979700088501,0.5634173154830933,-1.2178058624267578,0.9158250093460083,0.664078414440155,0.6810189485549927,-0.41665932536125183,0.959029495716095,0.2944931089878082,0.5686537027359009,-1.346778392791748,0.8959307074546814,0.6489378213882446,0.679825484752655,-0.5131474137306213,0.9627528190612793,0.2960529029369354,0.5388476252555847,-1.414613127708435,0.9006628394126892,0.6386406421661377,0.669829785823822,-0.3650098741054535,0.9626515507698059,0.2862567901611328,0.5341089367866516,-1.2538769245147705,0.8844526410102844,0.49469220638275146,0.6308199167251587,0.112269826233387,0.9976106882095337,0.31924667954444885,0.6497491002082825,-0.1118575930595398,0.998087465763092,0.49069133400917053,0.8326067328453064,0.32403671741485596,0.9444997906684875,0.34136831760406494,0.8682239055633545,0.046519387513399124,0.9747340679168701,0.48854851722717285,0.9632996916770935,1.0890896320343018,0.8780921101570129,0.3579457402229309,0.9956928491592407,0.6549211740493774,0.9090993404388428,0.4639352560043335,0.9737173318862915,1.1449778079986572,0.8414230346679688,0.35315069556236267,0.99651038646698,0.6987611651420593,0.6848230957984924,0.5452995300292969,1.0218141078948975,0.8470302224159241,0.8410061001777649,0.4091164469718933,1.0941596031188965,0.2853300869464874,0.7937178015708923
18700.576111511604,0.4436218738555908,0.2249011993408203,-0.9717084765434265,0.9999827146530151,0.44863831996917725,0.19919949769973755,-0.906019389629364,0.999968409538269,0.45789584517478943,0.1984265148639679,-0.9062045216560364,0.9999643564224243,0.4670230448246002,0.19764211773872375,-0.9062801003456116,0.9999597072601318,0.41254663467407227,0.20262011885643005,-0.9355104565620422,0.9999687671661377,0.39385828375816345,0.20420733094215393,-0.9356226921081543,0.9999653100967407,0.3752680718898773,0.20622941851615906,-0.93575519323349,0.9999605417251587,0.461768239736557,0.20845937728881836,-0.5211094617843628,0.9999645948410034,0.3257688879966736,0.2200320065021515,-0.665923535823822,0.9999723434448242,0.45738205313682556,0.24655860662460327,-0.8283359408378601,0.9999905824661255,0.4187169671058655,0.2485986202955246,-0.8692367076873779,0.9999929666519165,0.5431383848190308,0.34964120388031006,-0.25881871581077576,0.9999070167541504,0.18851615488529205,0.365004301071167,-0.5172008275985718,0.9997746348381042,0.5830173492431641,0.5086350440979004,-0.03934444114565849,0.9759336113929749,0.16176585853099823,0.5169432759284973,-0.6889153718948364,0.9655967354774475,0.6469730138778687,0.642281711101532,-0.3338419497013092,0.9737772345542908,0.25918400287628174,0.5642865896224976,-1.2048814296722412,0.9117140173912048,0.6639889478683472,0.6825495958328247,-0.4307790696620941,0.9561382532119751,0.2945188581943512,0.5699071884155273,-1.3335553407669067,0.89043790102005,0.6488066911697388,0.6813144683837891,-0.5266444683074951,0.9601562023162842,0.29636919498443604,0.5404292345046997,-1.4002838134765625,0.8954643607139587,0.6381949782371521,0.6711977124214172,-0.37731537222862244,0.9602379202842712,0.28672778606414795,0.5354297161102295,-1.2406059503555298,0.8792608380317688,0.493670254945755,0.6319622993469238,0.10796146839857101,0.9974554181098938,0.31881701946258545,0.650435209274292,-0.10752278566360474,0.9978461265563965,0.4892888367176056,0.835668683052063,0.28944650292396545,0.9400768280029297,0.34027406573295593,0.869382381439209,0.039813410490751266,0.9706032276153564,0.48935532569885254,0.9664983749389648,1.050766110420227,0.8644981980323792,0.3565689027309418,0.9962063431739807,0.6575660109519958,0.8962496519088745,0.46593013405799866,0.9762921333312988,1.1060717105865479,0.8236916661262512,0.3520406484603882,0.9974722266197205,0.702279806137085,0.6601441502571106,0.5447003245353699,1.0241172313690186,0.8041262626647949,0.8204730749130249,0.4033068120479584,1.0936737060546875,0.2887975871562958,0.7697883248329163
18717.24277817827,0.44434216618537903,0.22646430134773254,-1.0163105726242065,0.9999862909317017,0.44988688826560974,0.2009071409702301,-0.9549314379692078,0.9999725818634033,0.45904093980789185,0.20000553131103516,-0.955032467842102,0.9999682903289795,0.46805742383003235,0.19903045892715454,-0.9550684690475464,0.9999634027481079,0.41342493891716003,0.20478036999702454,-0.9851272106170654,0.9999748468399048,0.394280344247818,0.20643222332000732,-0.9852486848831177,0.9999731779098511,0.3747955858707428,0.2082560658454895,-0.9853646159172058,0.999969482421875,0.463184654712677,0.2086549699306488,-0.5779378414154053,0.9999641180038452,0.3254973888397217,0.2210046648979187,-0.7284749746322632,0.9999780654907227,0.45900866389274597,0.2480124533176422,-0.8745977282524109,0.9999915361404419,0.4200681447982788,0.2504420876502991,-0.9171942472457886,0.9999942779541016,0.5445672869682312,0.3482916057109833,-0.306687593460083,0.9999101161956787,0.1851661503314972,0.3646945357322693,-0.574759840965271,0.9998377561569214,0.5855275392532349,0.507420003414154,-0.05209285765886307,0.9763190150260925,0.1535903960466385,0.5139992833137512,-0.7223389148712158,0.9740585684776306,0.6483905911445618,0.6401245594024658,-0.3078501224517822,0.9750789403915405,0.2600587010383606,0.5641735792160034,-1.1833736896514893,0.9269147515296936,0.6652554273605347,0.6830397248268127,-0.3952779471874237,0.9571918249130249,0.29849112033843994,0.5736536383628845,-1.3040589094161987,0.9059396386146545,0.6486843824386597,0.6818934679031372,-0.4924912750720978,0.9608483910560608,0.30656057596206665,0.5476719737052917,-1.3706378936767578,0.9104413390159607,0.6381239891052246,0.6720345616340637,-0.3505682051181793,0.9615402817726135,0.2953704595565796,0.5421518087387085,-1.2173211574554443,0.8967020511627197,0.4964584410190582,0.6267833709716797,0.10924304276704788,0.9981665015220642,0.32065045833587646,0.6476182341575623,-0.10891785472631454,0.9986153841018677,0.4948785603046417,0.8283600807189941,0.3179067373275757,0.9576407074928284,0.3421401381492615,0.8653319478034973,0.045990586280822754,0.9817489385604858,0.486281156539917,0.9583297371864319,1.134893536567688,0.8905619382858276,0.3565395772457123,0.993048906326294,0.6658296585083008,0.9289013147354126,0.45975664258003235,0.9697936773300171,1.1969542503356934,0.8434525728225708,0.3554763197898865,0.9926143884658813,0.7122920155525208,0.7059784531593323,0.5494344234466553,1.0202715396881104,0.9162434935569763,0.850885272026062,0.39844995737075806,1.086100697517395,0.3128539025783539,0.8294552564620972
18733.90944484494,0.4466365575790405,0.2259599268436432,-0.9805564880371094,0.9999843835830688,0.4509080648422241,0.20068815350532532,-0.9176531434059143,0.9999699592590332,0.46027299761772156,0.1998465359210968,-0.9177882671356201,0.9999649524688721,0.46938425302505493,0.19891193509101868,-0.9178283214569092,0.9999594688415527,0.41494473814964294,0.20439660549163818,-0.9499382376670837,0.9999734163284302,0.3961394429206848,0.20605680346488953,-0.9500767588615417,0.9999709129333496,0.3760395348072052,0.20795270800590515,-0.9502279162406921,0.9999674558639526,0.4633651077747345,0.2082865834236145,-0.5389344096183777,0.9999626874923706,0.3262234330177307,0.22051122784614563,-0.6985211968421936,0.9999781847000122,0.4617747366428375,0.2473379671573639,-0.8385986089706421,0.9999912977218628,0.42307767271995544,0.2498592734336853,-0.883762776851654,0.9999943971633911,0.5440714359283447,0.34765055775642395,-0.2778327167034149,0.9999061822891235,0.1842905879020691,0.36489883065223694,-0.5451217889785767,0.9998425245285034,0.5851378440856934,0.5077464580535889,-0.04263399913907051,0.9778124690055847,0.1550593227148056,0.5143327713012695,-0.7043073177337646,0.974425733089447,0.6470597982406616,0.6409057974815369,-0.3283233940601349,0.9767358303070068,0.24844340980052948,0.5618601441383362,-1.1892107725143433,0.9370922446250916,0.6641589999198914,0.6831461787223816,-0.42254748940467834,0.9601266980171204,0.2889690101146698,0.5729368925094604,-1.3133671283721924,0.9196422696113586,0.645625114440918,0.6819295883178711,-0.5215940475463867,0.9637438058853149,0.2955006957054138,0.5453144311904907,-1.3829545974731445,0.9243054389953613,0.6341429352760315,0.6726829409599304,-0.3729275166988373,0.9645006060600281,0.28379470109939575,0.5388266444206238,-1.2248249053955078,0.9123099446296692,0.49725285172462463,0.6280038952827454,0.10672899335622787,0.9975345134735107,0.319945365190506,0.6507949233055115,-0.10631750524044037,0.9982359409332275,0.48992884159088135,0.8367338180541992,0.2841365337371826,0.9591554999351501,0.3394896686077118,0.8718917369842529,0.03184119984507561,0.9786691665649414,0.48882409930229187,0.965868353843689,1.0823168754577637,0.8806247711181641,0.3609718084335327,0.9988473653793335,0.648173451423645,0.9191343188285828,0.46549826860427856,0.9764361381530762,1.141850471496582,0.8312617540359497,0.36156362295150757,0.9976755976676941,0.6933122873306274,0.6798557043075562,0.5506753325462341,1.0235679149627686,0.8523356914520264,0.8331331610679626,0.3947898745536804,1.0989354848861694,0.2819826304912567,0.8052491545677185
18750.576111511607,0.44871610403060913,0.2277393937110901,-1.0208145380020142,0.9999878406524658,0.45224255323410034,0.2015499472618103,-0.9591000080108643,0.9999774694442749,0.4611680507659912,0.20060211420059204,-0.9592048525810242,0.9999738931655884,0.4699157774448395,0.19961073994636536,-0.959237277507782,0.9999696016311646,0.41701382398605347,0.20499980449676514,-0.993056058883667,0.9999796152114868,0.3986939489841461,0.20637276768684387,-0.9931821227073669,0.9999780654907227,0.3786974549293518,0.20817026495933533,-0.9933214783668518,0.9999755620956421,0.46104696393013,0.2090167999267578,-0.5755693316459656,0.9999732971191406,0.3271676003932953,0.22103044390678406,-0.7422334551811218,0.9999831914901733,0.46247363090515137,0.24851670861244202,-0.8758804798126221,0.9999929666519165,0.4244890809059143,0.2509385347366333,-0.9231783151626587,0.999995231628418,0.5423603653907776,0.347915917634964,-0.2992557883262634,0.9999151229858398,0.1849481761455536,0.36185958981513977,-0.578806459903717,0.9998175501823425,0.5858200192451477,0.5073797702789307,-0.035436734557151794,0.9779558777809143,0.15134182572364807,0.5145664215087891,-0.7475841045379639,0.973081648349762,0.6480211019515991,0.6378563046455383,-0.29034873843193054,0.9771119952201843,0.24439319968223572,0.5561527609825134,-1.2382276058197021,0.9346479177474976,0.6662418842315674,0.6818108558654785,-0.37633204460144043,0.9601690173149109,0.2838521897792816,0.5659850239753723,-1.361269474029541,0.9162414073944092,0.6503312587738037,0.6807523369789124,-0.4746985137462616,0.9638300538063049,0.28684818744659424,0.5398638844490051,-1.4290454387664795,0.920958936214447,0.639992356300354,0.6705270409584045,-0.3336298167705536,0.9644461274147034,0.2764548063278198,0.5340486764907837,-1.2730531692504883,0.9081528782844543,0.49491068720817566,0.6259512305259705,0.10363692045211792,0.9979719519615173,0.3182501494884491,0.6467101573944092,-0.10322307050228119,0.9984233379364014,0.49264979362487793,0.8287606835365295,0.2925977408885956,0.9678754806518555,0.34113261103630066,0.8653233647346497,0.04495156928896904,0.9795463681221008,0.48452720046043396,0.9583604335784912,1.1059917211532593,0.9111772179603577,0.3566775321960449,0.9934364557266235,0.6823989748954773,0.9263938069343567,0.4604000151157379,0.9706312417984009,1.1667646169662476,0.852617621421814,0.3557347357273102,0.9927656650543213,0.7302213907241821,0.6941342949867249,0.5361902117729187,1.0215191841125488,0.8668692708015442,0.8655450344085693,0.3948829770088196,1.0919232368469238,0.31667762994766235,0.8205198049545288
18767.242778178275,0.4448155462741852,0.22690948843955994,-0.9485501646995544,0.9999896287918091,0.4501991271972656,0.20149001479148865,-0.8816881775856018,0.9999814033508301,0.4597366154193878,0.2007698118686676,-0.8818538188934326,0.99997878074646,0.4691295027732849,0.20004060864448547,-0.8818939328193665,0.9999756813049316,0.41389456391334534,0.20446819067001343,-0.9138951301574707,0.9999814033508301,0.39504310488700867,0.2058005928993225,-0.9139975309371948,0.9999794960021973,0.3754335343837738,0.2074301540851593,-0.9141120910644531,0.9999761581420898,0.463880330324173,0.21008890867233276,-0.4961659908294678,0.999980092048645,0.3257856070995331,0.22013220191001892,-0.6538698673248291,0.9999831914901733,0.4594905376434326,0.24830441176891327,-0.8053690195083618,0.9999946355819702,0.41988831758499146,0.24983520805835724,-0.8499969840049744,0.9999957084655762,0.5419110059738159,0.34908267855644226,-0.24409015476703644,0.9999380111694336,0.18432724475860596,0.3672952950000763,-0.5063808560371399,0.9998003840446472,0.5847737193107605,0.5079579949378967,-0.023312054574489594,0.9811972975730896,0.15964701771736145,0.5175342559814453,-0.7091721892356873,0.9687008261680603,0.645226776599884,0.6397814750671387,-0.3227267265319824,0.9823552966117859,0.24685081839561462,0.5583853125572205,-1.264163613319397,0.9312906265258789,0.6628057956695557,0.6805399060249329,-0.4181665778160095,0.9693936109542847,0.2861575186252594,0.5674840211868286,-1.3962057828903198,0.915476381778717,0.6465754508972168,0.6794177293777466,-0.5134871006011963,0.9722968935966492,0.2852412462234497,0.5361867547035217,-1.4625349044799805,0.9199720621109009,0.6359378099441528,0.6701827049255371,-0.36567994952201843,0.9719142913818359,0.2746278643608093,0.5308015942573547,-1.30059814453125,0.9065959453582764,0.49321725964546204,0.6289100050926208,0.10275671631097794,0.9980825185775757,0.31807392835617065,0.6492953896522522,-0.10230376571416855,0.9983035326004028,0.4930012822151184,0.8286954164505005,0.2709710896015167,0.9541467428207397,0.3415376842021942,0.8683595657348633,0.03632529452443123,0.9724838733673096,0.49171683192253113,0.9611419439315796,1.0563709735870361,0.8840780258178711,0.3577076196670532,0.9935808181762695,0.6654539108276367,0.9048169851303101,0.46857747435569763,0.9713620543479919,1.1142702102661133,0.8367296457290649,0.35724055767059326,0.9930068254470825,0.7118315696716309,0.6750409007072449,0.5427700877189636,1.0225414037704468,0.816067099571228,0.8382723331451416,0.3993312120437622,1.0905965566635132,0.3034995496273041,0.7831267714500427
18783.909444844943,0.44624003767967224,0.2273622751235962,-0.9522741436958313,0.9999847412109375,0.45160427689552307,0.20227229595184326,-0.8873612284660339,0.9999725818634033,0.4608399271965027,0.2015034258365631,-0.8875377178192139,0.9999692440032959,0.4699135720729828,0.200740784406662,-0.8876137137413025,0.9999654293060303,0.4158165156841278,0.20516031980514526,-0.9195332527160645,0.9999732971191406,0.3970620334148407,0.20630046725273132,-0.9196493029594421,0.999970555305481,0.37726080417633057,0.20778843760490417,-0.9197685718536377,0.9999659061431885,0.46352899074554443,0.2102358639240265,-0.5073224306106567,0.9999704360961914,0.32663774490356445,0.21974900364875793,-0.6652524471282959,0.9999761581420898,0.4602835178375244,0.24826936423778534,-0.810602068901062,0.9999918937683105,0.4212185740470886,0.2497940957546234,-0.8553481698036194,0.9999938011169434,0.5402617454528809,0.3482546806335449,-0.25482624769210815,0.9999133348464966,0.18583634495735168,0.3630408048629761,-0.51633220911026,0.9997562766075134,0.5853906273841858,0.507968008518219,-0.02882177196443081,0.9749541878700256,0.15779925882816315,0.5125970840454102,-0.6915098428726196,0.9590808153152466,0.6466305255889893,0.6393698453903198,-0.3056747019290924,0.9718552231788635,0.24800679087638855,0.5580735802650452,-1.1905490159988403,0.8896550536155701,0.6638783812522888,0.6811316609382629,-0.39692267775535583,0.9527503848075867,0.2861782908439636,0.5665988922119141,-1.313035249710083,0.8693104982376099,0.6474906802177429,0.680003821849823,-0.49127197265625,0.9569849967956543,0.28905439376831055,0.5369001626968384,-1.3792349100112915,0.8754243850708008,0.6367577314376831,0.6700124740600586,-0.34794527292251587,0.9578326344490051,0.2784648537635803,0.5306229591369629,-1.2258108854293823,0.8587601780891418,0.4957592487335205,0.6298474073410034,0.10760358721017838,0.9977752566337585,0.31887710094451904,0.6494140028953552,-0.1071716770529747,0.9981518387794495,0.4881533980369568,0.8393758535385132,0.29842713475227356,0.9494521021842957,0.34043774008750916,0.869229257106781,0.045352090150117874,0.9745400547981262,0.48570120334625244,0.9633656740188599,1.0751843452453613,0.8689770102500916,0.35763752460479736,0.9959576725959778,0.6460074186325073,0.9035983085632324,0.4603310227394104,0.9728217124938965,1.1331312656402588,0.818327009677887,0.35271382331848145,0.9965313076972961,0.689837634563446,0.649981677532196,0.5476119518280029,1.0188812017440796,0.8469364047050476,0.8241032361984253,0.4030798077583313,1.095468521118164,0.28512370586395264,0.7801758646965027
18800.57611151161,0.4477148950099945,0.22779157757759094,-1.001423716545105,0.9999878406524658,0.4522184431552887,0.20144012570381165,-0.9368039965629578,0.9999781847000122,0.4610758423805237,0.2003679871559143,-0.9369807839393616,0.9999755620956421,0.4698164463043213,0.19918733835220337,-0.937057614326477,0.9999719858169556,0.41734448075294495,0.20573970675468445,-0.968582272529602,0.9999784231185913,0.39818111062049866,0.2074618637561798,-0.9687076210975647,0.9999765157699585,0.378369003534317,0.20928186178207397,-0.9688185453414917,0.9999727010726929,0.4635937213897705,0.2086147665977478,-0.5552886128425598,0.999977707862854,0.3277052044868469,0.22165003418922424,-0.7096442580223083,0.9999808073043823,0.4619145095348358,0.24873872101306915,-0.8587803244590759,0.9999935626983643,0.42418456077575684,0.2519071400165558,-0.9024778604507446,0.9999949932098389,0.5445789098739624,0.3485293984413147,-0.2958938777446747,0.9999277591705322,0.18401415646076202,0.3676094710826874,-0.5535332560539246,0.9997647404670715,0.5865265727043152,0.5081862807273865,-0.06977666169404984,0.9788663983345032,0.1622554063796997,0.5246999859809875,-0.7494778037071228,0.9705370664596558,0.6457030177116394,0.6405168175697327,-0.3502240777015686,0.9773220419883728,0.2422497719526291,0.5560659766197205,-1.284408450126648,0.9295046925544739,0.6643142700195312,0.6821656823158264,-0.44297513365745544,0.9600972533226013,0.2807924449443817,0.5624327063560486,-1.4133048057556152,0.9101448059082031,0.6466753482818604,0.6808860898017883,-0.535600483417511,0.9637448787689209,0.2775462865829468,0.5275039672851562,-1.475571632385254,0.9138864874839783,0.6351616382598877,0.6711154580116272,-0.39158040285110474,0.964090883731842,0.2681559920310974,0.5233067870140076,-1.3186535835266113,0.8985277414321899,0.49323442578315735,0.629480242729187,0.10239105671644211,0.9979896545410156,0.31654298305511475,0.6497436761856079,-0.10197560489177704,0.9981778860092163,0.4874265193939209,0.8393783569335938,0.30140212178230286,0.9453793168067932,0.3421512246131897,0.8681833744049072,0.0675937682390213,0.9706329703330994,0.48584675788879395,0.9631375670433044,1.0914349555969238,0.8677170872688293,0.35862424969673157,0.9951006770133972,0.7089837193489075,0.8934763073921204,0.46092233061790466,0.9731367230415344,1.150207757949829,0.8212026357650757,0.3543619215488434,0.9962019324302673,0.757257878780365,0.6564636826515198,0.542069137096405,1.0219937562942505,0.852820634841919,0.8237446546554565,0.40604016184806824,1.0930500030517578,0.35027793049812317,0.7669828534126282
18817.24277817828,0.44346684217453003,0.22537776827812195,-1.0394246578216553,0.999987006187439,0.44959554076194763,0.20044445991516113,-0.9759600758552551,0.9999743700027466,0.45887190103530884,0.199647456407547,-0.9760978817939758,0.9999707937240601,0.4681271016597748,0.19893863797187805,-0.9761272072792053,0.999966025352478,0.4130952060222626,0.2035524547100067,-1.0045589208602905,0.9999768733978271,0.39425334334373474,0.20482149720191956,-1.00468909740448,0.9999750852584839,0.37518075108528137,0.20661631226539612,-1.004814624786377,0.9999721050262451,0.463665246963501,0.21015506982803345,-0.5930430293083191,0.999967098236084,0.32488101720809937,0.21990317106246948,-0.7348502278327942,0.9999796152114868,0.45741406083106995,0.24645549058914185,-0.8964859843254089,0.9999916553497314,0.41688552498817444,0.2487512081861496,-0.9365341067314148,0.9999946355819702,0.5397685170173645,0.3493415415287018,-0.316884309053421,0.9998985528945923,0.18651974201202393,0.3635813593864441,-0.5759056806564331,0.9998432397842407,0.5849217176437378,0.5082308650016785,-0.08325857669115067,0.9744985103607178,0.15520718693733215,0.5159815549850464,-0.7274328470230103,0.9735661149024963,0.6443082094192505,0.6391595602035522,-0.3728289306163788,0.9683411717414856,0.2557229995727539,0.5637917518615723,-1.215521216392517,0.9200968146324158,0.6628367900848389,0.6800548434257507,-0.46889325976371765,0.9457064270973206,0.29441332817077637,0.5706280469894409,-1.3415285348892212,0.8951677680015564,0.6461186408996582,0.67902672290802,-0.565553605556488,0.9501293897628784,0.3003609776496887,0.5437954664230347,-1.407867670059204,0.8995548486709595,0.6350682973861694,0.6691449284553528,-0.4163222312927246,0.9512302875518799,0.2897675931453705,0.5385945439338684,-1.249744176864624,0.8827065825462341,0.493661493062973,0.6295128464698792,0.10935299098491669,0.9977586269378662,0.32020941376686096,0.6487661004066467,-0.10898984223604202,0.9985805749893188,0.4935356080532074,0.8278085589408875,0.35172760486602783,0.951045572757721,0.3408076763153076,0.8657798171043396,0.04848048463463783,0.981673002243042,0.48612967133522034,0.958735466003418,1.150830626487732,0.8846806287765503,0.35699594020843506,0.9945284128189087,0.6265835762023926,0.9279703497886658,0.46013253927230835,0.9704302549362183,1.2106186151504517,0.837450385093689,0.3539661765098572,0.9957354664802551,0.6675053834915161,0.6974811553955078,0.5506545305252075,1.0151996612548828,0.9223262667655945,0.8480491638183594,0.40101999044418335,1.0952818393707275,0.2536085546016693,0.8266588449478149
18833.909444844947,0.4445626139640808,0.22476130723953247,-1.0277845859527588,0.9999872446060181,0.44936490058898926,0.19939905405044556,-0.9626844525337219,0.9999767541885376,0.45869627594947815,0.19873997569084167,-0.9628410339355469,0.9999740123748779,0.46788883209228516,0.19810569286346436,-0.9629064798355103,0.999969482421875,0.413016676902771,0.20262396335601807,-0.9923314452171326,0.9999772310256958,0.3941294252872467,0.2042195200920105,-0.9924583435058594,0.9999754428863525,0.37514105439186096,0.2062634527683258,-0.9925683736801147,0.9999716281890869,0.4631986618041992,0.2094864547252655,-0.5769000053405762,0.9999746084213257,0.3254997134208679,0.22017624974250793,-0.7223265767097473,0.9999797344207764,0.4596151113510132,0.24628272652626038,-0.8838205933570862,0.9999927282333374,0.4191460907459259,0.24866236746311188,-0.9249017834663391,0.9999946355819702,0.5414031744003296,0.35126590728759766,-0.30912938714027405,0.9999176263809204,0.1867237240076065,0.36657851934432983,-0.5575768947601318,0.9997687935829163,0.585834264755249,0.5093226432800293,-0.07633104175329208,0.9774372577667236,0.15422356128692627,0.5225449204444885,-0.7388433814048767,0.9706434011459351,0.6460041999816895,0.6407515406608582,-0.36467015743255615,0.9741322994232178,0.2505730092525482,0.5561450123786926,-1.265279769897461,0.9211148023605347,0.663225531578064,0.6811134219169617,-0.458367258310318,0.9548625946044922,0.2916557490825653,0.5619831085205078,-1.3935211896896362,0.8970226645469666,0.6465835571289062,0.679855465888977,-0.5534442663192749,0.958757221698761,0.2909984588623047,0.5317901372909546,-1.4532513618469238,0.9005513787269592,0.6361855268478394,0.6696964502334595,-0.4070514142513275,0.9592131972312927,0.27992087602615356,0.5261747241020203,-1.2979425191879272,0.882669985294342,0.4935338795185089,0.6307380795478821,0.10090959817171097,0.9980939030647278,0.31818681955337524,0.6503385305404663,-0.10050194710493088,0.998439371585846,0.49265122413635254,0.8326467275619507,0.28163063526153564,0.9523667097091675,0.34089434146881104,0.8678180575370789,0.047595784068107605,0.9766124486923218,0.4878043532371521,0.9604914784431458,1.115587830543518,0.8794190883636475,0.35789260268211365,0.9915623664855957,0.6842685341835022,0.9154093265533447,0.4619293808937073,0.9703243970870972,1.1786460876464844,0.8296779990196228,0.35507166385650635,0.9926955699920654,0.7314496636390686,0.6757590770721436,0.5435441136360168,1.0213896036148071,0.8826771974563599,0.8366120457649231,0.3959081172943115,1.09273099899292,0.3181418180465698,0.8034377098083496
18850.576111511615,0.4408108592033386,0.22545745968818665,-0.9691872000694275,0.9999854564666748,0.4476666748523712,0.2000965178012848,-0.9022552371025085,0.9999737739562988,0.45711904764175415,0.19931817054748535,-0.9024505615234375,0.9999711513519287,0.46643581986427307,0.1986510455608368,-0.9025447368621826,0.9999672174453735,0.41030070185661316,0.20357105135917664,-0.9311976432800293,0.9999724626541138,0.39068731665611267,0.20499107241630554,-0.9313114285469055,0.9999700784683228,0.3723260164260864,0.20678699016571045,-0.9314433932304382,0.9999645948410034,0.464000940322876,0.21029424667358398,-0.5125026702880859,0.9999737739562988,0.32433971762657166,0.2198864221572876,-0.6542426347732544,0.9999736547470093,0.45566391944885254,0.24681995809078217,-0.824010968208313,0.9999924898147583,0.4137342870235443,0.24923615157604218,-0.864157497882843,0.9999936819076538,0.5402854681015015,0.35057106614112854,-0.2522261440753937,0.9999260902404785,0.1849983185529709,0.3643074035644531,-0.49371668696403503,0.9997001886367798,0.5857783555984497,0.5089828968048096,-0.026251209899783134,0.979273796081543,0.16631150245666504,0.5221387147903442,-0.6905511617660522,0.9520620107650757,0.6463159322738647,0.6406541466712952,-0.3173116445541382,0.9747953414916992,0.25126779079437256,0.554916501045227,-1.2569924592971802,0.8846951723098755,0.6641349196434021,0.6804518103599548,-0.4120670557022095,0.9567461609840393,0.2862153947353363,0.5639300346374512,-1.3870528936386108,0.8662753105163574,0.647185206413269,0.6791430711746216,-0.5048844218254089,0.9607218503952026,0.2836915850639343,0.5300642251968384,-1.4554026126861572,0.8728771805763245,0.6361555457115173,0.6690293550491333,-0.358629435300827,0.9608793258666992,0.2737501859664917,0.5222062468528748,-1.2942228317260742,0.8537463545799255,0.49341875314712524,0.6312689185142517,0.09755831211805344,0.9980795383453369,0.31598037481307983,0.651651918888092,-0.09709375351667404,0.9982243180274963,0.48878493905067444,0.8341534733772278,0.21158723533153534,0.9500827193260193,0.3393745422363281,0.8710705041885376,0.010769869200885296,0.965961754322052,0.4867326319217682,0.9606367349624634,1.0367101430892944,0.8603144884109497,0.3576423227787018,0.9936503171920776,0.6389037370681763,0.8835230469703674,0.46161600947380066,0.9695130586624146,1.098715901374817,0.7937383651733398,0.354744017124176,0.993468701839447,0.6843675374984741,0.6001924872398376,0.5404759049415588,1.0221953392028809,0.7935049533843994,0.8039995431900024,0.3990722894668579,1.098289132118225,0.2613193690776825,0.7460960149765015
18867.242778178283,0.44825831055641174,0.2256242334842682,-0.9339407682418823,0.9999850988388062,0.45223844051361084,0.20019367337226868,-0.8681060671806335,0.9999731779098511,0.46161913871765137,0.19950658082962036,-0.8682901263237,0.999969482421875,0.47076916694641113,0.19881531596183777,-0.8683486580848694,0.9999649524688721,0.41655147075653076,0.20320779085159302,-0.8994177579879761,0.9999732971191406,0.39820900559425354,0.20468685030937195,-0.8995304107666016,0.9999707937240601,0.3782608211040497,0.20661157369613647,-0.8996676206588745,0.9999663829803467,0.4628086984157562,0.20931273698806763,-0.4872601628303528,0.9999709129333496,0.3267669379711151,0.2201700210571289,-0.6408580541610718,0.9999765157699585,0.4620683491230011,0.24705561995506287,-0.7923310995101929,0.9999922513961792,0.4234406352043152,0.2492205649614334,-0.835803747177124,0.999994158744812,0.5423805713653564,0.34940236806869507,-0.2384105771780014,0.9999250173568726,0.18678098917007446,0.3638779819011688,-0.4958956241607666,0.9997772574424744,0.584526538848877,0.5090339779853821,-0.014223121106624603,0.9769527912139893,0.15842607617378235,0.5158860683441162,-0.6924458742141724,0.9642462730407715,0.6452070474624634,0.6385388970375061,-0.30560991168022156,0.9772875308990479,0.24845974147319794,0.5606460571289062,-1.2325221300125122,0.9158756732940674,0.6636346578598022,0.6795167326927185,-0.40000128746032715,0.9618874788284302,0.2845432460308075,0.5680447816848755,-1.3620960712432861,0.8982760906219482,0.6465243697166443,0.6784531474113464,-0.49514293670654297,0.9654713869094849,0.28781452775001526,0.5385183095932007,-1.4283874034881592,0.9034395813941956,0.6358020305633545,0.6690142750740051,-0.3485337197780609,0.9655047059059143,0.27746573090553284,0.532954216003418,-1.2686983346939087,0.8884851932525635,0.4944280683994293,0.6291370391845703,0.10155153274536133,0.9981938004493713,0.31784164905548096,0.6477726101875305,-0.10109855234622955,0.9983932375907898,0.4949474334716797,0.8282983303070068,0.2630842328071594,0.9558871984481812,0.3411908745765686,0.8683099746704102,0.043821901082992554,0.9733837842941284,0.4890945851802826,0.9606048464775085,1.0863559246063232,0.8805840015411377,0.3573603630065918,0.9924090504646301,0.6892505288124084,0.9071590900421143,0.46553897857666016,0.9711073040962219,1.1489737033843994,0.831515371799469,0.35515767335891724,0.9925854802131653,0.7380189895629883,0.6691798567771912,0.5416060090065002,1.0222960710525513,0.8575180172920227,0.8360440135002136,0.39799025654792786,1.0911489725112915,0.33166253566741943,0.7899463772773743
18883.90944484495,0.4434497356414795,0.2249526083469391,-0.9710963368415833,0.9999865293502808,0.44904568791389465,0.19968074560165405,-0.9056764841079712,0.9999749660491943,0.4587039053440094,0.1990433931350708,-0.9058446288108826,0.9999719858169556,0.4682842493057251,0.1983935534954071,-0.9059047698974609,0.9999675750732422,0.4120625853538513,0.20254212617874146,-0.934542179107666,0.9999755620956421,0.39298418164253235,0.20399323105812073,-0.9346603751182556,0.9999734163284302,0.37419429421424866,0.205925852060318,-0.9348047375679016,0.9999699592590332,0.46384871006011963,0.20978423953056335,-0.5208621025085449,0.9999723434448242,0.32449841499328613,0.21995803713798523,-0.6625706553459167,0.9999786615371704,0.4575932025909424,0.24684615433216095,-0.8275500535964966,0.9999927282333374,0.4172267019748688,0.24865669012069702,-0.8676230907440186,0.9999947547912598,0.5443902015686035,0.35113921761512756,-0.2584267258644104,0.9999184608459473,0.18819868564605713,0.3648768365383148,-0.5055111050605774,0.999800980091095,0.5864264965057373,0.5111166834831238,-0.03725580498576164,0.9777519106864929,0.1563488245010376,0.5173380374908447,-0.6812271475791931,0.9685153961181641,0.647812008857727,0.641526460647583,-0.34273290634155273,0.9745774269104004,0.2603457272052765,0.5639139413833618,-1.2128498554229736,0.917107880115509,0.6650224924087524,0.6819776296615601,-0.4412094056606293,0.9570330381393433,0.29809799790382385,0.5689982771873474,-1.341736078262329,0.8952343463897705,0.6491835117340088,0.680497407913208,-0.5367580652236938,0.9609658122062683,0.30070897936820984,0.540677547454834,-1.407716989517212,0.9002514481544495,0.6394903063774109,0.6704505681991577,-0.3861112594604492,0.960708737373352,0.2908567190170288,0.5362053513526917,-1.2479959726333618,0.8842030167579651,0.4939539432525635,0.6313353776931763,0.09828222543001175,0.9977585077285767,0.318607360124588,0.6490621566772461,-0.09781727194786072,0.9981936812400818,0.4929490387439728,0.8333386778831482,0.24030768871307373,0.9555984139442444,0.34280523657798767,0.8679407835006714,0.02393372915685177,0.9726472496986389,0.49216029047966003,0.962776780128479,1.0421258211135864,0.8820978999137878,0.35919466614723206,0.9949628114700317,0.6482486724853516,0.9022637605667114,0.4699358642101288,0.9716346859931946,1.1013541221618652,0.8199822902679443,0.35584375262260437,0.9952154159545898,0.6934708952903748,0.6533713340759277,0.5416741371154785,1.027116060256958,0.792853832244873,0.8309199213981628,0.3999841809272766,1.0959208011627197,0.2734978199005127,0.7787215113639832
18900.57611151162,0.44444775581359863,0.22402212023735046,-0.9844832420349121,0.999988317489624,0.44953083992004395,0.1987336277961731,-0.920806884765625,0.9999778270721436,0.45892539620399475,0.1981230080127716,-0.9209542274475098,0.9999749660491943,0.46815335750579834,0.19749903678894043,-0.9209983348846436,0.9999710321426392,0.41338828206062317,0.2017950415611267,-0.949171781539917,0.9999791383743286,0.39479219913482666,0.2034527063369751,-0.9492790699005127,0.9999771118164062,0.37604275345802307,0.2055262327194214,-0.9494019746780396,0.9999738931655884,0.4632621705532074,0.20875900983810425,-0.5421216487884521,0.9999755620956421,0.32623711228370667,0.21960288286209106,-0.6820921897888184,0.9999812841415405,0.45848679542541504,0.2459704577922821,-0.843315601348877,0.9999934434890747,0.41909873485565186,0.24795334041118622,-0.8828625082969666,0.999995231628418,0.5440047979354858,0.3494623303413391,-0.28394848108291626,0.9999222755432129,0.1887102872133255,0.3639598786830902,-0.5264154672622681,0.9998268485069275,0.585797905921936,0.5070210099220276,-0.05827724188566208,0.9794470071792603,0.15404483675956726,0.512585461139679,-0.7142579555511475,0.9733971357345581,0.6433154344558716,0.6372068524360657,-0.34592458605766296,0.97719407081604,0.2511899769306183,0.5575665235519409,-1.2433736324310303,0.9284060001373291,0.6624654531478882,0.6797854900360107,-0.44012853503227234,0.960162878036499,0.29286542534828186,0.5654314756393433,-1.3710761070251465,0.9060776233673096,0.6466347575187683,0.6786683797836304,-0.535951554775238,0.9635226130485535,0.29708999395370483,0.537521481513977,-1.4347301721572876,0.9097312092781067,0.6361677646636963,0.6690579652786255,-0.38869592547416687,0.9635591506958008,0.28524529933929443,0.532046914100647,-1.2778129577636719,0.8945193290710449,0.49333035945892334,0.628210186958313,0.09909262508153915,0.9979294538497925,0.3185122013092041,0.6459041833877563,-0.09867530316114426,0.9984670281410217,0.4933420419692993,0.8294498324394226,0.28392428159713745,0.9593906998634338,0.3408331274986267,0.8652347326278687,0.043296221643686295,0.9795652627944946,0.4877146780490875,0.961171567440033,1.079040288925171,0.8892799615859985,0.3582189381122589,0.9947013854980469,0.6382256150245667,0.9211103320121765,0.46282410621643066,0.9712398052215576,1.138039469718933,0.8336003422737122,0.356794536113739,0.9955351948738098,0.6808375120162964,0.6869100332260132,0.5411691069602966,1.0244063138961792,0.8438184857368469,0.8451831340789795,0.39635270833969116,1.0933250188827515,0.26924994587898254,0.8125740885734558
