0,1
15232.020058855438,-4777.0
15232.02012135265,-3648.0
15232.020183849863,-2676.0
15232.020246347076,-2298.0
15232.020308844289,-2867.0
15232.020371341501,-4670.0
15232.020433838712,-6417.0
15232.020496335925,-7089.0
15232.020558833137,-7252.0
15232.02062133035,-6730.0
15232.020683827563,-3382.0
15232.020746324775,2976.0
15232.020808821988,9472.0
15232.0208713192,13550.0
15232.020933816413,14506.0
15232.020996313626,12561.0
15232.021058810838,8008.0
15232.021121308051,2502.0
15232.021183805262,-1825.0
15232.021246302475,-4062.0
15232.021308799687,-4765.0
15232.0213712969,-4252.0
15232.021433794112,-2270.0
15232.021496291325,589.0
15232.021558788538,2865.0
15232.02162128575,3810.0
15232.021683782963,3599.0
15232.021746280176,2508.0
15232.021808777386,1420.0
15232.0218712746,1534.0
15232.021933771812,3358.0
15232.021996269024,6054.0
15232.022058766237,8483.0
15232.02212126345,9981.0
15232.022183760662,10208.0
15232.022246257875,8900.0
15232.022308755088,6195.0
15232.0223712523,2742.0
15232.022433749513,-748.0
15232.022496246725,-3594.0
15232.022558743936,-5232.0
15232.022621241149,-5428.0
15232.022683738362,-4366.0
15232.022746235574,-2857.0
15232.022808732787,-1519.0
15232.02287123,-774.0
15232.022933727212,-647.0
15232.022996224425,-795.0
15232.023058721637,-747.0
15232.02312121885,-225.0
15232.02318371606,851.0
15232.023246213274,2312.0
15232.023308710486,3848.0
15232.023371207699,5117.0
15232.023433704911,5660.0
15232.023496202124,5218.0
15232.023558699337,3658.0
15232.02362119655,1362.0
15232.023683693762,-989.0
15232.023746190975,-2918.0
15232.023808688187,-3985.0
15232.0238711854,-4094.0
15232.02393368261,-3370.0
15232.023996179823,-2188.0
15232.024058677036,-1047.0
15232.024121174249,-177.0
15232.024183671461,347.0
15232.024246168674,497.0
15232.024308665887,391.0
15232.0243711631,209.0
15232.024433660312,162.0
15232.024496157524,506.0
15232.024558654735,984.0
15232.024621151948,1417.0
15232.02468364916,1703.0
15232.024746146373,1594.0
15232.024808643586,1105.0
15232.024871140798,365.0
15232.024933638011,-348.0
15232.024996135224,-757.0
15232.025058632436,-806.0
15232.025121129649,-483.0
15232.025183626862,231.0
15232.025246124074,1134.0
15232.025308621285,1922.0
15232.025371118498,2352.0
15232.02543361571,2302.0
15232.025496112923,1897.0
15232.025558610136,1050.0
15232.025621107348,94.0
15232.025683604561,-576.0
15232.025746101774,-997.0
15232.025808598986,-1150.0
15232.025871096199,-1091.0
15232.02593359341,-1024.0
15232.025996090622,-693.0
15232.026058587835,885.0
15232.026121085048,3765.0
15232.02618358226,6109.0
15232.026246079473,6302.0
15232.026308576686,4706.0
15232.026371073898,2481.0
15232.02643357111,359.0
15232.026496068323,-795.0
15232.026558565536,-934.0
15232.026621062749,-632.0
15232.02668355996,-375.0
15232.026746057172,-235.0
15232.026808554385,-36.0
15232.026871051597,209.0
15232.02693354881,190.0
15232.026996046023,-598.0
15232.027058543235,-1919.0
15232.027121040448,-2788.0
15232.02718353766,-2854.0
15232.027246034871,-2032.0
15232.027308532084,-848.0
15232.027371029297,-198.0
15232.02743352651,-558.0
15232.027496023722,-1342.0
15232.027558520935,-2141.0
15232.027621018147,-2702.0
15232.02768351536,-2780.0
15232.027746012573,-2508.0
15232.027808509785,-2110.0
15232.027871006998,-1684.0
15232.02793350421,-1263.0
15232.027996001423,-952.0
15232.028058498634,-961.0
15232.028120995847,-1459.0
15232.02818349306,-2328.0
15232.028245990272,-3154.0
15232.028308487485,-3442.0
15232.028370984697,-2995.0
15232.02843348191,-2076.0
15232.028495979122,-943.0
15232.028558476335,-48.0
15232.028620973546,536.0
15232.028683470759,843.0
15232.028745967971,718.0
15232.028808465184,451.0
15232.028870962396,187.0
15232.02893345961,47.0
15232.028995956822,169.0
15232.029058454034,549.0
15232.029120951247,1086.0
15232.02918344846,1529.0
15232.029245945672,1670.0
15232.029308442885,1529.0
15232.029370940098,1328.0
15232.029433437308,1105.0
15232.029495934521,1096.0
15232.029558431734,1250.0
15232.029620928946,1593.0
15232.029683426159,1963.0
15232.029745923372,2209.0
15232.029808420584,2421.0
15232.029870917797,2367.0
15232.02993341501,1944.0
15232.02999591222,1359.0
15232.030058409433,724.0
15232.030120906646,178.0
15232.030183403858,-393.0
15232.03024590107,-1107.0
15232.030308398284,-2113.0
15232.030370895496,-3715.0
15232.030433392709,-6106.0
15232.030495889921,-9273.0
15232.030558387134,-13164.0
15232.030620884347,-17439.0
15232.03068338156,-21448.0
15232.03074587877,-24506.0
15232.030808375983,-26292.0
15232.030870873195,-27181.0
15232.030933370408,-27180.0
15232.03099586762,-25911.0
15232.031058364833,-22732.0
15232.031120862046,-16006.0
15232.031183359259,-5017.0
15232.031245856471,7360.0
15232.031308353684,16534.0
15232.031370850895,20683.0
15232.031433348107,20627.0
15232.03149584532,17366.0
15232.031558342533,11852.0
15232.031620839745,6153.0
15232.031683336958,1600.0
15232.03174583417,-2174.0
15232.031808331383,-4936.0
15232.031870828596,-5637.0
15232.031933325808,-4232.0
15232.031995823021,-2327.0
15232.032058320234,-1510.0
15232.032120817445,-1809.0
15232.032183314657,-2213.0
15232.03224581187,-1830.0
15232.032308309083,-113.0
15232.032370806295,3303.0
15232.032433303508,7355.0
15232.03249580072,10696.0
15232.032558297933,12530.0
15232.032620795146,12993.0
15232.032683292358,12095.0
15232.03274578957,9762.0
15232.032808286782,6547.0
15232.032870783994,3206.0
15232.032933281207,408.0
15232.03299577842,-1062.0
15232.033058275632,-714.0
15232.033120772845,1060.0
15232.033183270058,3167.0
15232.03324576727,4764.0
15232.033308264483,5710.0
15232.033370761696,6132.0
15232.033433258908,6162.0
15232.033495756119,6220.0
15232.033558253332,6481.0
15232.033620750544,7052.0
15232.033683247757,7855.0
15232.03374574497,8682.0
15232.033808242182,9279.0
15232.033870739395,9719.0
15232.033933236607,11081.0
15232.03399573382,12613.0
15232.034058231033,12104.0
15232.034120728244,9200.0
15232.034183225456,5470.0
15232.034245722669,1810.0
15232.034308219881,-901.0
15232.034370717094,-1639.0
15232.034433214307,-790.0
15232.03449571152,546.0
15232.034558208732,1776.0
15232.034620705945,2994.0
15232.034683203157,4256.0
15232.03474570037,5084.0
15232.034808197583,5209.0
15232.034870694793,4315.0
15232.034933192006,3361.0
15232.034995689219,2686.0
15232.035058186431,2399.0
15232.035120683644,2445.0
15232.035183180857,2190.0
15232.03524567807,572.0
15232.035308175282,-1996.0
15232.035370672495,-4368.0
15232.035433169707,-6387.0
15232.035495666918,-7750.0
15232.03555816413,-8393.0
15232.035620661343,-8362.0
15232.035683158556,-7982.0
15232.035745655769,-7696.0
15232.035808152981,-7394.0
15232.035870650194,-7021.0
15232.035933147406,-6875.0
15232.03599564462,-7525.0
15232.036058141832,-8882.0
15232.036120639044,-9992.0
15232.036183136257,-10469.0
15232.036245633468,-10440.0
15232.03630813068,-10286.0
15232.036370627893,-10247.0
15232.036433125106,-10829.0
15232.036495622318,-11776.0
15232.036558119531,-12666.0
15232.036620616744,-12752.0
15232.036683113956,-10723.0
15232.036745611169,-4915.0
15232.036808108382,3401.0
15232.036870605592,10158.0
15232.036933102805,13061.0
15232.036995600018,13150.0
15232.03705809723,11245.0
15232.037120594443,7817.0
15232.037183091656,4003.0
15232.037245588868,1149.0
15232.03730808608,-967.0
15232.037370583294,-2328.0
15232.037433080506,-2341.0
15232.037495577719,-581.0
15232.037558074931,1649.0
15232.037620572142,2938.0
15232.037683069355,2741.0
15232.037745566568,2081.0
15232.03780806378,2090.0
15232.037870560993,3232.0
15232.037933058205,5519.0
15232.037995555418,8394.0
15232.03805805263,10485.0
15232.038120549843,11042.0
15232.038183047054,10483.0
15232.038245544267,8977.0
15232.03830804148,6706.0
15232.038370538692,4214.0
15232.038433035905,2044.0
15232.038495533117,634.0
15232.03855803033,182.0
15232.038620527543,722.0
15232.038683024755,1871.0
15232.038745521968,2841.0
15232.03880801918,3056.0
15232.038870516393,2481.0
15232.038933013606,1814.0
15232.038995510817,1336.0
15232.03905800803,1185.0
15232.039120505242,1406.0
15232.039183002455,2032.0
15232.039245499667,2516.0
15232.03930799688,2667.0
15232.039370494093,2525.0
15232.039432991305,1993.0
15232.039495488518,1001.0
15232.039557985729,-577.0
15232.039620482941,-2502.0
15232.039682980154,-4407.0
15232.039745477367,-6025.0
15232.03980797458,-7366.0
15232.039870471792,-8815.0
15232.039932969004,-10583.0
15232.039995466217,-13022.0
15232.04005796343,-15818.0
15232.040120460642,-18915.0
15232.040182957855,-22240.0
15232.040245455068,-25439.0
15232.04030795228,-29843.0
15232.040370449491,-32397.0
15232.040432946704,-32768.0
15232.040495443916,-30428.0
15232.040557941129,-10945.0
15232.040620438342,14614.0
15232.040682935554,27992.0
15232.040745432767,31227.0
15232.04080792998,29114.0
15232.040870427192,21901.0
15232.040932924403,11271.0
15232.040995421616,2889.0
15232.041057918828,-2026.0
15232.041120416041,-6837.0
15232.041182913254,-10538.0
15232.041245410466,-8600.0
15232.041307907679,-1850.0
15232.041370404891,3878.0
15232.041432902104,3447.0
15232.041495399317,-568.0
15232.04155789653,-5105.0
15232.041620393742,-7184.0
15232.041682890953,-5560.0
15232.041745388166,775.0
15232.041807885378,8440.0
15232.04187038259,13668.0
15232.041932879803,15911.0
15232.041995377016,16578.0
15232.042057874229,15293.0
15232.042120371441,11417.0
15232.042182868654,5750.0
15232.042245365867,81.0
15232.042307863077,-3884.0
15232.04237036029,-4532.0
15232.042432857503,-1333.0
15232.042495354715,4334.0
15232.042557851928,8500.0
15232.04262034914,9433.0
15232.042682846353,8233.0
15232.042745343566,6530.0
15232.042807840779,4815.0
15232.042870337991,3696.0
15232.042932835204,4049.0
15232.042995332416,5613.0
15232.043057829627,7690.0
15232.04312032684,9764.0
15232.043182824053,11738.0
15232.043245321265,12511.0
15232.043307818478,11155.0
15232.04337031569,7780.0
15232.043432812903,4165.0
15232.043495310116,1868.0
15232.043557807328,958.0
15232.043620304541,1077.0
15232.043682801752,1817.0
15232.043745298964,2558.0
15232.043807796177,2625.0
15232.04387029339,2216.0
15232.043932790602,1373.0
15232.043995287815,457.0
15232.044057785028,-42.0
15232.04412028224,-509.0
15232.044182779453,-222.0
15232.044245276666,953.0
15232.044307773878,2406.0
15232.04437027109,3072.0
15232.044432768302,2614.0
15232.044495265514,1125.0
15232.044557762727,-1462.0
15232.04462025994,-4599.0
15232.044682757152,-7615.0
15232.044745254365,-10341.0
15232.044807751578,-12884.0
15232.04487024879,-14823.0
15232.044932746003,-16173.0
15232.044995243215,-16588.0
15232.045057740426,-16565.0
15232.045120237639,-17077.0
15232.045182734852,-18735.0
15232.045245232064,-21190.0
15232.045307729277,-23929.0
15232.04537022649,-24989.0
15232.045432723702,-20673.0
15232.045495220915,-10732.0
15232.045557718127,-164.0
15232.04562021534,7848.0
15232.045682712553,13709.0
15232.045745209765,17165.0
15232.045807706976,16364.0
15232.045870204189,12294.0
15232.045932701401,7190.0
15232.045995198614,2237.0
15232.046057695827,-2190.0
15232.04612019304,-4365.0
15232.046182690252,-3359.0
15232.046245187465,-453.0
15232.046307684677,1672.0
15232.04637018189,1911.0
15232.0464326791,855.0
15232.046495176313,-560.0
15232.046557673526,-1875.0
15232.046620170739,-2229.0
15232.046682667951,-995.0
15232.046745165164,1181.0
15232.046807662377,3576.0
15232.04687015959,5828.0
15232.046932656802,7589.0
15232.046995154014,8297.0
15232.047057651227,7654.0
15232.04712014844,5939.0
15232.04718264565,3994.0
15232.047245142863,2663.0
15232.047307640076,2705.0
15232.047370137288,3938.0
15232.047432634501,5680.0
15232.047495131714,7247.0
15232.047557628926,8269.0
15232.047620126139,8497.0
15232.047682623352,8049.0
15232.047745120564,6988.0
15232.047807617775,5947.0
15232.047870114988,5460.0
15232.0479326122,5636.0
15232.047995109413,6188.0
15232.048057606626,6992.0
15232.048120103838,7745.0
15232.048182601051,7776.0
15232.048245098264,6912.0
15232.048307595476,5634.0
15232.048370092689,4377.0
15232.048432589901,3365.0
15232.048495087114,2737.0
15232.048557584325,2509.0
15232.048620081538,2649.0
15232.04868257875,2860.0
15232.048745075963,2808.0
15232.048807573176,2439.0
15232.048870070388,1879.0
15232.0489325676,1109.0
15232.048995064813,244.0
15232.049057562026,-644.0
15232.049120059237,-1251.0
15232.04918255645,-1633.0
15232.049245053662,-1923.0
15232.049307550875,-2642.0
15232.049370048087,-4206.0
15232.0494325453,-6798.0
15232.049495042513,-10333.0
15232.049557539725,-14497.0
15232.049620036938,-18581.0
15232.04968253415,-22203.0
15232.049745031363,-25487.0
15232.049807528576,-28227.0
15232.049870025789,-30930.0
15232.049932523,-32400.0
15232.049995020212,-32768.0
15232.050057517425,-30181.0
15232.050120014637,-15663.0
15232.05018251185,2659.0
15232.050245009063,15844.0
15232.050307506275,23259.0
15232.050370003488,24783.0
15232.0504325007,20735.0
15232.050494997911,13775.0
15232.050557495124,7064.0
15232.050619992337,1449.0
15232.05068248955,-3884.0
15232.050744986762,-7449.0
15232.050807483974,-7504.0
15232.050869981187,-4140.0
15232.0509324784,-734.0
15232.050994975612,23.0
15232.051057472825,-1264.0
15232.051119970038,-3458.0
15232.05118246725,-4725.0
15232.051244964463,-3686.0
15232.051307461674,654.0
15232.051369958886,5938.0
15232.051432456099,10219.0
15232.051494953312,12733.0
15232.051557450524,13551.0
15232.051619947737,12373.0
15232.05168244495,9251.0
15232.051744942162,4605.0
15232.051807439375,-47.0
15232.051869936586,-3246.0
15232.051932433798,-3745.0
15232.051994931011,-1489.0
15232.052057428224,2785.0
15232.052119925436,6856.0
15232.052182422649,9201.0
15232.052244919862,9510.0
15232.052307417074,8863.0
15232.052369914287,7716.0
15232.0524324115,6915.0
15232.052494908712,6983.0
15232.052557405925,7842.0
15232.052619903137,9097.0
15232.052682400348,10586.0
15232.05274489756,11707.0
15232.052807394773,11720.0
15232.052869891986,10039.0
15232.052932389199,6963.0
15232.052994886411,3679.0
15232.053057383624,1342.0
15232.053119880837,322.0
15232.05318237805,430.0
15232.05324487526,1298.0
15232.053307372473,2460.0
15232.053369869685,3154.0
15232.053432366898,3131.0
15232.05349486411,2766.0
15232.053557361323,1975.0
15232.053619858536,1164.0
15232.053682355749,759.0
15232.053744852961,1008.0
15232.053807350174,1657.0
15232.053869847387,2210.0
15232.0539323446,1824.0
15232.05399484181,301.0
15232.054057339023,-2164.0
15232.054119836235,-5440.0
15232.054182333448,-9348.0
15232.05424483066,-13564.0
15232.054307327873,-17800.0
15232.054369825086,-21794.0
15232.054432322298,-25200.0
15232.054494819511,-27663.0
15232.054557316724,-29554.0
15232.054619813935,-32071.0
15232.054682311147,-32651.0
15232.05474480836,-32768.0
15232.054807305572,-31569.0
15232.054869802785,-16706.0
15232.054932299998,3252.0
15232.05499479721,17306.0
15232.055057294423,25586.0
15232.055119791636,27175.0
15232.055182288848,22620.0
15232.055244786061,15124.0
15232.055307283274,8038.0
15232.055369780484,1633.0
15232.055432277697,-4678.0
15232.05549477491,-8697.0
15232.055557272122,-8403.0
15232.055619769335,-4208.0
15232.055682266548,-329.0
15232.05574476376,626.0
15232.055807260973,-927.0
15232.055869758186,-3598.0
15232.055932255398,-5470.0
15232.055994752609,-4492.0
15232.056057249822,90.0
15232.056119747034,5492.0
15232.056182244247,9725.0
15232.05624474146,12183.0
15232.056307238672,13155.0
15232.056369735885,12162.0
15232.056432233097,9014.0
15232.05649473031,4271.0
15232.056557227523,-779.0
15232.056619724735,-4329.0
15232.056682221948,-4704.0
15232.056744719159,-1605.0
15232.056807216371,3556.0
15232.056869713584,8330.0
15232.056932210797,11152.0
15232.05699470801,11456.0
15232.057057205222,10194.0
15232.057119702435,8428.0
15232.057182199647,7158.0
15232.05724469686,6562.0
15232.057307194073,6960.0
15232.057369691283,8153.0
15232.057432188496,9711.0
15232.057494685709,11214.0
15232.057557182921,11656.0
15232.057619680134,10357.0
15232.057682177347,7513.0
15232.05774467456,4361.0
15232.057807171772,1859.0
15232.057869668984,813.0
15232.057932166197,1201.0
15232.05799466341,2421.0
15232.058057160622,3816.0
15232.058119657833,4570.0
15232.058182155046,4447.0
15232.058244652259,3800.0
15232.058307149471,2887.0
15232.058369646684,1764.0
15232.058432143896,688.0
15232.058494641109,347.0
15232.058557138322,440.0
15232.058619635534,505.0
15232.058682132747,89.0
15232.058744629958,-960.0
15232.05880712717,-2836.0
15232.058869624383,-5767.0
15232.058932121596,-9578.0
15232.058994618808,-13975.0
15232.059057116021,-18444.0
15232.059119613234,-22743.0
15232.059182110446,-26499.0
15232.059244607659,-29640.0
15232.059307104872,-32042.0
15232.059369602084,-32768.0
15232.059432099297,-32422.0
15232.059494596508,-32768.0
15232.05955709372,-30281.0
15232.059619590933,-12899.0
15232.059682088146,7406.0
15232.059744585358,20005.0
15232.05980708257,25837.0
15232.059869579783,25466.0
15232.059932076996,20238.0
15232.059994574209,12980.0
15232.06005707142,6521.0
15232.060119568632,945.0
15232.060182065845,-4610.0
15232.060244563057,-7716.0
15232.06030706027,-6522.0
15232.060369557483,-2127.0
15232.060432054695,726.0
15232.060494551908,455.0
15232.06055704912,-2138.0
15232.060619546333,-4677.0
15232.060682043546,-5526.0
15232.060744540759,-2948.0
15232.060807037971,2554.0
15232.060869535182,8162.0
15232.060932032395,11644.0
15232.060994529607,12981.0
15232.06105702682,12925.0
15232.061119524033,11134.0
15232.061182021245,7216.0
15232.061244518458,1993.0
15232.06130701567,-2675.0
15232.061369512883,-5162.0
15232.061432010094,-4415.0
15232.061494507307,-249.0
15232.06155700452,5502.0
15232.061619501732,10016.0
15232.061681998945,11840.0
15232.061744496157,11280.0
15232.06180699337,9980.0
15232.061869490582,8633.0
15232.061931987795,7860.0
15232.061994485008,7696.0
15232.06205698222,8350.0
15232.062119479433,9380.0
15232.062181976646,10682.0
15232.062244473856,11576.0
15232.06230697107,11443.0
15232.062369468282,9564.0
15232.062431965494,6420.0
15232.062494462707,3403.0
15232.06255695992,1762.0
15232.062619457132,1514.0
15232.062681954345,2341.0
15232.062744451558,3546.0
15232.062806948768,4494.0
15232.062869445981,4645.0
15232.062931943194,4206.0
15232.062994440406,3487.0
15232.063056937619,2785.0
15232.063119434832,2067.0
15232.063181932044,1486.0
15232.063244429257,1397.0
15232.06330692647,1633.0
15232.063369423682,1740.0
15232.063431920895,1087.0
15232.063494418107,-520.0
15232.06355691532,-3130.0
15232.06361941253,-6550.0
15232.063681909744,-10435.0
15232.063744406956,-14640.0
15232.063806904169,-18942.0
15232.063869401381,-23259.0
15232.063931898594,-27438.0
15232.063994395807,-31109.0
15232.06405689302,-32752.0
15232.064119390232,-32768.0
15232.064181887443,-32422.0
15232.064244384655,-32768.0
15232.064306881868,-30136.0
15232.06436937908,-12063.0
15232.064431876293,8483.0
15232.064494373506,20504.0
15232.064556870719,25766.0
15232.064619367931,24984.0
15232.064681865144,19390.0
15232.064744362357,11955.0
15232.06480685957,5787.0
15232.064869356782,493.0
15232.064931853993,-4769.0
15232.064994351205,-7694.0
15232.065056848418,-6080.0
15232.06511934563,-1595.0
15232.065181842843,765.0
15232.065244340056,-345.0
15232.065306837269,-3151.0
15232.065369334481,-5234.0
15232.065431831694,-5564.0
15232.065494328906,-2438.0
15232.065556826117,3501.0
15232.06561932333,9267.0
15232.065681820543,12548.0
15232.065744317755,13717.0
15232.065806814968,13494.0
15232.06586931218,11407.0
15232.065931809393,7122.0
15232.065994306606,1923.0
15232.066056803818,-2665.0
15232.066119301031,-5097.0
15232.066181798244,-4269.0
15232.066244295456,-56.0
15232.066306792667,5480.0
15232.06636928988,9900.0
15232.066431787092,12019.0
15232.066494284305,12176.0
15232.066556781518,10879.0
15232.06661927873,9130.0
15232.066681775943,8153.0
15232.066744273156,8004.0
15232.066806770368,8627.0
15232.06686926758,9831.0
15232.066931764792,11242.0
15232.066994262004,12294.0
15232.067056759217,12153.0
15232.06711925643,10274.0
15232.067181753642,7239.0
15232.067244250855,4302.0
15232.067306748067,2403.0
15232.06736924528,1851.0
15232.067431742493,2586.0
15232.067494239705,4078.0
15232.067556736918,5476.0
15232.06761923413,6050.0
15232.067681731342,5738.0
15232.067744228554,4590.0
15232.067806725767,3194.0
15232.06786922298,1852.0
15232.067931720192,879.0
15232.067994217405,732.0
15232.068056714617,1202.0
15232.06811921183,1527.0
15232.068181709043,1099.0
15232.068244206255,-224.0
15232.068306703466,-2540.0
15232.068369200679,-5666.0
15232.068431697891,-9490.0
15232.068494195104,-13669.0
15232.068556692317,-18063.0
15232.06861918953,-22446.0
15232.068681686742,-26466.0
15232.068744183955,-30227.0
15232.068806681167,-32475.0
15232.06886917838,-32768.0
15232.068931675592,-32570.0
15232.068994172805,-32768.0
15232.069056670016,-32565.0
15232.069119167229,-19209.0
15232.069181664441,2110.0
15232.069244161654,17053.0
15232.069306658866,24667.0
15232.06936915608,26030.0
15232.069431653292,21678.0
15232.069494150504,14426.0
15232.069556647717,7264.0
15232.06961914493,1469.0
15232.06968164214,-3924.0
15232.069744139353,-7282.0
15232.069806636566,-6582.0
15232.069869133778,-2388.0
15232.069931630991,1063.0
15232.069994128204,1409.0
15232.070056625416,-938.0
15232.070119122629,-3916.0
15232.070181619842,-5656.0
15232.070244117054,-4287.0
15232.070306614267,642.0
15232.07036911148,6712.0
15232.07043160869,11262.0
15232.070494105903,13526.0
15232.070556603116,14015.0
15232.070619100328,12568.0
15232.07068159754,8926.0
15232.070744094754,3796.0
15232.070806591966,-1104.0
15232.070869089179,-4423.0
15232.070931586391,-5086.0
15232.070994083604,-2220.0
15232.071056580815,3452.0
15232.071119078028,8905.0
15232.07118157524,12171.0
15232.071244072453,13176.0
15232.071306569665,12537.0
15232.071369066878,10486.0
15232.07143156409,8568.0
15232.071494061303,7806.0
15232.071556558516,8053.0
15232.071619055729,8859.0
15232.071681552941,10246.0
15232.071744050154,11694.0
15232.071806547365,12281.0
15232.071869044577,11277.0
15232.07193154179,8675.0
15232.071994039003,5600.0
15232.072056536215,3133.0
15232.072119033428,1826.0
15232.07218153064,1861.0
15232.072244027853,3168.0
15232.072306525066,4969.0
15232.072369022277,6127.0
15232.07243151949,6162.0
15232.072494016702,5417.0
15232.072556513915,4167.0
15232.072619011127,2749.0
15232.07268150834,1619.0
15232.072744005553,1206.0
15232.072806502765,1644.0
15232.072868999978,2195.0
15232.07293149719,2190.0
15232.072993994403,1479.0
15232.073056491616,-271.0
15232.073118988828,-3202.0
15232.07318148604,-6793.0
15232.073243983252,-10580.0
15232.073306480464,-14437.0
15232.073368977677,-18567.0
15232.07343147489,-22616.0
15232.073493972102,-26595.0
15232.073556469315,-30830.0
15232.073618966528,-32768.0
15232.07368146374,-32768.0
15232.073743960951,-32612.0
15232.073806458164,-32768.0
15232.073868955376,-32483.0
15232.073931452589,-18962.0
15232.073993949802,3127.0
15232.074056447014,18642.0
15232.074118944227,26438.0
15232.07418144144,27226.0
15232.074243938652,22177.0
15232.074306435865,14290.0
15232.074368933077,6739.0
15232.07443143029,605.0
15232.074493927503,-4627.0
15232.074556424714,-7534.0
15232.074618921926,-6425.0
15232.074681419139,-2360.0
15232.074743916352,455.0
15232.074806413564,431.0
15232.074868910777,-1909.0
15232.07493140799,-4590.0
15232.074993905202,-6019.0
15232.075056402415,-4003.0
15232.075118899626,1152.0
15232.075181396838,7402.0
15232.07524389405,11842.0
15232.075306391263,14071.0
15232.075368888476,14273.0
15232.075431385689,12547.0
15232.075493882901,8577.0
15232.075556380114,3427.0
15232.075618877327,-1347.0
15232.07568137454,-4296.0
15232.075743871752,-4538.0
15232.075806368965,-1138.0
15232.075868866175,4421.0
15232.075931363388,9474.0
15232.0759938606,12372.0
15232.076056357813,13040.0
15232.076118855026,11732.0
15232.076181352239,9479.0
15232.076243849451,7756.0
15232.076306346664,7230.0
15232.076368843876,7722.0
15232.07643134109,9040.0
15232.0764938383,10937.0
15232.076556335513,12424.0
15232.076618832725,12839.0
15232.076681329938,11632.0
15232.07674382715,8886.0
15232.076806324363,5696.0
15232.076868821576,3251.0
15232.076931318788,2183.0
15232.076993816001,2649.0
15232.077056313214,4095.0
15232.077118810426,5536.0
15232.077181307639,6350.0
15232.07724380485,6166.0
15232.077306302062,5115.0
15232.077368799275,3502.0
15232.077431296488,1934.0
15232.0774937937,943.0
15232.077556290913,738.0
15232.077618788126,1444.0
15232.077681285338,2432.0
15232.07774378255,2865.0
15232.077806279764,2230.0
15232.077868776974,196.0
15232.077931274187,-3059.0
15232.0779937714,-7046.0
15232.078056268612,-11165.0
15232.078118765825,-15315.0
15232.078181263038,-19579.0
15232.07824376025,-23658.0
15232.078306257463,-28254.0
15232.078368754675,-32119.0
15232.078431251888,-32768.0
15232.0784937491,-32768.0
15232.078556246313,-32503.0
15232.078618743524,-32768.0
15232.078681240737,-31137.0
15232.07874373795,-14375.0
15232.078806235162,6728.0
15232.078868732375,20087.0
15232.078931229587,26845.0
15232.0789937268,26765.0
15232.079056224013,21073.0
15232.079118721225,13260.0
15232.079181218438,6241.0
15232.079243715649,117.0
15232.079306212861,-5048.0
15232.079368710074,-6934.0
15232.079431207287,-4856.0
15232.0794937045,-1000.0
15232.079556201712,741.0
15232.079618698925,-275.0
15232.079681196137,-3067.0
15232.07974369335,-5856.0
15232.079806190563,-6672.0
15232.079868687775,-3694.0
15232.079931184988,2051.0
15232.079993682199,7969.0
15232.080056179411,12196.0
15232.080118676624,14579.0
15232.080181173837,14798.0
15232.08024367105,12673.0
15232.080306168262,8255.0
15232.080368665474,2886.0
15232.080431162687,-1810.0
15232.0804936599,-4342.0
15232.080556157112,-3923.0
15232.080618654323,18.0
15232.080681151536,5548.0
15232.080743648748,9898.0
15232.080806145961,12099.0
15232.080868643174,12535.0
15232.080931140386,11370.0
15232.080993637599,9242.0
15232.081056134812,7687.0
15232.081118632024,7512.0
15232.081181129237,8384.0
15232.08124362645,9852.0
15232.081306123662,11793.0
15232.081368620873,13346.0
15232.081431118086,13500.0
15232.081493615298,11727.0
15232.081556112511,8560.0
15232.081618609724,5352.0
15232.081681106936,3133.0
15232.081743604149,2288.0
15232.081806101362,2892.0
15232.081868598574,4378.0
15232.081931095787,5603.0
15232.081993592998,6028.0
15232.08205609021,5648.0
15232.082118587423,4803.0
15232.082181084636,3808.0
15232.082243581848,2863.0
15232.08230607906,2406.0
15232.082368576273,2556.0
15232.082431073486,3061.0
15232.082493570699,3381.0
15232.082556067911,2914.0
15232.082618565124,1473.0
15232.082681062337,-1120.0
15232.082743559547,-4492.0
15232.08280605676,-7956.0
15232.082868553973,-11077.0
15232.082931051185,-13980.0
15232.082993548398,-17124.0
15232.08305604561,-20780.0
15232.083118542823,-25122.0
15232.083181040036,-30486.0
15232.083243537249,-32768.0
15232.08330603446,-32753.0
15232.083368531672,-32768.0
15232.083431028885,-32534.0
15232.083493526097,-32768.0
15232.08355602331,-23403.0
15232.083618520523,-1867.0
15232.083681017735,14904.0
15232.083743514948,24642.0
15232.08380601216,27553.0
15232.083868509373,23550.0
15232.083931006586,16261.0
15232.083993503798,9038.0
15232.084056001011,2851.0
15232.084118498222,-2553.0
15232.084180995435,-5492.0
15232.084243492647,-4896.0
15232.08430598986,-1433.0
15232.084368487072,1349.0
15232.084430984285,1205.0
15232.084493481498,-1493.0
15232.08455597871,-5177.0
15232.084618475923,-7546.0
15232.084680973134,-6429.0
15232.084743470346,-1434.0
15232.084805967559,4843.0
15232.084868464772,10210.0
15232.084930961984,13689.0
15232.084993459197,14974.0
15232.08505595641,13727.0
15232.085118453622,10100.0
15232.085180950835,4855.0
15232.085243448048,-242.0
15232.08530594526,-3675.0
15232.085368442473,-4163.0
15232.085430939685,-1170.0
15232.085493436896,4469.0
15232.085555934109,9634.0
15232.085618431322,12736.0
15232.085680928534,13492.0
15232.085743425747,12212.0
15232.08580592296,9574.0
15232.085868420172,7451.0
15232.085930917385,6771.0
15232.085993414597,7537.0
15232.086055911808,9162.0
15232.08611840902,11275.0
15232.086180906233,13088.0
15232.086243403446,13697.0
15232.086305900659,12337.0
15232.086368397871,9364.0
15232.086430895084,6003.0
15232.086493392297,3495.0
15232.08655588951,2222.0
15232.086618386722,2591.0
15232.086680883935,4378.0
15232.086743381147,6209.0
15232.086805878358,7074.0
15232.08686837557,6833.0
15232.086930872783,5839.0
15232.086993369996,4305.0
15232.087055867209,2777.0
15232.087118364421,1837.0
15232.087180861634,1816.0
15232.087243358847,2401.0
15232.08730585606,3027.0
15232.087368353272,3146.0
15232.087430850483,2375.0
15232.087493347695,315.0
15232.087555844908,-2976.0
15232.08761834212,-6805.0
15232.087680839333,-10385.0
15232.087743336546,-13604.0
15232.087805833758,-16621.0
15232.087868330971,-19935.0
15232.087930828184,-24049.0
15232.087993325396,-29604.0
15232.088055822609,-32768.0
15232.088118319822,-32719.0
15232.088180817032,-32768.0
15232.088243314245,-32407.0
15232.088305811458,-32768.0
15232.08836830867,-27628.0
15232.088430805883,-7552.0
15232.088493303096,11019.0
15232.088555800308,22298.0
15232.088618297521,27364.0
15232.088680794734,24831.0
15232.088743291946,17677.0
15232.088805789157,10088.0
15232.08886828637,3992.0
15232.088930783582,-1397.0
15232.088993280795,-4638.0
15232.089055778008,-4626.0
15232.08911827522,-1552.0
15232.089180772433,1318.0
15232.089243269646,1291.0
15232.089305766858,-1246.0
15232.08936826407,-4929.0
15232.089430761283,-7783.0
15232.089493258496,-7743.0
15232.089555755707,-3425.0
15232.08961825292,3060.0
15232.089680750132,9048.0
15232.089743247345,13248.0
15232.089805744557,15303.0
15232.08986824177,14461.0
15232.089930738983,10934.0
15232.089993236195,5759.0
15232.090055733408,590.0
15232.09011823062,-3240.0
15232.090180727831,-4358.0
15232.090243225044,-2466.0
15232.090305722257,1760.0
15232.09036821947,5859.0
15232.090430716682,8218.0
15232.090493213895,8627.0
15232.090555711107,7931.0
15232.09061820832,6496.0
15232.090680705533,7450.0
15232.090743202745,11626.0
15232.090805699958,15785.0
15232.09086819717,16924.0
15232.090930694381,16162.0
15232.090993191594,14803.0
15232.091055688807,12746.0
15232.09111818602,10393.0
15232.091180683232,7973.0
15232.091243180445,5265.0
15232.091305677657,3309.0
15232.09136817487,2554.0
15232.091430672082,3498.0
15232.091493169295,5324.0
15232.091555666506,6862.0
15232.091618163719,6215.0
15232.091680660931,4674.0
15232.091743158144,3508.0
15232.091805655356,3081.0
15232.091868152569,3659.0
15232.091930649782,4683.0
15232.091993146994,5308.0
15232.092055644207,5021.0
15232.09211814142,4339.0
15232.092180638632,3080.0
15232.092243135845,1220.0
15232.092305633056,-1221.0
15232.092368130268,-4304.0
15232.092430627481,-7662.0
15232.092493124694,-10533.0
15232.092555621906,-12953.0
15232.092618119119,-15542.0
15232.092680616332,-18845.0
15232.092743113544,-23565.0
15232.092805610757,-29755.0
15232.09286810797,-32768.0
15232.09293060518,-32628.0
15232.092993102393,-32768.0
15232.093055599606,-32380.0
15232.093118096818,-32768.0
15232.09318059403,-30384.0
15232.093243091243,-11551.0
15232.093305588456,8913.0
15232.093368085669,21172.0
15232.093430582881,26887.0
15232.093493080094,24538.0
15232.093555577307,17557.0
15232.09361807452,10392.0
15232.09368057173,4761.0
15232.093743068943,-580.0
15232.093805566155,-4585.0
15232.093868063368,-5150.0
15232.09393056058,-2451.0
15232.093993057793,727.0
15232.094055555006,912.0
15232.094118052219,-1690.0
15232.094180549431,-5801.0
15232.094243046642,-9198.0
15232.094305543855,-9475.0
15232.094368041067,-4700.0
15232.09443053828,2688.0
15232.094493035493,9218.0
15232.094555532705,13474.0
15232.094618029918,15536.0
15232.09468052713,14770.0
15232.094743024343,11438.0
15232.094805521556,6279.0
15232.094868018768,1032.0
15232.094930515981,-3258.0
15232.094993013194,-4744.0
15232.095055510405,-3070.0
15232.095118007617,1548.0
15232.09518050483,6629.0
15232.095243002042,10181.0
15232.095305499255,11311.0
15232.095367996468,11127.0
15232.09543049368,9950.0
15232.095492990893,8384.0
15232.095555488106,7335.0
15232.095617985316,7663.0
15232.09568048253,9003.0
15232.095742979742,10790.0
15232.095805476954,12447.0
15232.095867974167,13253.0
15232.09593047138,12358.0
15232.095992968592,10184.0
15232.096055465805,7594.0
15232.096117963018,5662.0
15232.09618046023,4660.0
15232.096242957443,4425.0
15232.096305454656,4754.0
15232.096367951868,5415.0
15232.096430449079,6038.0
15232.096492946292,6175.0
15232.096555443504,5926.0
15232.096617940717,5175.0
15232.09668043793,4128.0
15232.096742935142,3039.0
15232.096805432355,2678.0
15232.096867929567,3062.0
15232.09693042678,3647.0
15232.096992923991,3718.0
15232.097055421204,2852.0
15232.097117918416,1020.0
15232.097180415629,-1414.0
15232.097242912841,-4226.0
15232.097305410054,-6911.0
15232.097367907267,-9334.0
15232.09743040448,-11725.0
15232.097492901692,-14318.0
15232.097555398905,-17538.0
15232.097617896117,-21357.0
15232.09768039333,-26791.0
15232.097742890543,-32105.0
15232.097805387753,-32768.0
15232.097867884966,-32768.0
15232.097930382179,-32663.0
15232.097992879391,-32768.0
15232.098055376604,-32768.0
15232.098117873817,-18611.0
15232.09818037103,2307.0
15232.098242868242,15761.0
15232.098305365455,23672.0
15232.098367862665,24701.0
15232.098430359878,19689.0
15232.09849285709,13386.0
15232.098555354303,7863.0
15232.098617851516,2582.0
15232.098680348729,-2003.0
15232.098742845941,-3444.0
15232.098805343154,-1633.0
15232.098867840366,1550.0
15232.098930337579,2066.0
15232.098992834792,-573.0
15232.099055332004,-4953.0
15232.099117829215,-8918.0
15232.099180326428,-10278.0
15232.09924282364,-7246.0
15232.099305320853,-747.0
15232.099367818066,5602.0
15232.099430315278,10354.0
15232.099492812491,13492.0
15232.099555309704,14528.0
15232.099617806916,12768.0
15232.099680304129,8791.0
15232.09974280134,3868.0
15232.099805298552,-448.0
15232.099867795765,-2805.0
15232.099930292978,-2137.0
15232.09999279019,1244.0
15232.100055287403,5406.0
15232.100117784616,7968.0
15232.100180281828,8484.0
15232.10024277904,7686.0
15232.100305276253,6471.0
15232.100367773466,5025.0
15232.100430270679,6546.0
15232.10049276789,11393.0
15232.100555265102,15569.0
15232.100617762315,16515.0
15232.100680259528,16043.0
15232.10074275674,14739.0
15232.100805253953,12004.0
15232.100867751165,8986.0
15232.100930248378,6722.0
15232.10099274559,5011.0
15232.101055242803,4245.0
15232.101117740014,4352.0
15232.101180237227,5638.0
15232.10124273444,6987.0
15232.101305231652,7750.0
15232.101367728865,6343.0
15232.101430226077,4617.0
15232.10149272329,3608.0
15232.101555220503,3208.0
15232.101617717715,3921.0
15232.101680214928,5414.0
15232.10174271214,6444.0
15232.101805209353,6395.0
15232.101867706564,5606.0
15232.101930203777,3773.0
15232.10199270099,1037.0
15232.102055198202,-2194.0
15232.102117695415,-5574.0
15232.102180192627,-8295.0
15232.10224268984,-10026.0
15232.102305187052,-11443.0
15232.102367684265,-13307.0
15232.102430181478,-16207.0
15232.102492678689,-20475.0
15232.102555175901,-27029.0
15232.102617673114,-32287.0
15232.102680170326,-32768.0
15232.10274266754,-32756.0
15232.102805164752,-32768.0
15232.102867661964,-32531.0
15232.102930159177,-32768.0
15232.10299265639,-22128.0
15232.103055153602,-605.0
15232.103117650815,14362.0
15232.103180148028,22750.0
15232.103242645238,24677.0
15232.103305142451,20071.0
15232.103367639664,13288.0
15232.103430136876,7826.0
15232.103492634089,3485.0
15232.103555131302,-912.0
15232.103617628514,-3236.0
15232.103680125727,-2488.0
15232.10374262294,326.0
15232.103805120152,1367.0
15232.103867617363,-501.0
15232.103930114576,-4285.0
15232.103992611788,-8255.0
15232.104055109001,-10213.0
15232.104117606214,-8010.0
15232.104180103426,-1566.0
15232.104242600639,5440.0
15232.104305097851,10835.0
15232.104367595064,14072.0
15232.104430092277,15086.0
15232.10449258949,13488.0
15232.104555086702,9668.0
15232.104617583913,4852.0
15232.104680081125,468.0
15232.104742578338,-2389.0
15232.10480507555,-2458.0
15232.104867572763,340.0
15232.104930069976,4846.0
15232.104992567189,8551.0
15232.105055064401,10560.0
15232.105117561614,10773.0
15232.105180058825,10172.0
15232.105242556037,8788.0
15232.10530505325,7682.0
15232.105367550463,7661.0
15232.105430047675,8780.0
15232.105492544888,10233.0
15232.1055550421,11650.0
15232.105617539313,12923.0
15232.105680036526,13234.0
15232.105742533739,11787.0
15232.105805030951,9193.0
15232.105867528164,6680.0
15232.105930025376,5134.0
15232.105992522587,4629.0
15232.1060550198,5078.0
15232.106117517013,6023.0
15232.106180014225,6901.0
15232.106242511438,7111.0
15232.10630500865,6707.0
15232.106367505863,6119.0
15232.106430003076,5277.0
15232.106492500288,4410.0
15232.1065549975,3774.0
15232.106617494712,3726.0
15232.106679991924,4053.0
15232.106742489137,4410.0
15232.10680498635,4036.0
15232.106867483562,2669.0
15232.106929980775,426.0
15232.106992477988,-2414.0
15232.1070549752,-5432.0
15232.107117472413,-8067.0
15232.107179969626,-10266.0
15232.107242466838,-12634.0
15232.10730496405,-15612.0
15232.107367461262,-19255.0
15232.107429958474,-23397.0
15232.107492455687,-28597.0
15232.1075549529,-32486.0
15232.107617450112,-32752.0
15232.107679947325,-32768.0
15232.107742444538,-32483.0
15232.10780494175,-32768.0
15232.107867438963,-31434.0
15232.107929936174,-14976.0
15232.107992433386,4282.0
15232.108054930599,16053.0
15232.108117427812,22833.0
15232.108179925024,23204.0
15232.108242422237,18636.0
15232.10830491945,13260.0
15232.108367416662,8422.0
15232.108429913875,3321.0
15232.108492411087,-1334.0
15232.1085549083,-2507.0
15232.108617405513,-887.0
15232.108679902725,1514.0
15232.108742399936,616.0
15232.108804897149,-2599.0
15232.108867394361,-7029.0
15232.108929891574,-10143.0
15232.108992388787,-10333.0
15232.109054886,-6025.0
15232.109117383212,644.0
15232.109179880425,6748.0
15232.109242377637,11155.0
15232.109304874848,14113.0
15232.10936737206,14664.0
15232.109429869273,12547.0
15232.109492366486,8577.0
15232.109554863699,4214.0
15232.109617360911,483.0
15232.109679858124,-1199.0
15232.109742355336,-91.0
15232.10980485255,3090.0
15232.109867349762,6241.0
15232.109929846974,8398.0
15232.109992344187,10098.0
15232.110054841398,10916.0
15232.11011733861,10627.0
15232.110179835823,9271.0
15232.110242333036,8258.0
15232.110304830248,7930.0
15232.110367327461,8651.0
15232.110429824674,9957.0
15232.110492321886,11638.0
15232.110554819099,12742.0
15232.110617316312,12480.0
15232.110679813522,10843.0
15232.110742310735,8924.0
15232.110804807948,7574.0
15232.11086730516,6536.0
15232.110929802373,5739.0
15232.110992299586,5583.0
15232.111054796798,5807.0
15232.111117294011,6148.0
15232.111179791224,6296.0
15232.111242288436,6096.0
15232.111304785649,5393.0
15232.111367282861,4376.0
15232.111429780072,3229.0
15232.111492277285,2680.0
15232.111554774498,2962.0
15232.11161727171,3556.0
15232.111679768923,3830.0
15232.111742266135,3476.0
15232.111804763348,2305.0
15232.11186726056,355.0
15232.111929757773,-2117.0
15232.111992254986,-4819.0
15232.112054752197,-7616.0
15232.11211724941,-10467.0
15232.112179746622,-13416.0
15232.112242243835,-16912.0
15232.112304741047,-20978.0
15232.11236723826,-26350.0
15232.112429735473,-31645.0
15232.112492232685,-32768.0
15232.112554729898,-32641.0
15232.11261722711,-32768.0
15232.112679724323,-32364.0
15232.112742221536,-32768.0
15232.112804718747,-27324.0
15232.11286721596,-8439.0
15232.112929713172,7801.0
15232.112992210385,18078.0
15232.113054707597,23297.0
15232.11311720481,21768.0
15232.113179702023,16866.0
15232.113242199235,11643.0
15232.113304696448,6887.0
15232.11336719366,1641.0
15232.113429690871,-2080.0
15232.113492188084,-2769.0
15232.113554685297,-1232.0
15232.11361718251,-122.0
15232.113679679722,-1562.0
15232.113742176934,-4399.0
15232.113804674147,-7936.0
15232.11386717136,-9836.0
15232.113929668572,-8502.0
15232.113992165785,-3008.0
15232.114054662998,3548.0
15232.11411716021,9159.0
15232.114179657421,12984.0
15232.114242154634,14818.0
15232.114304651846,13924.0
15232.114367149059,10996.0
15232.114429646272,6740.0
15232.114492143484,2648.0
15232.114554640697,-647.0
15232.11461713791,-1617.0
15232.114679635122,-65.0
15232.114742132335,3291.0
15232.114804629546,5983.0
15232.114867126758,7140.0
15232.114929623971,7056.0
15232.114992121184,6151.0
15232.115054618396,6020.0
15232.115117115609,9129.0
15232.115179612822,13437.0
15232.115242110034,15398.0
15232.115304607247,15052.0
15232.11536710446,14187.0
15232.115429601672,12868.0
15232.115492098885,11249.0
15232.115554596096,9840.0
15232.115617093308,7681.0
15232.11567959052,5587.0
15232.115742087733,4526.0
15232.115804584946,5245.0
15232.115867082159,6636.0
15232.115929579371,8057.0
15232.115992076584,7901.0
15232.116054573797,6179.0
15232.116117071007,4557.0
15232.11617956822,3568.0
15232.116242065433,3765.0
15232.116304562645,4775.0
15232.116367059858,5618.0
15232.11642955707,5339.0
15232.116492054283,4817.0
15232.116554551496,4138.0
15232.116617048709,2696.0
15232.116679545921,806.0
15232.116742043134,-1338.0
15232.116804540346,-3758.0
15232.11686703756,-5862.0
15232.11692953477,-7384.0
15232.116992031983,-8504.0
15232.117054529195,-10292.0
15232.117117026408,-13422.0
15232.11717952362,-18176.0
15232.117242020833,-23572.0
15232.117304518046,-29725.0
15232.117367015258,-32768.0
15232.117429512471,-32611.0
15232.117492009682,-32768.0
15232.117554506895,-32576.0
15232.117617004107,-32768.0
15232.11767950132,-32260.0
15232.117741998532,-17756.0
15232.117804495745,1235.0
15232.117866992958,12909.0
15232.11792949017,19887.0
15232.117991987383,21123.0
15232.118054484596,17598.0
15232.118116981808,12953.0
15232.118179479021,8614.0
15232.118241976234,3960.0
15232.118304473444,-455.0
15232.118366970657,-2582.0
15232.11842946787,-2286.0
15232.118491965082,-701.0
15232.118554462295,-973.0
15232.118616959508,-3456.0
15232.11867945672,-6841.0
15232.118741953933,-9292.0
15232.118804451145,-9087.0
15232.118866948356,-5154.0
15232.118929445569,1240.0
15232.118991942782,7127.0
15232.119054439994,11323.0
15232.119116937207,13645.0
15232.11917943442,13947.0
15232.119241931632,12061.0
15232.119304428845,8494.0
15232.119366926057,4246.0
15232.11942942327,597.0
15232.119491920483,-1410.0
15232.119554417695,-904.0
15232.119616914908,2069.0
15232.119679412119,6000.0
15232.119741909331,8828.0
15232.119804406544,10145.0
15232.119866903757,10299.0
15232.11992940097,9641.0
15232.119991898182,8304.0
15232.120054395395,7451.0
15232.120116892607,7671.0
15232.12017938982,8756.0
15232.12024188703,9940.0
15232.120304384243,11170.0
15232.120366881456,12005.0
15232.120429378669,11784.0
15232.120491875881,10203.0
15232.120554373094,8160.0
15232.120616870307,6552.0
15232.12067936752,5645.0
15232.120741864732,5411.0
15232.120804361944,5796.0
15232.120866859157,6335.0
15232.12092935637,6462.0
15232.12099185358,6005.0
15232.121054350793,5173.0
15232.121116848006,4284.0
15232.121179345218,3368.0
15232.121241842431,2555.0
15232.121304339644,2162.0
15232.121366836856,2458.0
15232.121429334069,3145.0
15232.121491831282,3735.0
15232.121554328494,3616.0
15232.121616825705,2426.0
15232.121679322918,370.0
15232.12174182013,-2143.0
15232.121804317343,-4722.0
15232.121866814556,-7097.0
15232.121929311768,-9238.0
15232.121991808981,-11521.0
15232.122054306194,-14414.0
15232.122116803406,-18140.0
15232.122179300619,-22531.0
15232.122241797832,-28097.0
15232.122304295044,-32374.0
15232.122366792255,-32768.0
15232.122429289468,-32768.0
15232.12249178668,-32727.0
15232.122554283893,-32666.0
15232.122616781106,-32768.0
15232.122679278318,-21224.0
15232.12274177553,-1647.0
15232.122804272743,11449.0
15232.122866769956,19778.0
15232.122929267169,22197.0
15232.12299176438,18876.0
15232.123054261592,13935.0
15232.123116758805,9365.0
15232.123179256017,4338.0
15232.12324175323,-955.0
15232.123304250443,-3533.0
15232.123366747655,-3279.0
15232.123429244868,-1216.0
15232.12349174208,-530.0
15232.123554239293,-2154.0
15232.123616736506,-5533.0
15232.123679233719,-8802.0
15232.12374173093,-9777.0
15232.123804228142,-6856.0
15232.123866725355,-581.0
15232.123929222567,5668.0
15232.12399171978,10604.0
15232.124054216993,13696.0
15232.124116714205,14658.0
15232.124179211418,13118.0
15232.12424170863,9838.0
15232.124304205843,5723.0
15232.124366703054,1894.0
15232.124429200267,-591.0
15232.12449169748,-324.0
15232.124554194692,2582.0
15232.124616691905,6908.0
15232.124679189117,9990.0
15232.12474168633,11292.0
15232.124804183542,10534.0
15232.124866680755,8605.0
15232.124929177968,6376.0
15232.12499167518,5646.0
15232.125054172393,6313.0
15232.125116669604,7879.0
15232.125179166816,9722.0
15232.125241664029,11635.0
15232.125304161242,12955.0
15232.125366658454,13168.0
15232.125429155667,11774.0
15232.12549165288,9413.0
15232.125554150092,6903.0
15232.125616647305,5137.0
15232.125679144518,4475.0
15232.125741641728,5047.0
15232.125804138941,6135.0
15232.125866636154,6865.0
15232.125929133366,6739.0
15232.125991630579,5674.0
15232.126054127792,4220.0
15232.126116625004,2851.0
15232.126179122217,1892.0
15232.12624161943,1474.0
15232.126304116642,1956.0
15232.126366613855,2889.0
15232.126429111067,3594.0
15232.126491608278,3529.0
15232.12655410549,2539.0
15232.126616602704,433.0
15232.126679099916,-2326.0
15232.126741597129,-5312.0
15232.126804094341,-8033.0
15232.126866591554,-10617.0
15232.126929088767,-13157.0
15232.12699158598,-16108.0
15232.127054083192,-19668.0
15232.127116580403,-23837.0
15232.127179077615,-29095.0
15232.127241574828,-32670.0
15232.12730407204,-32717.0
15232.127366569253,-32768.0
15232.127429066466,-32490.0
15232.127491563679,-32768.0
15232.127554060891,-31403.0
15232.127616558104,-15439.0
15232.127679055317,3044.0
15232.12774155253,14326.0
15232.127804049742,20692.0
15232.127866546953,20962.0
15232.127929044165,16881.0
15232.127991541378,11917.0
15232.12805403859,7089.0
15232.128116535803,1887.0
15232.128179033016,-2742.0
15232.128241530228,-4120.0
15232.128304027441,-2224.0
15232.128366524654,713.0
15232.128429021865,816.0
15232.128491519077,-1683.0
15232.12855401629,-5577.0
15232.128616513502,-8529.0
15232.128679010715,-8725.0
15232.128741507928,-4647.0
15232.12880400514,1868.0
15232.128866502353,7652.0
15232.128928999566,11867.0
15232.128991496778,14514.0
15232.129053993991,15003.0
15232.129116491204,13016.0
15232.129178988416,9167.0
15232.129241485627,4645.0
15232.12930398284,732.0
15232.129366480052,-1156.0
15232.129428977265,87.0
15232.129491474478,4012.0
15232.12955397169,8281.0
15232.129616468903,10844.0
15232.129678966116,11563.0
15232.129741463328,10578.0
15232.129803960539,8653.0
15232.129866457752,6743.0
15232.129928954964,6156.0
15232.129991452177,6863.0
15232.13005394939,8478.0
15232.130116446602,10537.0
15232.130178943815,12489.0
15232.130241441027,13560.0
15232.13030393824,13193.0
15232.130366435453,11149.0
15232.130428932665,8436.0
15232.130491429878,6024.0
15232.13055392709,4447.0
15232.130616424301,3943.0
15232.130678921514,4707.0
15232.130741418727,5774.0
15232.13080391594,6414.0
15232.130866413152,6290.0
15232.130928910365,5418.0
15232.130991407577,4203.0
15232.13105390479,2973.0
15232.131116402003,2010.0
15232.131178899213,1696.0
15232.131241396426,2160.0
15232.131303893639,3066.0
15232.131366390851,3581.0
15232.131428888064,3316.0
15232.131491385277,2045.0
15232.13155388249,-322.0
15232.131616379702,-3504.0
15232.131678876915,-6737.0
15232.131741374127,-9538.0
15232.13180387134,-12081.0
15232.131866368552,-14854.0
15232.131928865763,-18019.0
15232.131991362976,-21551.0
15232.132053860189,-25779.0
15232.132116357401,-30651.0
15232.132178854614,-32768.0
15232.132241351826,-32708.0
15232.132303849039,-32768.0
15232.132366346252,-32406.0
15232.132428843464,-32768.0
15232.132491340677,-27084.0
15232.132553837888,-8818.0
15232.1326163351,6357.0
15232.132678832313,15921.0
15232.132741329526,20544.0
15232.132803826738,18998.0
15232.132866323951,14289.0
15232.132928821164,9505.0
15232.132991318376,5065.0
15232.133053815589,152.0
15232.133116312802,-3060.0
15232.133178810014,-2928.0
15232.133241307227,-297.0
15232.133303804438,1929.0
15232.13336630165,1181.0
15232.133428798863,-1817.0
15232.133491296076,-5906.0
15232.133553793288,-8424.0
15232.1336162905,-7594.0
15232.133678787714,-2422.0
15232.133741284926,4042.0
15232.133803782139,9594.0
15232.133866279351,13419.0
15232.133928776562,15243.0
15232.133991273775,14409.0
15232.134053770988,11511.0
15232.1341162682,7345.0
15232.134178765413,2986.0
15232.134241262625,-596.0
15232.134303759838,-1511.0
15232.13436625705,756.0
15232.134428754263,5303.0
15232.134491251476,9466.0
15232.134553748689,11777.0
15232.134616245901,11771.0
15232.134678743112,10125.0
15232.134741240325,7885.0
15232.134803737537,6598.0
15232.13486623475,6812.0
15232.134928731963,8075.0
15232.134991229175,9788.0
15232.135053726388,11489.0
15232.1351162236,12912.0
15232.135178720813,13489.0
15232.135241218026,12345.0
15232.135303715237,9563.0
15232.13536621245,6584.0
15232.135428709662,4521.0
15232.135491206875,3835.0
15232.135553704087,4583.0
15232.1356162013,6079.0
15232.135678698512,7184.0
15232.135741195725,7288.0
15232.135803692938,6404.0
15232.13586619015,5136.0
15232.135928687363,3984.0
15232.135991184576,3172.0
15232.136053681787,2555.0
15232.136116179,2572.0
15232.136178676212,3256.0
15232.136241173424,3949.0
15232.136303670637,3872.0
15232.13636616785,2734.0
15232.136428665062,435.0
15232.136491162275,-2527.0
15232.136553659488,-5542.0
15232.1366161567,-7931.0
15232.136678653911,-9667.0
15232.136741151124,-11273.0
15232.136803648336,-13606.0
15232.136866145549,-16965.0
15232.136928642762,-21097.0
15232.136991139974,-26019.0
15232.137053637187,-31132.0
15232.1371161344,-32768.0
15232.137178631612,-32709.0
15232.137241128825,-32768.0
15232.137303626037,-32469.0
15232.13736612325,-32768.0
15232.137428620461,-24943.0
15232.137491117674,-5825.0
15232.137553614886,7888.0
15232.137616112099,15848.0
15232.137678609311,19008.0
15232.137741106524,16798.0
15232.137803603737,12594.0
15232.13786610095,8823.0
15232.137928598162,5497.0
15232.137991095375,1618.0
15232.138053592585,-726.0
15232.138116089798,-694.0
15232.13817858701,1474.0
15232.138241084223,2308.0
15232.138303581436,8.0
15232.138366078649,-4124.0
15232.138428575861,-8042.0
15232.138491073074,-9417.0
15232.138553570287,-7114.0
15232.1386160675,-905.0
15232.138678564712,5862.0
15232.138741061925,10992.0
15232.138803559135,13891.0
15232.138866056348,14761.0
15232.13892855356,13248.0
15232.138991050773,9896.0
15232.139053547986,5653.0
15232.139116045199,1897.0
15232.139178542411,-545.0
15232.139241039624,-470.0
15232.139303536836,1939.0
15232.139366034047,6344.0
15232.13942853126,10121.0
15232.139491028473,12069.0
15232.139553525685,11566.0
15232.139616022898,9843.0
15232.13967852011,7586.0
15232.139741017323,6257.0
15232.139803514536,6644.0
15232.139866011748,8352.0
15232.139928508961,10275.0
15232.139991006174,11835.0
15232.140053503386,12856.0
15232.140116000599,13013.0
15232.14017849781,11648.0
15232.140240995022,9061.0
15232.140303492235,6134.0
15232.140365989448,4184.0
15232.14042848666,3454.0
15232.140490983873,4283.0
15232.140553481086,6002.0
15232.140615978298,7572.0
15232.14067847551,7957.0
15232.140740972722,6844.0
15232.140803469934,5098.0
15232.140865967147,3126.0
15232.14092846436,1561.0
15232.140990961572,665.0
15232.141053458785,785.0
15232.141115955998,1725.0
15232.14117845321,2696.0
15232.141240950423,2988.0
15232.141303447635,2257.0
15232.141365944848,451.0
15232.14142844206,-2319.0
15232.141490939273,-5369.0
15232.141553436484,-8110.0
15232.141615933697,-10636.0
15232.14167843091,-13141.0
15232.141740928122,-16302.0
15232.141803425335,-20007.0
15232.141865922547,-24977.0
15232.14192841976,-30780.0
15232.141990916973,-32768.0
15232.142053414185,-32610.0
15232.142115911396,-32768.0
15232.142178408609,-32395.0
15232.142240905821,-32768.0
15232.142303403034,-29448.0
15232.142365900247,-12626.0
15232.14242839746,3346.0
15232.142490894672,13808.0
15232.142553391885,19971.0
15232.142615889097,19718.0
15232.14267838631,16001.0
15232.142740883522,11896.0
15232.142803380735,8076.0
15232.142865877946,3190.0
15232.142928375159,-682.0
15232.142990872371,-1804.0
15232.143053369584,-600.0
15232.143115866797,451.0
15232.14317836401,-864.0
15232.143240861222,-3409.0
15232.143303358434,-6888.0
15232.143365855647,-8702.0
15232.14342835286,-7397.0
15232.14349085007,-1960.0
15232.143553347283,4449.0
15232.143615844496,9729.0
15232.143678341708,13248.0
15232.143740838921,14763.0
15232.143803336134,13996.0
15232.143865833346,11264.0
15232.143928330559,7287.0
15232.143990827772,3231.0
15232.144053324984,-223.0
15232.144115822197,-1495.0
15232.14417831941,24.0
15232.14424081662,3860.0
15232.144303313833,7513.0
15232.144365811046,9750.0
15232.144428308258,10356.0
15232.144490805471,9668.0
15232.144553302684,8249.0
15232.144615799896,7211.0
15232.144678297109,7522.0
15232.144740794321,8530.0
15232.144803291534,9878.0
15232.144865788745,11114.0
15232.144928285958,12153.0
15232.14499078317,12544.0
15232.145053280383,11708.0
15232.145115777595,9561.0
15232.145178274808,6996.0
15232.14524077202,4847.0
15232.145303269233,3644.0
15232.145365766446,3583.0
15232.145428263659,4631.0
15232.145490760871,5583.0
15232.145553258084,5956.0
15232.145615755295,5418.0
15232.145678252507,4522.0
15232.14574074972,3615.0
15232.145803246933,2915.0
15232.145865744145,2312.0
15232.145928241358,1981.0
15232.14599073857,2132.0
15232.146053235783,2456.0
15232.146115732996,2601.0
15232.146178230209,2344.0
15232.14624072742,1379.0
15232.146303224632,-491.0
15232.146365721845,-3065.0
15232.146428219057,-5747.0
15232.14649071627,-8028.0
15232.146553213483,-10100.0
15232.146615710695,-12687.0
15232.146678207908,-16477.0
15232.14674070512,-21144.0
15232.146803202333,-26706.0
15232.146865699546,-31660.0
15232.146928196758,-32768.0
15232.14699069397,-32637.0
15232.147053191182,-32768.0
15232.147115688394,-32417.0
15232.147178185607,-32768.0
15232.14724068282,-28799.0
15232.147303180032,-12108.0
15232.147365677245,3674.0
15232.147428174458,13894.0
15232.14749067167,19601.0
15232.147553168883,19521.0
15232.147615666094,16332.0
15232.147678163306,12463.0
15232.147740660519,8458.0
15232.147803157732,3790.0
15232.147865654944,82.0
15232.147928152157,-1502.0
15232.14799064937,-801.0
15232.148053146582,141.0
15232.148115643795,-896.0
15232.148178141008,-3479.0
15232.14824063822,-6549.0
15232.148303135433,-8057.0
15232.148365632644,-6638.0
15232.148428129856,-1725.0
15232.148490627069,4212.0
15232.148553124282,9272.0
15232.148615621494,12552.0
15232.148678118707,14012.0
15232.14874061592,13173.0
15232.148803113132,10741.0
15232.148865610345,7031.0
15232.148928107557,3079.0
15232.148990604768,-144.0
15232.14905310198,-975.0
15232.149115599193,838.0
15232.149178096406,4715.0
15232.149240593619,8322.0
15232.149303090831,10416.0
15232.149365588044,10427.0
15232.149428085257,9203.0
15232.14949058247,7593.0
15232.149553079682,6609.0
15232.149615576895,6697.0
15232.149678074107,7707.0
15232.149740571318,8989.0
15232.14980306853,10300.0
15232.149865565743,11510.0
15232.149928062956,12171.0
15232.149990560169,11655.0
15232.150053057381,9831.0
15232.150115554594,7495.0
15232.150178051807,5386.0
15232.15024054902,4257.0
15232.15030304623,4197.0
15232.150365543443,5043.0
15232.150428040655,5858.0
15232.150490537868,6153.0
15232.15055303508,5482.0
15232.150615532293,4436.0
15232.150678029506,3469.0
15232.150740526718,2646.0
15232.150803023931,1955.0
15232.150865521144,1852.0
15232.150928018356,2301.0
15232.150990515569,3079.0
15232.151053012782,3504.0
15232.151115509992,3123.0
15232.151178007205,1817.0
15232.151240504418,-336.0
15232.15130300163,-3082.0
15232.151365498843,-5799.0
15232.151427996056,-8231.0
15232.151490493268,-10709.0
15232.151552990481,-14080.0
15232.151615487694,-18535.0
15232.151677984904,-23153.0
15232.151740482117,-28537.0
15232.15180297933,-32461.0
15232.151865476542,-32768.0
15232.151927973755,-32728.0
15232.151990470968,-32768.0
15232.15205296818,-32484.0
15232.152115465393,-32768.0
15232.152177962605,-26095.0
15232.152240459818,-8273.0
15232.15230295703,6333.0
15232.152365454243,15652.0
15232.152427951456,20124.0
15232.152490448667,19323.0
15232.15255294588,16104.0
15232.152615443092,12063.0
15232.152677940305,7695.0
15232.152740437517,2547.0
15232.15280293473,-1188.0
15232.152865431943,-2226.0
15232.152927929155,-792.0
15232.152990426368,216.0
15232.153052923579,-946.0
15232.153115420791,-3567.0
15232.153177918004,-6491.0
15232.153240415217,-7664.0
15232.15330291243,-5535.0
15232.153365409642,-262.0
15232.153427906855,5657.0
15232.153490404067,10265.0
15232.15355290128,13066.0
15232.153615398493,13899.0
15232.153677895705,12844.0
15232.153740392918,9990.0
15232.15380289013,6051.0
15232.153865387341,2168.0
15232.153927884554,-664.0
15232.153990381767,-1133.0
15232.15405287898,1230.0
15232.154115376192,5441.0
15232.154177873404,9067.0
15232.154240370617,10788.0
15232.15430286783,10485.0
15232.154365365042,9103.0
15232.154427862253,7476.0
15232.154490359466,6721.0
15232.154552856678,6850.0
15232.154615353891,7820.0
15232.154677851104,9097.0
15232.154740348316,10357.0
15232.154802845529,11481.0
15232.154865342742,12077.0
15232.154927839954,11357.0
15232.154990337167,9358.0
15232.15505283438,6937.0
15232.155115331592,5134.0
15232.155177828803,4447.0
15232.155240326016,4767.0
15232.155302823228,5490.0
15232.155365320441,5994.0
15232.155427817654,5704.0
15232.155490314866,4793.0
15232.155552812079,3798.0
15232.155615309292,3028.0
15232.155677806504,2390.0
15232.155740303717,2002.0
15232.155802800928,2256.0
15232.15586529814,3127.0
15232.155927795353,4057.0
15232.155990292566,4325.0
15232.156052789778,3633.0
15232.15611528699,1865.0
15232.156177784203,-691.0
15232.156240281416,-3516.0
15232.156302778629,-6061.0
15232.156365275841,-8132.0
15232.156427773054,-10179.0
15232.156490270267,-12678.0
15232.156552767477,-16073.0
15232.15661526469,-20402.0
15232.156677761903,-25581.0
15232.156740259115,-30980.0
15232.156802756328,-32768.0
15232.15686525354,-32640.0
15232.156927750753,-32768.0
15232.156990247966,-32430.0
15232.157052745179,-32768.0
15232.157115242391,-29086.0
15232.157177739602,-12974.0
15232.157240236815,2313.0
15232.157302734027,12366.0
15232.15736523124,18325.0
15232.157427728453,18696.0
15232.157490225665,16079.0
15232.157552722878,12868.0
15232.15761522009,9397.0
15232.157677717303,5078.0
15232.157740214516,1211.0
15232.157802711728,-463.0
15232.157865208941,63.0
15232.157927706152,1002.0
15232.157990203365,-158.0
15232.158052700577,-2984.0
15232.15811519779,-6268.0
15232.158177695002,-7936.0
15232.158240192215,-6706.0
15232.158302689428,-2073.0
15232.15836518664,3797.0
15232.158427683853,8700.0
15232.158490181066,11916.0
15232.158552678276,13314.0
15232.15861517549,12665.0
15232.158677672702,10533.0
15232.158740169914,7369.0
15232.158802667127,3958.0
15232.15886516434,983.0
15232.158927661552,161.0
15232.158990158765,2049.0
15232.159052655978,5706.0
15232.15911515319,9013.0
15232.159177650403,10548.0
15232.159240147615,10067.0
15232.159302644826,8413.0
15232.159365142039,6702.0
15232.159427639252,5922.0
15232.159490136464,6368.0
15232.159552633677,7579.0
15232.15961513089,9027.0
15232.159677628102,10368.0
15232.159740125315,11536.0
15232.159802622527,12186.0
15232.15986511974,11635.0
15232.15992761695,9670.0
15232.159990114164,7349.0
15232.160052611376,5533.0
15232.160115108589,4784.0
15232.160177605801,4973.0
15232.160240103014,5766.0
15232.160302600227,6316.0
15232.16036509744,6136.0
15232.160427594652,5025.0
15232.160490091865,3800.0
15232.160552589077,2979.0
15232.16061508629,2460.0
15232.1606775835,2193.0
15232.160740080713,2420.0
15232.160802577926,3102.0
15232.160865075139,3746.0
15232.160927572351,3765.0
15232.160990069564,3114.0
15232.161052566777,1686.0
15232.16111506399,-583.0
15232.161177561202,-3078.0
15232.161240058413,-5209.0
15232.161302555625,-7029.0
15232.161365052838,-9041.0
15232.16142755005,-11844.0
15232.161490047263,-15693.0
15232.161552544476,-20283.0
15232.161615041688,-25600.0
15232.161677538901,-30807.0
15232.161740036114,-32768.0
15232.161802533326,-32682.0
15232.161865030539,-32768.0
15232.161927527752,-32466.0
15232.161990024964,-32768.0
15232.162052522175,-29142.0
15232.162115019388,-13714.0
15232.1621775166,1039.0
15232.162240013813,11078.0
15232.162302511026,17570.0
15232.162365008238,18724.0
15232.162427505451,16219.0
15232.162490002664,12947.0
15232.162552499876,9919.0
15232.162614997087,5733.0
15232.1626774943,1772.0
15232.162739991512,-449.0
15232.162802488725,-440.0
15232.162864985938,161.0
15232.16292748315,-782.0
15232.162989980363,-2889.0
15232.163052477576,-5494.0
15232.163114974788,-6783.0
15232.163177472,-5879.0
15232.163239969213,-1639.0
15232.163302466426,3822.0
15232.163364963639,8603.0
15232.16342746085,11495.0
15232.163489958062,12847.0
15232.163552455275,12381.0
15232.163614952487,10441.0
15232.1636774497,7404.0
15232.163739946913,4255.0
15232.163802444125,1543.0
15232.163864941338,522.0
15232.16392743855,1649.0
15232.163989935761,4815.0
15232.164052432974,7930.0
15232.164114930187,9664.0
15232.1641774274,9669.0
15232.164239924612,8784.0
15232.164302421825,7581.0
15232.164364919037,6891.0
15232.16442741625,7001.0
15232.164489913463,7814.0
15232.164552410675,8770.0
15232.164614907888,9703.0
15232.1646774051,10743.0
15232.164739902313,11288.0
15232.164802399524,10883.0
15232.164864896737,9222.0
15232.16492739395,7062.0
15232.164989891162,5394.0
15232.165052388375,4643.0
15232.165114885587,4602.0
15232.1651773828,5079.0
15232.165239880012,5519.0
15232.165302377225,5514.0
15232.165364874436,4926.0
15232.165427371649,4282.0
15232.165489868861,3771.0
15232.165552366074,3285.0
15232.165614863286,2730.0
15232.1656773605,2506.0
15232.165739857712,2647.0
15232.165802354924,3096.0
15232.165864852137,3226.0
15232.16592734935,2738.0
15232.165989846562,1550.0
15232.166052343775,-325.0
15232.166114840986,-2595.0
15232.166177338198,-4763.0
15232.166239835411,-6938.0
15232.166302332624,-9412.0
15232.166364829836,-12419.0
15232.166427327049,-15893.0
15232.166489824262,-19774.0
15232.166552321474,-23963.0
15232.166614818687,-28483.0
15232.1666773159,-32104.0
15232.16673981311,-32768.0
15232.166802310323,-32768.0
15232.166864807536,-32627.0
15232.166927304748,-32768.0
15232.16698980196,-32342.0
15232.167052299174,-20539.0
15232.167114796386,-4059.0
15232.167177293599,7464.0
15232.167239790811,15504.0
15232.167302288024,18765.0
15232.167364785237,17730.0
15232.16742728245,14836.0
15232.16748977966,11508.0
15232.167552276873,7435.0
15232.167614774085,2637.0
15232.167677271298,-547.0
15232.16773976851,-1321.0
15232.167802265723,129.0
15232.167864762936,220.0
15232.167927260149,-1657.0
15232.167989757361,-4628.0
15232.168052254574,-6799.0
15232.168114751785,-6903.0
15232.168177248997,-3959.0
15232.16823974621,1205.0
15232.168302243423,6261.0
15232.168364740635,9827.0
15232.168427237848,11822.0
15232.16848973506,12293.0
15232.168552232273,11334.0
15232.168614729486,8924.0
15232.168677226698,5616.0
15232.168739723911,2241.0
15232.168802221124,262.0
15232.168864718335,591.0
15232.168927215547,3120.0
15232.16898971276,6615.0
15232.169052209973,9144.0
15232.169114707185,10044.0
15232.169177204398,9401.0
15232.16923970161,8262.0
15232.169302198823,7299.0
15232.169364696036,7136.0
15232.169427193248,7570.0
15232.16948969046,8482.0
15232.169552187672,9332.0
15232.169614684884,10175.0
15232.169677182097,10894.0
15232.16973967931,10978.0
15232.169802176522,9683.0
15232.169864673735,7566.0
15232.169927170948,5520.0
15232.16998966816,4343.0
15232.170052165373,4102.0
15232.170114662586,4741.0
15232.170177159798,5805.0
15232.170239657009,6532.0
15232.170302154222,6424.0
15232.170364651434,5599.0
15232.170427148647,4664.0
15232.17048964586,3809.0
15232.170552143072,2913.0
15232.170614640285,2289.0
15232.170677137497,2238.0
15232.17073963471,2501.0
15232.170802131923,2670.0
15232.170864629134,2436.0
15232.170927126346,1616.0
15232.170989623559,-30.0
15232.171052120771,-2243.0
15232.171114617984,-4754.0
15232.171177115197,-7046.0
15232.17123961241,-9156.0
15232.171302109622,-11314.0
15232.171364606835,-14109.0
15232.171427104047,-17679.0
15232.17148960126,-21889.0
15232.171552098473,-26473.0
15232.171614595683,-31012.0
15232.171677092896,-32768.0
15232.171739590109,-32768.0
15232.171802087321,-32745.0
15232.171864584534,-32661.0
15232.171927081747,-32768.0
15232.17198957896,-24009.0
15232.172052076172,-7398.0
15232.172114573385,5048.0
15232.172177070597,13872.0
15232.172239567808,18122.0
15232.17230206502,17312.0
15232.172364562233,14084.0
15232.172427059446,10898.0
15232.172489556659,7549.0
15232.172552053871,3347.0
15232.172614551084,123.0
15232.172677048296,-735.0
15232.17273954551,588.0
15232.172802042722,1081.0
15232.172864539934,-290.0
15232.172927037147,-3047.0
15232.172989534358,-5754.0
15232.17305203157,-7031.0
15232.173114528783,-5314.0
15232.173177025996,-506.0
15232.173239523208,4740.0
15232.173302020421,8794.0
15232.173364517634,11122.0
15232.173427014846,11962.0
15232.173489512059,11174.0
15232.17355200927,9059.0
15232.173614506482,6018.0
15232.173677003695,2911.0
15232.173739500908,529.0
15232.17380199812,152.0
15232.173864495333,2117.0
15232.173926992546,5624.0
15232.173989489758,8602.0
15232.17405198697,10062.0
15232.174114484184,9812.0
15232.174176981396,8645.0
15232.174239478609,7315.0
15232.174301975821,6843.0
15232.174364473032,7108.0
15232.174426970245,7904.0
15232.174489467458,8885.0
15232.17455196467,9808.0
15232.174614461883,10599.0
15232.174676959095,10926.0
15232.174739456308,10077.0
15232.17480195352,8152.0
15232.174864450733,5977.0
15232.174926947944,4469.0
15232.174989445157,4045.0
15232.17505194237,4618.0
15232.175114439582,5733.0
15232.175176936795,6372.0
15232.175239434007,6342.0
15232.17530193122,5599.0
15232.175364428433,4579.0
15232.175426925645,3637.0
15232.175489422858,2882.0
15232.17555192007,2301.0
15232.175614417283,2155.0
15232.175676914496,2481.0
15232.175739411707,3065.0
15232.17580190892,3282.0
15232.175864406132,2800.0
15232.175926903345,1451.0
15232.175989400557,-677.0
15232.17605189777,-3059.0
15232.176114394983,-5383.0
15232.176176892195,-7594.0
15232.176239389408,-9751.0
15232.176301886619,-12253.0
15232.176364383831,-15148.0
15232.176426881044,-18556.0
15232.176489378257,-22507.0
15232.17655187547,-27468.0
15232.176614372682,-31863.0
15232.176676869894,-32768.0
15232.176739367107,-32768.0
15232.17680186432,-32576.0
15232.176864361532,-32768.0
15232.176926858745,-31752.0
15232.176989355958,-19473.0
15232.177051853168,-3937.0
15232.177114350381,7505.0
15232.177176847594,15689.0
15232.177239344806,18581.0
15232.177301842019,16936.0
15232.177364339232,13679.0
15232.177426836444,10373.0
15232.177489333657,6755.0
15232.17755183087,2625.0
15232.177614328082,-115.0
15232.177676825293,-462.0
15232.177739322506,495.0
15232.177801819718,263.0
15232.177864316931,-1376.0
15232.177926814144,-3968.0
15232.177989311356,-6313.0
15232.178051808569,-6840.0
15232.178114305781,-4089.0
15232.178176802994,868.0
15232.178239300207,5832.0
15232.17830179742,9531.0
15232.178364294632,11742.0
15232.178426791843,12224.0
15232.178489289056,11216.0
15232.178551786268,8817.0
15232.17861428348,5805.0
15232.178676780693,2825.0
15232.178739277906,897.0
15232.178801775119,1056.0
15232.178864272331,3429.0
15232.178926769544,6775.0
15232.178989266757,9338.0
15232.179051763967,10228.0
15232.17911426118,9537.0
15232.179176758393,8163.0
15232.179239255605,6911.0
15232.179301752818,6480.0
15232.17936425003,6991.0
15232.179426747243,8150.0
15232.179489244456,9272.0
15232.179551741669,10106.0
15232.179614238881,10671.0
15232.179676736094,10667.0
15232.179739233306,9436.0
15232.179801730517,7491.0
15232.17986422773,5589.0
15232.179926724943,4445.0
15232.179989222155,4336.0
15232.180051719368,5070.0
15232.18011421658,6097.0
15232.180176713793,6863.0
15232.180239211006,6723.0
15232.180301708218,5711.0
15232.180364205431,4548.0
15232.180426702642,3509.0
15232.180489199854,2656.0
15232.180551697067,2113.0
15232.18061419428,2161.0
15232.180676691492,2683.0
15232.180739188705,3112.0
15232.180801685918,3152.0
15232.18086418313,2524.0
15232.180926680343,1099.0
15232.180989177556,-1020.0
15232.181051674768,-3483.0
15232.18111417198,-5801.0
15232.181176669192,-7851.0
15232.181239166404,-9724.0
15232.181301663617,-11867.0
15232.18136416083,-14507.0
15232.181426658042,-17882.0
15232.181489155255,-21922.0
15232.181551652468,-26155.0
15232.18161414968,-30391.0
15232.181676646893,-32657.0
15232.181739144105,-32768.0
15232.181801641316,-32548.0
15232.181864138529,-32768.0
15232.181926635742,-31841.0
15232.181989132954,-19797.0
15232.182051630167,-4026.0
15232.18211412738,7056.0
15232.182176624592,14482.0
15232.182239121805,17381.0
15232.182301619017,16397.0
15232.18236411623,13651.0
15232.182426613443,10703.0
15232.182489110655,7523.0
15232.182551607866,3826.0
15232.182614105079,1133.0
15232.182676602291,265.0
15232.182739099504,995.0
15232.182801596717,576.0
15232.18286409393,-1510.0
15232.182926591142,-4695.0
15232.182989088355,-7178.0
15232.183051585567,-7614.0
15232.18311408278,-5073.0
15232.18317657999,-129.0
15232.183239077203,4869.0
15232.183301574416,8732.0
15232.183364071629,10965.0
15232.183426568841,11679.0
15232.183489066054,11087.0
15232.183551563267,9323.0
15232.18361406048,6659.0
15232.183676557692,3905.0
15232.183739054904,2238.0
15232.183801552117,2595.0
15232.18386404933,4809.0
15232.18392654654,7727.0
15232.183989043753,9414.0
15232.184051540966,9478.0
15232.184114038178,8248.0
15232.184176535391,6990.0
15232.184239032604,6017.0
15232.184301529816,5890.0
15232.184364027029,6471.0
15232.184426524242,7480.0
15232.184489021452,8525.0
15232.184551518665,9544.0
15232.184614015878,10427.0
15232.18467651309,10746.0
15232.184739010303,9724.0
15232.184801507516,7731.0
15232.184864004728,5785.0
15232.184926501941,4780.0
15232.184988999154,4576.0
15232.185051496366,4934.0
15232.185113993579,5410.0
15232.185176490791,5693.0
15232.185238988004,5449.0
15232.185301485215,4895.0
15232.185363982428,4430.0
15232.18542647964,3957.0
15232.185488976853,3302.0
15232.185551474066,2500.0
15232.185613971278,2108.0
15232.18567646849,2260.0
15232.185738965703,2480.0
15232.185801462916,2337.0
15232.185863960127,1437.0
15232.18592645734,-222.0
15232.185988954552,-2322.0
15232.186051451765,-4655.0
15232.186113948977,-6917.0
15232.18617644619,-8911.0
15232.186238943403,-10766.0
15232.186301440615,-13063.0
15232.186363937828,-15977.0
15232.18642643504,-19666.0
15232.186488932253,-23776.0
15232.186551429466,-28061.0
15232.186613926679,-31718.0
15232.18667642389,-32768.0
15232.186738921102,-32768.0
15232.186801418315,-32527.0
15232.186863915527,-32768.0
15232.18692641274,-29300.0
15232.186988909953,-15249.0
15232.187051407165,-1156.0
15232.187113904378,9246.0
15232.18717640159,16081.0
15232.187238898801,17659.0
15232.187301396014,15646.0
15232.187363893227,12658.0
15232.18742639044,9749.0
15232.187488887652,6041.0
15232.187551384864,2124.0
15232.187613882077,-332.0
15232.18767637929,-586.0
15232.187738876502,197.0
15232.187801373715,-403.0
15232.187863870928,-2155.0
15232.18792636814,-4930.0
15232.187988865351,-6893.0
15232.188051362564,-6802.0
15232.188113859776,-3386.0
15232.188176356989,1780.0
15232.188238854202,6606.0
15232.188301351414,9986.0
15232.188363848627,11643.0
15232.18842634584,11831.0
15232.188488843052,10619.0
15232.188551340265,8365.0
15232.188613837476,5491.0
15232.188676334688,2752.0
15232.188738831901,1309.0
15232.188801329114,1986.0
15232.188863826326,4646.0
15232.188926323539,7685.0
15232.188988820752,9322.0
15232.189051317964,9201.0
15232.189113815177,8054.0
15232.18917631239,6943.0
15232.189238809602,6255.0
15232.189301306815,6462.0
15232.189363804026,7348.0
15232.189426301238,8494.0
15232.18948879845,9380.0
15232.189551295663,10178.0
15232.189613792876,10576.0
15232.189676290089,10211.0
15232.189738787301,8596.0
15232.189801284514,6454.0
15232.189863781727,4679.0
15232.18992627894,3989.0
15232.18998877615,4205.0
15232.190051273363,5144.0
15232.190113770575,6342.0
15232.190176267788,6880.0
15232.190238765,6374.0
15232.190301262213,5355.0
15232.190363759426,4356.0
15232.190426256639,3329.0
15232.190488753851,2398.0
15232.190551251064,1734.0
15232.190613748277,1621.0
15232.19067624549,1978.0
15232.1907387427,2360.0
15232.190801239913,2309.0
15232.190863737125,1486.0
15232.190926234338,-270.0
15232.19098873155,-2736.0
15232.191051228763,-5209.0
15232.191113725976,-7217.0
15232.191176223188,-8925.0
15232.191238720401,-10764.0
15232.191301217614,-13160.0
15232.191363714825,-16150.0
15232.191426212037,-20049.0
15232.19148870925,-24168.0
15232.191551206462,-28087.0
15232.191613703675,-31563.0
15232.191676200888,-32768.0
15232.1917386981,-32768.0
15232.191801195313,-32468.0
15232.191863692526,-32768.0
15232.191926189738,-28628.0
15232.191988686951,-12919.0
15232.192051184164,1895.0
15232.192113681374,12078.0
15232.192176178587,17948.0
15232.1922386758,18665.0
15232.192301173012,16142.0
15232.192363670225,12627.0
15232.192426167438,8853.0
15232.19248866465,4498.0
15232.192551161863,675.0
15232.192613659076,-1324.0
15232.192676156288,-853.0
15232.192738653499,269.0
15232.192801150712,-253.0
15232.192863647924,-2520.0
15232.192926145137,-5670.0
15232.19298864235,-7505.0
15232.193051139562,-6811.0
15232.193113636775,-2560.0
15232.193176133987,2869.0
15232.1932386312,7867.0
15232.193301128413,11051.0
15232.193363625625,12572.0
15232.193426122838,12376.0
15232.193488620049,10933.0
15232.193551117261,8139.0
15232.193613614474,4824.0
15232.193676111687,2257.0
15232.1937386089,1573.0
15232.193801106112,2891.0
15232.193863603325,5839.0
15232.193926100537,8480.0
15232.19398859775,9521.0
15232.194051094963,9011.0
15232.194113592173,7873.0
15232.194176089386,6742.0
15232.194238586599,6093.0
15232.194301083811,6139.0
15232.194363581024,6926.0
15232.194426078237,8037.0
15232.19448857545,9140.0
15232.194551072662,10116.0
15232.194613569874,10495.0
15232.194676067087,9851.0
15232.1947385643,7880.0
15232.194801061512,5718.0
15232.194863558723,4389.0
15232.194926055936,4289.0
15232.194988553149,4959.0
15232.195051050361,6063.0
15232.195113547574,6873.0
15232.195176044786,6931.0
15232.195238541999,5980.0
15232.195301039212,4591.0
15232.195363536424,3217.0
15232.195426033635,2065.0
15232.195488530848,1401.0
15232.19555102806,1423.0
15232.195613525273,2181.0
15232.195676022486,3157.0
15232.195738519698,3527.0
15232.195801016911,2984.0
15232.195863514124,1583.0
15232.195926011336,-569.0
15232.195988508549,-2935.0
15232.196051005762,-4907.0
15232.196113502974,-6530.0
15232.196176000187,-8183.0
15232.196238497398,-10267.0
15232.19630099461,-13131.0
15232.196363491823,-16692.0
15232.196425989036,-21019.0
15232.196488486248,-25343.0
15232.19655098346,-29708.0
15232.196613480673,-32440.0
15232.196675977886,-32768.0
15232.196738475099,-32708.0
15232.19680097231,-32681.0
15232.196863469522,-32768.0
15232.196925966735,-24907.0
15232.196988463947,-9568.0
15232.19705096116,2731.0
15232.197113458373,12018.0
15232.197175955585,17240.0
15232.197238452798,17577.0
15232.19730095001,15248.0
15232.197363447223,12664.0
15232.197425944436,9410.0
15232.197488441649,4947.0
15232.197550938861,897.0
15232.197613436072,-1035.0
15232.197675933285,-839.0
15232.197738430497,-474.0
15232.19780092771,-1285.0
15232.197863424923,-3373.0
15232.197925922135,-5781.0
15232.197988419348,-6729.0
15232.19805091656,-5195.0
15232.198113413773,-910.0
15232.198175910984,3885.0
15232.198238408197,8060.0
15232.19830090541,10732.0
15232.198363402622,12072.0
15232.198425899835,11914.0
15232.198488397047,10652.0
15232.19855089426,8243.0
15232.198613391472,5230.0
15232.198675888685,2849.0
15232.198738385898,2532.0
15232.19880088311,4144.0
15232.198863380323,6629.0
15232.198925877536,8409.0
15232.198988374746,9033.0
15232.19905087196,8502.0
15232.199113369172,7593.0
15232.199175866384,6696.0
15232.199238363597,6314.0
15232.19930086081,6538.0
15232.199363358022,7258.0
15232.199425855235,8174.0
15232.199488352448,9305.0
15232.199550849658,10394.0
15232.199613346871,10682.0
15232.199675844084,9804.0
15232.199738341296,8013.0
15232.199800838509,6221.0
15232.199863335722,5127.0
15232.199925832934,4707.0
15232.199988330147,4820.0
15232.20005082736,5313.0
15232.200113324572,5826.0
15232.200175821785,5829.0
15232.200238318997,5356.0
15232.200300816208,4725.0
15232.20036331342,3907.0
15232.200425810634,2953.0
15232.200488307846,2160.0
15232.200550805059,1922.0
15232.200613302271,2196.0
15232.200675799484,2607.0
15232.200738296697,2591.0
15232.20080079391,1992.0
15232.200863291122,798.0
15232.200925788333,-998.0
15232.200988285545,-3095.0
15232.201050782758,-5249.0
15232.20111327997,-7474.0
15232.201175777183,-9860.0
15232.201238274396,-12387.0
15232.201300771609,-15288.0
15232.201363268821,-18600.0
15232.201425766034,-22238.0
15232.201488263247,-25993.0
15232.20155076046,-29805.0
15232.201613257672,-32398.0
15232.201675754883,-32768.0
15232.201738252095,-32496.0
15232.201800749308,-32768.0
15232.20186324652,-31308.0
15232.201925743733,-18985.0
15232.201988240946,-3872.0
15232.202050738159,7436.0
15232.202113235371,15319.0
15232.202175732584,18133.0
15232.202238229796,16878.0
15232.202300727007,13812.0
15232.20236322422,10332.0
15232.202425721433,6433.0
15232.202488218645,2438.0
15232.202550715858,-212.0
15232.20261321307,-789.0
15232.202675710283,231.0
15232.202738207496,257.0
15232.202800704708,-1268.0
15232.202863201921,-3987.0
15232.202925699134,-6120.0
15232.202988196346,-6323.0
15232.203050693557,-3541.0
15232.20311319077,1262.0
15232.203175687982,6231.0
15232.203238185195,10081.0
15232.203300682408,12217.0
15232.20336317962,12753.0
15232.203425676833,11830.0
15232.203488174046,9520.0
15232.203550671258,6322.0
15232.20361316847,3464.0
15232.203675665682,2175.0
15232.203738162894,2933.0
15232.203800660107,5114.0
15232.20386315732,7571.0
15232.203925654532,8921.0
15232.203988151745,9041.0
15232.204050648957,8135.0
15232.20411314617,7071.0
15232.204175643383,6303.0
15232.204238140595,6288.0
15232.204300637808,6882.0
15232.20436313502,7961.0
15232.204425632232,9005.0
15232.204488129444,10094.0
15232.204550626657,10729.0
15232.20461312387,10417.0
15232.204675621082,8921.0
15232.204738118295,6983.0
15232.204800615507,5421.0
15232.20486311272,4795.0
15232.204925609933,4902.0
15232.204988107145,5654.0
15232.205050604356,6495.0
15232.205113101569,6834.0
15232.205175598781,6257.0
15232.205238095994,5089.0
15232.205300593207,3862.0
15232.20536309042,2825.0
15232.205425587632,1948.0
15232.205488084845,1671.0
15232.205550582057,2044.0
15232.20561307927,2762.0
15232.205675576482,3174.0
15232.205738073695,2838.0
15232.205800570906,1680.0
15232.205863068119,-160.0
15232.205925565331,-2423.0
15232.205988062544,-4642.0
15232.206050559756,-6523.0
15232.20611305697,-8296.0
15232.206175554182,-10299.0
15232.206238051394,-12787.0
15232.206300548607,-15699.0
15232.206363045818,-19412.0
15232.20642554303,-23733.0
15232.206488040243,-28064.0
15232.206550537456,-31648.0
15232.206613034668,-32768.0
15232.206675531881,-32750.0
15232.206738029094,-32596.0
15232.206800526306,-32768.0
15232.206863023519,-26608.0
15232.206925520732,-11586.0
15232.206988017944,1174.0
15232.207050515157,10314.0
15232.20711301237,15674.0
15232.20717550958,16626.0
15232.207238006793,14705.0
15232.207300504006,11970.0
15232.207363001218,8907.0
15232.20742549843,5181.0
15232.207487995644,1779.0
15232.207550492856,-350.0
15232.207612990069,-335.0
15232.207675487281,276.0
15232.207737984492,-459.0
15232.207800481705,-2686.0
15232.207862978918,-5160.0
15232.20792547613,-6254.0
15232.207987973343,-5157.0
15232.208050470555,-1158.0
15232.208112967768,3806.0
15232.20817546498,8366.0
15232.208237962193,11127.0
15232.208300459406,12297.0
15232.208362956619,12017.0
15232.208425453831,10577.0
15232.208487951044,7968.0
15232.208550448255,5275.0
15232.208612945467,3365.0
15232.20867544268,2873.0
15232.208737939893,3798.0
15232.208800437105,5861.0
15232.208862934318,7748.0
15232.20892543153,8636.0
15232.208987928743,8205.0
15232.209050425956,7200.0
15232.209112923167,6164.0
15232.20917542038,5781.0
15232.209237917592,6181.0
15232.209300414805,7259.0
15232.209362912017,8518.0
15232.20942540923,9691.0
15232.209487906443,10402.0
15232.209550403655,10314.0
15232.209612900868,9429.0
15232.20967539808,7878.0
15232.209737895293,6229.0
15232.209800392506,5101.0
15232.209862889718,4782.0
15232.20992538693,5019.0
15232.209987884142,5629.0
15232.210050381354,6184.0
15232.210112878567,6228.0
15232.21017537578,5435.0
15232.210237872992,4119.0
15232.210300370205,2792.0
15232.210362867418,1815.0
15232.21042536463,1362.0
15232.210487861841,1641.0
15232.210550359054,2313.0
15232.210612856266,2820.0
15232.210675353479,2704.0
15232.210737850692,1740.0
15232.210800347904,231.0
15232.210862845117,-1635.0
15232.21092534233,-3812.0
15232.210987839542,-5949.0
15232.211050336755,-7971.0
15232.211112833967,-9896.0
15232.21117533118,-11994.0
15232.211237828391,-14676.0
15232.211300325604,-18118.0
15232.211362822816,-22203.0
15232.211425320029,-26338.0
15232.211487817242,-29789.0
15232.211550314454,-31968.0
15232.211612811667,-32768.0
15232.21167530888,-32609.0
15232.211737806092,-32768.0
15232.211800303305,-32096.0
15232.211862800516,-21909.0
15232.211925297728,-7530.0
15232.21198779494,3635.0
15232.212050292153,11838.0
15232.212112789366,15438.0
15232.212175286579,15001.0
15232.212237783791,13006.0
15232.212300281004,10696.0
15232.212362778217,7507.0
15232.21242527543,3235.0
15232.212487772642,-160.0
15232.212550269855,-1500.0
15232.212612767065,-716.0
15232.212675264278,36.0
15232.21273776149,-421.0
15232.212800258703,-2337.0
15232.212862755916,-4511.0
15232.212925253129,-5342.0
15232.212987750341,-3548.0
15232.213050247554,746.0
15232.213112744766,5426.0
15232.21317524198,9161.0
15232.21323773919,11191.0
15232.213300236403,11959.0
15232.213362733615,11370.0
15232.213425230828,9704.0
15232.21348772804,7220.0
15232.213550225253,4715.0
15232.213612722466,3066.0
15232.213675219678,2979.0
15232.213737716891,4180.0
15232.213800214104,6485.0
15232.213862711316,8321.0
15232.213925208529,8856.0
15232.21398770574,8017.0
15232.214050202952,7015.0
15232.214112700165,6192.0
15232.214175197378,5992.0
15232.21423769459,6633.0
15232.214300191803,7825.0
15232.214362689016,8780.0
15232.214425186228,9417.0
15232.21448768344,9756.0
15232.214550180654,9530.0
15232.214612677864,8505.0
15232.214675175077,7005.0
15232.21473767229,5549.0
15232.214800169502,4857.0
15232.214862666715,4889.0
15232.214925163928,5332.0
15232.21498766114,5842.0
15232.215050158353,6036.0
15232.215112655565,5622.0
15232.215175152778,4688.0
15232.21523764999,3732.0
15232.215300147203,2834.0
15232.215362644414,2097.0
15232.215425141627,1486.0
15232.21548763884,1246.0
15232.215550136052,1326.0
15232.215612633265,1385.0
15232.215675130477,1072.0
15232.21573762769,175.0
15232.215800124903,-1355.0
15232.215862622115,-3307.0
15232.215925119328,-5392.0
15232.215987616539,-7320.0
15232.216050113751,-9354.0
15232.216112610964,-11772.0
15232.216175108177,-14655.0
15232.21623760539,-18310.0
15232.216300102602,-22422.0
15232.216362599815,-26105.0
15232.216425097027,-28879.0
15232.21648759424,-31241.0
15232.216550091453,-32768.0
15232.216612588665,-32612.0
15232.216675085878,-32768.0
15232.216737583089,-32078.0
15232.216800080301,-21983.0
15232.216862577514,-8324.0
15232.216925074727,2237.0
15232.21698757194,10293.0
15232.217050069152,14265.0
15232.217112566364,14468.0
15232.217175063577,13075.0
15232.21723756079,10691.0
15232.217300058,7249.0
15232.217362555213,3022.0
15232.217425052426,-126.0
15232.217487549638,-1298.0
15232.217550046851,-333.0
15232.217612544064,301.0
15232.217675041276,-369.0
15232.217737538489,-2210.0
15232.217800035702,-4084.0
15232.217862532914,-4690.0
15232.217925030127,-2751.0
15232.21798752734,1512.0
15232.218050024552,5810.0
15232.218112521763,9183.0
15232.218175018976,11188.0
15232.218237516188,11890.0
15232.218300013401,11133.0
15232.218362510614,9277.0
15232.218425007826,6570.0
15232.218487505039,4225.0
15232.218550002252,2955.0
15232.218612499464,3122.0
15232.218674996675,4496.0
15232.218737493888,6794.0
15232.2187999911,8418.0
15232.218862488313,8850.0
15232.218924985526,8154.0
15232.218987482738,7388.0
15232.21904997995,6656.0
15232.219112477163,6571.0
15232.219174974376,7088.0
15232.219237471589,8110.0
15232.219299968801,8899.0
15232.219362466014,9436.0
15232.219424963227,9473.0
15232.219487460437,9193.0
15232.21954995765,8008.0
15232.219612454863,6294.0
15232.219674952075,4978.0
15232.219737449288,4567.0
15232.2197999465,4792.0
15232.219862443713,5368.0
15232.219924940926,5934.0
15232.219987438139,6105.0
15232.22004993535,5534.0
15232.220112432562,4358.0
15232.220174929775,3151.0
15232.220237426987,2177.0
15232.2202999242,1526.0
15232.220362421413,1205.0
15232.220424918625,1324.0
15232.220487415838,1782.0
15232.22054991305,2008.0
15232.220612410263,1577.0
15232.220674907476,481.0
15232.220737404688,-1096.0
15232.220799901901,-2984.0
15232.220862399112,-4906.0
15232.220924896325,-6547.0
15232.220987393537,-8166.0
15232.22104989075,-10194.0
15232.221112387962,-13004.0
15232.221174885175,-16575.0
15232.221237382388,-20755.0
15232.2212998796,-25069.0
15232.221362376813,-28716.0
15232.221424874024,-31093.0
15232.221487371236,-32502.0
15232.221549868449,-32768.0
15232.221612365662,-32664.0
15232.221674862874,-32768.0
15232.221737360087,-26524.0
15232.2217998573,-13069.0
15232.221862354512,-1546.0
15232.221924851725,7271.0
15232.221987348938,12891.0
15232.22204984615,14319.0
15232.222112343363,12972.0
15232.222174840574,10966.0
15232.222237337786,8656.0
15232.222299834999,5234.0
15232.222362332212,1645.0
15232.222424829424,-546.0
15232.222487326637,-481.0
15232.22254982385,370.0
15232.222612321062,112.0
15232.222674818275,-1192.0
15232.222737315487,-3061.0
15232.222799812698,-4287.0
15232.22286230991,-3695.0
15232.222924807123,-263.0
15232.222987304336,4116.0
15232.223049801549,8029.0
15232.223112298761,10541.0
15232.223174795974,11736.0
15232.223237293187,11427.0
15232.2232997904,10262.0
15232.223362287612,8452.0
15232.223424784825,6440.0
15232.223487282037,4790.0
15232.223549779248,4191.0
15232.22361227646,4589.0
15232.223674773673,5979.0
15232.223737270886,7425.0
15232.223799768099,7990.0
15232.223862265311,7552.0
15232.223924762524,7010.0
15232.223987259737,6518.0
15232.22404975695,6278.0
15232.224112254162,6435.0
15232.224174751373,7098.0
15232.224237248585,8030.0
15232.224299745798,8892.0
15232.22436224301,9568.0
15232.224424740223,9839.0
15232.224487237436,9522.0
15232.224549734648,8365.0
15232.224612231861,7004.0
15232.224674729074,6139.0
15232.224737226286,5760.0
15232.224799723499,5438.0
15232.224862220712,5258.0
15232.224924717922,4984.0
15232.224987215135,4396.0
15232.225049712348,3489.0
15232.22511220956,2747.0
15232.225174706773,2163.0
15232.225237203986,1760.0
15232.225299701198,1422.0
15232.225362198411,1322.0
15232.225424695624,1508.0
15232.225487192836,1854.0
15232.225549690047,1734.0
15232.22561218726,955.0
15232.225674684472,-259.0
15232.225737181685,-1982.0
15232.225799678898,-4047.0
15232.22586217611,-6269.0
15232.225924673323,-8654.0
15232.225987170536,-11423.0
15232.226049667748,-14719.0
15232.22611216496,-18525.0
15232.226174662173,-22483.0
15232.226237159386,-26144.0
15232.226299656597,-29053.0
15232.22636215381,-30865.0
15232.226424651022,-32400.0
15232.226487148235,-32749.0
15232.226549645447,-32768.0
15232.22661214266,-32546.0
15232.226674639873,-24439.0
15232.226737137085,-10883.0
15232.226799634298,468.0
15232.22686213151,9177.0
15232.226924628721,14000.0
15232.226987125934,14520.0
15232.227049623147,13215.0
15232.22711212036,11074.0
15232.227174617572,7977.0
15232.227237114785,3793.0
15232.227299611997,256.0
15232.22736210921,-1369.0
15232.227424606423,-747.0
15232.227487103635,670.0
15232.227549600848,648.0
15232.22761209806,-725.0
15232.227674595271,-2783.0
15232.227737092484,-3654.0
15232.227799589697,-2491.0
15232.22786208691,1217.0
15232.227924584122,5499.0
15232.227987081335,9147.0
15232.228049578547,11377.0
15232.22811207576,12200.0
15232.228174572972,11720.0
15232.228237070185,10119.0
15232.228299567396,8016.0
15232.228362064609,5857.0
15232.228424561821,4160.0
15232.228487059034,3711.0
15232.228549556246,4621.0
15232.228612053459,6378.0
15232.228674550672,7759.0
15232.228737047884,8220.0
15232.228799545097,7833.0
15232.22886204231,7059.0
15232.228924539522,6512.0
15232.228987036735,6447.0
15232.229049533946,7051.0
15232.229112031158,8090.0
15232.229174528371,9278.0
15232.229237025584,10028.0
15232.229299522796,10351.0
15232.229362020009,9992.0
15232.229424517222,8994.0
15232.229487014434,7355.0
15232.229549511647,5786.0
15232.229612008858,4740.0
15232.22967450607,4521.0
15232.229737003283,4768.0
15232.229799500496,5265.0
15232.229861997708,5581.0
15232.22992449492,5392.0
15232.229986992133,4424.0
15232.230049489346,3231.0
15232.230111986559,2247.0
15232.230174483771,1660.0
15232.230236980984,1299.0
15232.230299478197,1229.0
15232.23036197541,1308.0
15232.23042447262,1175.0
15232.230486969833,724.0
15232.230549467045,-115.0
15232.230611964258,-1383.0
15232.23067446147,-3094.0
15232.230736958683,-5128.0
15232.230799455896,-7315.0
15232.230861953109,-9616.0
15232.230924450321,-12159.0
15232.230986947532,-15278.0
15232.231049444745,-18946.0
15232.231111941957,-22946.0
15232.23117443917,-26714.0
15232.231236936383,-29447.0
15232.231299433595,-31465.0
15232.231361930808,-32738.0
15232.23142442802,-32603.0
15232.231486925233,-32768.0
15232.231549422446,-29994.0
15232.231611919658,-18485.0
15232.231674416871,-6267.0
15232.231736914084,3606.0
15232.231799411295,10951.0
15232.231861908507,14074.0
15232.23192440572,13926.0
15232.231986902932,12375.0
15232.232049400145,10047.0
15232.232111897358,6478.0
15232.23217439457,2490.0
15232.232236891783,-293.0
15232.232299388996,-1040.0
15232.232361886206,-85.0
15232.23242438342,341.0
15232.232486880632,-103.0
15232.232549377844,-1588.0
15232.232611875057,-2800.0
15232.23267437227,-2794.0
15232.232736869482,-331.0
15232.232799366695,3488.0
15232.232861863908,7210.0
15232.23292436112,10087.0
15232.232986858333,11728.0
15232.233049355546,12054.0
15232.233111852756,11308.0
15232.233174349969,9800.0
15232.233236847182,7543.0
15232.233299344394,5224.0
15232.233361841607,3663.0
15232.23342433882,3436.0
15232.233486836032,4623.0
15232.233549333245,6549.0
15232.233611830457,7877.0
15232.23367432767,8184.0
15232.23373682488,7682.0
15232.233799322094,7107.0
15232.233861819306,6781.0
15232.233924316519,7146.0
15232.233986813731,7878.0
15232.234049310944,8807.0
15232.234111808157,9273.0
15232.23417430537,9516.0
15232.234236802582,9354.0
15232.234299299795,8989.0
15232.234361797007,7975.0
15232.23442429422,6544.0
15232.23448679143,5485.0
15232.234549288643,5033.0
15232.234611785856,4896.0
15232.234674283069,5060.0
15232.234736780281,5090.0
15232.234799277494,4633.0
15232.234861774707,3715.0
15232.23492427192,2716.0
15232.234986769132,1979.0
15232.235049266345,1654.0
15232.235111763555,1520.0
15232.235174260768,1530.0
15232.23523675798,1776.0
15232.235299255193,2026.0
15232.235361752406,1694.0
15232.235424249619,436.0
15232.235486746831,-1362.0
15232.235549244044,-3536.0
15232.235611741256,-5932.0
15232.235674238469,-8024.0
15232.235736735682,-9575.0
15232.235799232894,-11188.0
15232.235861730105,-13665.0
15232.235924227318,-17235.0
15232.23598672453,-21335.0
15232.236049221743,-25101.0
15232.236111718956,-27956.0
15232.236174216168,-29768.0
15232.236236713381,-31382.0
15232.236299210594,-32462.0
15232.236361707806,-32768.0
15232.236424205019,-32153.0
15232.23648670223,-24194.0
15232.236549199442,-12184.0
15232.236611696655,-2267.0
15232.236674193868,5854.0
15232.23673669108,10889.0
15232.236799188293,12498.0
15232.236861685506,12370.0
15232.236924182718,11461.0
15232.23698667993,9151.0
15232.237049177143,5184.0
15232.237111674356,1515.0
15232.237174171569,-643.0
15232.23723666878,-748.0
15232.237299165992,27.0
15232.237361663205,231.0
15232.237424160418,-520.0
15232.23748665763,-1736.0
15232.237549154843,-2017.0
15232.237611652055,-782.0
15232.237674149268,2424.0
15232.23773664648,5850.0
15232.237799143693,8780.0
15232.237861640904,10500.0
15232.237924138117,11075.0
15232.23798663533,10892.0
15232.238049132542,10390.0
15232.238111629755,9101.0
15232.238174126967,7200.0
15232.23823662418,5272.0
15232.238299121393,4361.0
15232.238361618605,4431.0
15232.238424115818,5605.0
15232.23848661303,7091.0
15232.238549110243,8115.0
15232.238611607454,8198.0
15232.238674104667,7856.0
15232.23873660188,7441.0
15232.238799099092,7351.0
15232.238861596305,7654.0
15232.238924093517,8199.0
15232.23898659073,8794.0
15232.239049087942,9184.0
15232.239111585155,9547.0
15232.239174082368,9717.0
15232.239236579579,9286.0
15232.239299076791,8097.0
15232.239361574004,6693.0
15232.239424071216,5611.0
15232.23948656843,4976.0
15232.239549065642,4662.0
15232.239611562854,4735.0
15232.239674060067,4862.0
15232.23973655728,4613.0
15232.239799054492,3838.0
15232.239861551705,2995.0
15232.239924048918,2159.0
15232.239986546128,1503.0
15232.240049043341,871.0
15232.240111540554,601.0
15232.240174037766,775.0
15232.240236534979,1065.0
15232.240299032192,890.0
15232.240361529404,37.0
15232.240424026617,-1462.0
15232.24048652383,-3552.0
15232.24054902104,-5949.0
15232.240611518253,-8583.0
15232.240674015466,-11296.0
15232.240736512678,-14292.0
15232.24079900989,-17580.0
15232.240861507104,-20850.0
15232.240924004316,-23665.0
15232.240986501529,-25882.0
15232.241048998741,-27553.0
15232.241111495954,-30197.0
15232.241173993167,-32591.0
15232.24123649038,-32689.0
15232.241298987592,-32768.0
15232.241361484803,-27618.0
15232.241423982015,-14866.0
15232.241486479228,-3105.0
15232.24154897644,6493.0
15232.241611473653,12490.0
15232.241673970866,14161.0
15232.241736468079,13402.0
15232.241798965291,11759.0
15232.241861462504,8927.0
15232.241923959715,4961.0
15232.241986456927,1428.0
15232.24204895414,-304.0
15232.242111451353,142.0
15232.242173948565,1428.0
15232.242236445778,1651.0
15232.24229894299,313.0
15232.242361440203,-2022.0
15232.242423937416,-3672.0
15232.242486434629,-3074.0
15232.242548931841,355.0
15232.242611429054,4736.0
15232.242673926266,8806.0
15232.242736423477,11507.0
15232.24279892069,12722.0
15232.242861417903,12676.0
15232.242923915115,11747.0
15232.242986412328,9651.0
15232.24304890954,6747.0
15232.243111406753,4171.0
15232.243173903966,3059.0
15232.243236401178,3523.0
15232.24329889839,5514.0
15232.243361395602,7841.0
15232.243423892814,9043.0
15232.243486390027,8961.0
15232.24354888724,8203.0
15232.243611384452,7343.0
15232.243673881665,6867.0
15232.243736378878,7104.0
15232.24379887609,7890.0
15232.243861373303,9030.0
15232.243923870516,10012.0
15232.243986367728,10605.0
15232.244048864939,10666.0
15232.244111362152,9843.0
15232.244173859364,8145.0
15232.244236356577,6220.0
15232.24429885379,4908.0
15232.244361351002,4464.0
15232.244423848215,4534.0
15232.244486345428,4933.0
15232.24454884264,5087.0
15232.244611339853,4572.0
15232.244673837064,3515.0
15232.244736334276,2422.0
15232.244798831489,1520.0
15232.244861328702,1029.0
15232.244923825914,774.0
15232.244986323127,927.0
15232.24504882034,1507.0
15232.245111317552,2075.0
15232.245173814765,1961.0
15232.245236311977,841.0
15232.24529880919,-1068.0
15232.245361306403,-3638.0
15232.245423803613,-6402.0
15232.245486300826,-8903.0
15232.245548798039,-11417.0
15232.245611295251,-14319.0
15232.245673792464,-17718.0
15232.245736289677,-21373.0
15232.24579878689,-24462.0
15232.245861284102,-26609.0
15232.245923781315,-27948.0
15232.245986278527,-29834.0
15232.246048775738,-32113.0
15232.24611127295,-32768.0
15232.246173770163,-32329.0
15232.246236267376,-25386.0
15232.246298764589,-13170.0
15232.246361261801,-3029.0
15232.246423759014,4919.0
15232.246486256226,10443.0
15232.24654875344,12477.0
15232.246611250652,12243.0
15232.246673747864,10946.0
15232.246736245077,8707.0
15232.246798742288,4857.0
15232.2468612395,1141.0
15232.246923736713,-531.0
15232.246986233926,35.0
15232.247048731138,1265.0
15232.247111228351,1207.0
15232.247173725564,157.0
15232.247236222776,-1536.0
15232.247298719989,-2304.0
15232.247361217202,-1202.0
15232.247423714412,2077.0
15232.247486211625,5746.0
15232.247548708838,8938.0
15232.24761120605,11025.0
15232.247673703263,11875.0
15232.247736200476,11809.0
15232.247798697688,10871.0
15232.2478611949,8837.0
15232.247923692114,6064.0
15232.247986189326,3676.0
15232.248048686539,2869.0
15232.248111183751,3573.0
15232.248173680962,5529.0
15232.248236178175,7488.0
15232.248298675388,8588.0
15232.2483611726,8621.0
15232.248423669813,8140.0
15232.248486167025,7911.0
15232.248548664238,7881.0
15232.24861116145,8159.0
15232.248673658663,8497.0
15232.248736155876,8924.0
15232.248798653087,9261.0
15232.2488611503,9533.0
15232.248923647512,9512.0
15232.248986144725,8915.0
15232.249048641937,7341.0
15232.24911113915,5462.0
15232.249173636363,4202.0
15232.249236133575,3810.0
15232.249298630788,4194.0
15232.249361128,4842.0
15232.249423625213,5252.0
15232.249486122426,5082.0
15232.249548619637,4269.0
15232.24961111685,3252.0
15232.249673614062,2271.0
15232.249736111275,1506.0
15232.249798608487,817.0
15232.2498611057,322.0
15232.249923602913,168.0
15232.249986100125,312.0
15232.250048597338,383.0
15232.25011109455,-132.0
15232.250173591761,-1405.0
15232.250236088974,-3261.0
15232.250298586187,-5298.0
15232.2503610834,-7265.0
15232.250423580612,-9283.0
15232.250486077824,-11646.0
15232.250548575037,-14695.0
15232.25061107225,-18294.0
15232.250673569462,-22167.0
15232.250736066675,-25753.0
15232.250798563888,-28147.0
15232.2508610611,-30040.0
15232.250923558311,-32149.0
15232.250986055524,-32713.0
15232.251048552736,-32768.0
15232.251111049949,-30016.0
15232.251173547162,-19380.0
15232.251236044374,-8211.0
15232.251298541587,438.0
15232.2513610388,7171.0
15232.251423536012,10375.0
15232.251486033223,10894.0
15232.251548530436,10506.0
15232.251611027648,9676.0
15232.251673524861,7360.0
15232.251736022074,3975.0
15232.251798519286,1587.0
15232.251861016499,773.0
15232.251923513712,1211.0
15232.251986010924,1177.0
15232.252048508137,372.0
15232.25211100535,-1279.0
15232.252173502562,-2759.0
15232.252235999775,-2947.0
15232.252298496986,-815.0
15232.252360994198,2886.0
15232.25242349141,6345.0
15232.252485988623,9066.0
15232.252548485836,10589.0
15232.252610983049,10836.0
15232.252673480261,10257.0
15232.252735977474,9225.0
15232.252798474687,7629.0
15232.252860971897,5708.0
15232.25292346911,4509.0
15232.252985966323,4425.0
15232.253048463535,5336.0
15232.253110960748,6810.0
15232.25317345796,7927.0
15232.253235955173,8301.0
15232.253298452386,7900.0
15232.253360949599,7414.0
15232.253423446811,7104.0
15232.253485944024,7198.0
15232.253548441236,7650.0
15232.25361093845,8346.0
15232.25367343566,9055.0
15232.253735932873,9574.0
15232.253798430085,9732.0
15232.253860927298,9592.0
15232.25392342451,8738.0
15232.253985921723,7369.0
15232.254048418936,5890.0
15232.254110916148,4978.0
15232.254173413361,4621.0
15232.254235910572,4621.0
15232.254298407785,4714.0
15232.254360904997,4632.0
15232.25442340221,3995.0
15232.254485899422,3046.0
15232.254548396635,2134.0
15232.254610893848,1379.0
15232.25467339106,827.0
15232.254735888273,494.0
15232.254798385486,468.0
15232.254860882698,665.0
15232.25492337991,812.0
15232.254985877124,630.0
15232.255048374334,-130.0
15232.255110871547,-1572.0
15232.25517336876,-3768.0
15232.255235865972,-6273.0
15232.255298363185,-8788.0
15232.255360860398,-11521.0
15232.25542335761,-14878.0
15232.255485854823,-18743.0
15232.255548352035,-22676.0
15232.255610849246,-25705.0
15232.255673346459,-27520.0
15232.255735843672,-28369.0
15232.255798340884,-29450.0
15232.255860838097,-31505.0
15232.25592333531,-32768.0
15232.255985832522,-31583.0
15232.256048329735,-23467.0
15232.256110826947,-11933.0
15232.25617332416,-1938.0
15232.256235821373,6006.0
15232.256298318585,10427.0
15232.256360815796,11546.0
15232.256423313009,11200.0
15232.256485810221,10165.0
15232.256548307434,7673.0
15232.256610804647,3866.0
15232.25667330186,635.0
15232.256735799072,-897.0
15232.256798296285,-327.0
15232.256860793497,1060.0
15232.25692329071,1491.0
15232.25698578792,497.0
15232.257048285133,-1125.0
15232.257110782346,-2050.0
15232.257173279559,-1137.0
15232.257235776771,1836.0
15232.257298273984,5119.0
15232.257360771197,7900.0
15232.25742326841,9718.0
15232.257485765622,10607.0
15232.257548262834,10663.0
15232.257610760047,10023.0
15232.25767325726,8480.0
15232.25773575447,6160.0
15232.257798251683,4048.0
15232.257860748896,3184.0
15232.257923246108,3684.0
15232.257985743321,5534.0
15232.258048240534,7405.0
15232.258110737746,8457.0
15232.258173234959,8508.0
15232.258235732172,8161.0
15232.258298229384,7785.0
15232.258360726595,7587.0
15232.258423223808,7550.0
15232.25848572102,7833.0
15232.258548218233,8236.0
15232.258610715446,8763.0
15232.258673212658,9261.0
15232.258735709871,9565.0
15232.258798207084,9185.0
15232.258860704296,7881.0
15232.258923201509,6103.0
15232.258985698722,4689.0
15232.259048195934,3963.0
15232.259110693145,3821.0
15232.259173190358,4052.0
15232.25923568757,4248.0
15232.259298184783,3958.0
15232.259360681996,3227.0
15232.259423179208,2368.0
15232.25948567642,1678.0
15232.259548173633,1207.0
15232.259610670846,781.0
15232.259673168059,560.0
15232.25973566527,649.0
15232.259798162482,851.0
15232.259860659695,758.0
15232.259923156907,127.0
15232.25998565412,-1239.0
15232.260048151333,-3199.0
15232.260110648545,-5494.0
15232.260173145758,-7830.0
15232.26023564297,-10187.0
15232.260298140183,-12792.0
15232.260360637396,-15783.0
15232.260423134609,-19190.0
15232.26048563182,-22427.0
15232.260548129032,-24878.0
15232.260610626245,-26636.0
15232.260673123457,-27976.0
15232.26073562067,-30540.0
15232.260798117883,-32501.0
15232.260860615095,-32768.0
15232.260923112308,-30530.0
15232.26098560952,-20530.0
15232.261048106733,-8580.0
15232.261110603944,1276.0
15232.261173101157,8578.0
15232.26123559837,12020.0
15232.261298095582,12469.0
15232.261360592795,11707.0
15232.261423090007,9852.0
15232.26148558722,6690.0
15232.261548084432,2965.0
15232.261610581645,68.0
15232.261673078858,-719.0
15232.26173557607,492.0
15232.261798073283,1811.0
15232.261860570494,1784.0
15232.261923067706,415.0
15232.261985564919,-1446.0
15232.262048062132,-2341.0
15232.262110559344,-1042.0
15232.262173056557,2218.0
15232.26223555377,5736.0
15232.262298050982,8563.0
15232.262360548195,10301.0
15232.262423045406,11030.0
15232.262485542618,11193.0
15232.262548039831,10439.0
15232.262610537044,8506.0
15232.262673034256,6042.0
15232.262735531469,4041.0
15232.262798028682,3344.0
15232.262860525894,4169.0
15232.262923023107,6241.0
15232.26298552032,8062.0
15232.263048017532,8755.0
15232.263110514745,8391.0
15232.263173011957,7813.0
15232.263235509168,7486.0
15232.26329800638,7447.0
15232.263360503594,7664.0
15232.263423000806,8063.0
15232.263485498019,8616.0
15232.263547995231,9171.0
15232.263610492444,9592.0
15232.263672989657,9664.0
15232.26373548687,9002.0
15232.26379798408,7603.0
15232.263860481293,6099.0
15232.263922978505,5139.0
15232.263985475718,4615.0
15232.26404797293,4290.0
15232.264110470143,3975.0
15232.264172967356,3522.0
15232.264235464569,2816.0
15232.264297961781,2072.0
15232.264360458994,1648.0
15232.264422956207,1446.0
15232.26448545342,1193.0
15232.264547950632,761.0
15232.264610447843,507.0
15232.264672945055,665.0
15232.264735442268,819.0
15232.26479793948,465.0
15232.264860436693,-491.0
15232.264922933906,-2052.0
15232.264985431118,-4161.0
15232.265047928331,-6557.0
15232.265110425544,-9129.0
15232.265172922755,-12103.0
15232.265235419967,-15352.0
15232.26529791718,-18724.0
15232.265360414392,-22009.0
15232.265422911605,-24769.0
15232.265485408818,-26684.0
15232.26554790603,-27675.0
15232.265610403243,-29557.0
15232.265672900456,-31996.0
15232.265735397668,-32768.0
15232.265797894881,-31575.0
15232.265860392094,-22815.0
15232.265922889306,-10735.0
15232.265985386517,-509.0
15232.26604788373,7718.0
15232.266110380942,12333.0
15232.266172878155,13132.0
15232.266235375368,11996.0
15232.26629787258,10064.0
15232.266360369793,7016.0
15232.266422867006,3085.0
15232.266485364218,131.0
15232.266547861429,-625.0
15232.266610358642,600.0
15232.266672855854,1945.0
15232.266735353067,2103.0
15232.26679785028,672.0
15232.266860347492,-1280.0
15232.266922844705,-2292.0
15232.266985341917,-1175.0
15232.26704783913,1982.0
15232.267110336343,5764.0
15232.267172833555,9069.0
15232.267235330768,11127.0
15232.267297827979,11894.0
15232.267360325191,11683.0
15232.267422822404,10609.0
15232.267485319617,8454.0
15232.26754781683,5805.0
15232.267610314042,3780.0
15232.267672811255,3142.0
15232.267735308467,3909.0
15232.26779780568,5882.0
15232.267860302893,7849.0
15232.267922800103,8924.0
15232.267985297316,8776.0
15232.268047794529,8129.0
15232.268110291741,7544.0
15232.268172788954,7373.0
15232.268235286167,7589.0
15232.26829778338,8228.0
15232.268360280592,8905.0
15232.268422777805,9433.0
15232.268485275017,9710.0
15232.26854777223,9639.0
15232.268610269442,8735.0
15232.268672766653,7209.0
15232.268735263866,5558.0
15232.268797761079,4665.0
15232.268860258291,4416.0
15232.268922755504,4478.0
15232.268985252716,4580.0
15232.269047749929,4469.0
15232.269110247142,3826.0
15232.269172744354,2826.0
15232.269235241567,1929.0
15232.269297738778,1507.0
15232.26936023599,1331.0
15232.269422733203,1358.0
15232.269485230416,1750.0
15232.269547727628,2385.0
15232.269610224841,2681.0
15232.269672722054,2167.0
15232.269735219266,673.0
15232.269797716479,-1521.0
15232.269860213692,-3961.0
15232.269922710904,-6374.0
15232.269985208117,-8457.0
15232.270047705328,-10351.0
15232.27011020254,-12510.0
15232.270172699753,-15163.0
15232.270235196966,-18312.0
15232.270297694178,-21450.0
15232.27036019139,-23695.0
15232.270422688604,-25108.0
15232.270485185816,-26184.0
15232.270547683029,-28066.0
15232.270610180241,-31102.0
15232.270672677452,-32768.0
15232.270735174665,-30171.0
15232.270797671878,-21291.0
15232.27086016909,-10074.0
15232.270922666303,-287.0
15232.270985163515,7148.0
15232.271047660728,10888.0
15232.27111015794,11563.0
15232.271172655153,10923.0
15232.271235152366,9383.0
15232.271297649579,6522.0
15232.271360146791,2979.0
15232.271422644002,284.0
15232.271485141215,-485.0
15232.271547638427,622.0
15232.27161013564,2027.0
15232.271672632853,2214.0
15232.271735130065,753.0
15232.271797627278,-1263.0
15232.27186012449,-2208.0
15232.271922621703,-936.0
15232.271985118916,2291.0
15232.272047616127,5830.0
15232.27211011334,8587.0
15232.272172610552,10227.0
15232.272235107765,10927.0
15232.272297604977,10646.0
15232.27236010219,9658.0
15232.272422599402,7715.0
15232.272485096615,5323.0
15232.272547593828,3534.0
15232.27261009104,3154.0
15232.272672588253,4439.0
15232.272735085466,6711.0
15232.272797582677,8609.0
15232.27286007989,9388.0
15232.272922577102,9068.0
15232.272985074314,8385.0
15232.273047571527,7797.0
15232.27311006874,7553.0
15232.273172565952,7737.0
15232.273235063165,8228.0
15232.273297560378,8718.0
15232.27336005759,9122.0
15232.273422554801,9319.0
15232.273485052014,9281.0
15232.273547549226,8430.0
15232.273610046439,6847.0
15232.273672543652,5308.0
15232.273735040864,4431.0
15232.273797538077,4243.0
15232.27386003529,4469.0
15232.273922532502,4846.0
15232.273985029715,4896.0
15232.274047526927,4272.0
15232.27411002414,3258.0
15232.274172521351,2158.0
15232.274235018564,1272.0
15232.274297515776,463.0
15232.274360012989,-149.0
15232.274422510201,-328.0
15232.274485007414,96.0
15232.274547504627,705.0
15232.27461000184,869.0
15232.274672499052,334.0
15232.274734996263,-852.0
15232.274797493475,-2726.0
15232.274859990688,-4962.0
15232.2749224879,-7253.0
15232.274984985113,-9786.0
15232.275047482326,-12764.0
15232.275109979539,-16180.0
15232.275172476751,-19771.0
15232.275234973964,-22856.0
15232.275297471177,-24840.0
15232.27535996839,-25938.0
15232.275422465602,-26991.0
15232.275484962815,-29114.0
15232.275547460025,-32046.0
15232.275609957238,-32536.0
15232.27567245445,-27334.0
15232.275734951663,-17070.0
15232.275797448876,-5981.0
15232.275859946089,3272.0
15232.275922443301,9606.0
15232.275984940514,12023.0
15232.276047437726,11970.0
15232.276109934937,10683.0
15232.27617243215,8305.0
15232.276234929363,4607.0
15232.276297426575,868.0
15232.276359923788,-1298.0
15232.276422421,-1176.0
15232.276484918213,687.0
15232.276547415426,2052.0
15232.276609912638,1943.0
15232.276672409851,518.0
15232.276734907064,-910.0
15232.276797404276,-1077.0
15232.276859901489,888.0
15232.2769223987,4214.0
15232.276984895912,7134.0
15232.277047393125,9008.0
15232.277109890338,10036.0
15232.27717238755,10615.0
15232.277234884763,10288.0
15232.277297381976,9078.0
15232.277359879188,7039.0
15232.2774223764,4745.0
15232.277484873612,3146.0
15232.277547370824,2980.0
15232.277609868037,4315.0
15232.27767236525,6471.0
15232.277734862462,8080.0
15232.277797359675,8686.0
15232.277859856888,8394.0
15232.2779223541,8042.0
15232.277984851313,7772.0
15232.278047348525,7718.0
15232.278109845738,7885.0
15232.27817234295,8284.0
15232.278234840162,8568.0
15232.278297337374,8828.0
15232.278359834587,8978.0
15232.2784223318,8561.0
15232.278484829012,7434.0
15232.278547326225,5877.0
15232.278609823437,4506.0
15232.27867232065,3836.0
15232.278734817863,3773.0
15232.278797315075,3934.0
15232.278859812286,3993.0
15232.278922309499,3892.0
15232.278984806711,3420.0
15232.279047303924,2758.0
15232.279109801137,2229.0
15232.27917229835,1744.0
15232.279234795562,1116.0
15232.279297292775,460.0
15232.279359789987,207.0
15232.2794222872,213.0
15232.279484784412,311.0
15232.279547281625,-77.0
15232.279609778836,-1050.0
15232.279672276049,-2472.0
15232.279734773261,-4234.0
15232.279797270474,-6238.0
15232.279859767687,-8449.0
15232.2799222649,-11101.0
15232.279984762112,-14307.0
15232.280047259324,-17569.0
15232.280109756537,-20463.0
15232.28017225375,-22772.0
15232.28023475096,-24235.0
15232.280297248173,-25169.0
15232.280359745386,-26250.0
15232.280422242598,-28519.0
15232.280484739811,-31435.0
15232.280547237024,-30901.0
15232.280609734236,-24803.0
15232.280672231449,-15056.0
15232.280734728662,-5358.0
15232.280797225874,2855.0
15232.280859723087,8692.0
15232.2809222203,11077.0
15232.28098471751,11181.0
15232.281047214723,10273.0
15232.281109711936,8233.0
15232.281172209148,4719.0
15232.281234706361,1366.0
15232.281297203574,-122.0
15232.281359700786,330.0
15232.281422197999,1611.0
15232.281484695211,2220.0
15232.281547192424,1705.0
15232.281609689635,-30.0
15232.281672186848,-1245.0
15232.28173468406,-1132.0
15232.281797181273,1072.0
15232.281859678485,4122.0
15232.281922175698,6935.0
15232.28198467291,8909.0
15232.282047170123,10048.0
15232.282109667336,10556.0
15232.282172164549,10194.0
15232.282234661761,8745.0
15232.282297158974,6577.0
15232.282359656185,4496.0
15232.282422153397,3325.0
15232.28248465061,3651.0
15232.282547147823,5320.0
15232.282609645035,7284.0
15232.282672142248,8619.0
15232.28273463946,8906.0
15232.282797136673,8570.0
15232.282859633886,8224.0
15232.282922131099,7883.0
15232.28298462831,7734.0
15232.283047125522,7883.0
15232.283109622735,8350.0
15232.283172119947,8644.0
15232.28323461716,8902.0
15232.283297114373,8986.0
15232.283359611585,8652.0
15232.283422108798,7492.0
15232.28348460601,5981.0
15232.283547103223,4660.0
15232.283609600436,3989.0
15232.283672097648,3969.0
15232.28373459486,4374.0
15232.283797092072,4745.0
15232.283859589284,4764.0
15232.283922086497,4147.0
15232.28398458371,3161.0
15232.284047080922,2281.0
15232.284109578135,1651.0
15232.284172075348,989.0
15232.28423457256,467.0
15232.284297069773,262.0
15232.284359566984,286.0
15232.284422064196,237.0
15232.284484561409,-129.0
15232.284547058622,-1008.0
15232.284609555834,-2547.0
15232.284672053047,-4507.0
15232.28473455026,-6696.0
15232.284797047472,-8929.0
15232.284859544685,-11437.0
15232.284922041898,-14333.0
15232.28498453911,-17346.0
15232.285047036323,-20167.0
15232.285109533534,-22683.0
15232.285172030746,-24601.0
15232.285234527959,-26030.0
15232.285297025172,-27756.0
15232.285359522384,-30840.0
15232.285422019597,-32768.0
15232.28548451681,-29707.0
15232.285547014022,-21237.0
15232.285609511235,-10957.0
15232.285672008446,-1475.0
15232.285734505658,6559.0
15232.28579700287,11314.0
15232.285859500083,12517.0
15232.285921997296,11814.0
15232.285984494509,9689.0
15232.286046991721,6159.0
15232.286109488934,2315.0
15232.286171986147,-165.0
15232.28623448336,-734.0
15232.286296980572,452.0
15232.286359477785,1852.0
15232.286421974997,2033.0
15232.286484472208,920.0
15232.28654696942,-535.0
15232.286609466633,-1226.0
15232.286671963846,-379.0
15232.286734461059,2127.0
15232.286796958271,5146.0
15232.286859455484,7910.0
15232.286921952697,9887.0
15232.28698444991,11046.0
15232.28704694712,11238.0
15232.287109444333,10305.0
15232.287171941545,8219.0
15232.287234438758,5599.0
15232.28729693597,3683.0
15232.287359433183,3302.0
15232.287421930396,4211.0
15232.287484427608,6135.0
15232.287546924821,7890.0
15232.287609422034,8772.0
15232.287671919246,8578.0
15232.287734416459,7976.0
15232.287796913672,7413.0
15232.287859410882,7087.0
15232.287921908095,7111.0
15232.287984405308,7692.0
15232.28804690252,8515.0
15232.288109399733,9285.0
15232.288171896946,9805.0
15232.288234394158,9742.0
15232.288296891371,8881.0
15232.288359388584,7312.0
15232.288421885794,5616.0
15232.288484383007,4582.0
15232.28854688022,4101.0
15232.288609377432,4036.0
15232.288671874645,4258.0
15232.288734371858,4422.0
15232.28879686907,4078.0
15232.288859366283,3250.0
15232.288921863495,2353.0
15232.288984360708,1539.0
15232.28904685792,890.0
15232.289109355133,479.0
15232.289171852344,485.0
15232.289234349557,842.0
15232.28929684677,1089.0
15232.289359343982,886.0
15232.289421841195,65.0
15232.289484338407,-1252.0
15232.28954683562,-2973.0
15232.289609332833,-4987.0
15232.289671830045,-7059.0
15232.289734327258,-9405.0
15232.289796824469,-12273.0
15232.289859321681,-15680.0
15232.289921818894,-19165.0
15232.289984316107,-22030.0
15232.29004681332,-23819.0
15232.290109310532,-24502.0
15232.290171807745,-24932.0
15232.290234304957,-26145.0
15232.29029680217,-29034.0
15232.290359299383,-30792.0
15232.290421796595,-27597.0
15232.290484293808,-19341.0
15232.290546791019,-9259.0
15232.290609288231,-450.0
15232.290671785444,6493.0
15232.290734282657,10379.0
15232.29079677987,11653.0
15232.290859277082,11150.0
15232.290921774294,9211.0
15232.290984271507,6021.0
15232.29104676872,2246.0
15232.291109265932,-347.0
15232.291171763143,-917.0
15232.291234260356,581.0
15232.291296757568,2059.0
15232.291359254781,2283.0
15232.291421751994,919.0
15232.291484249206,-702.0
15232.291546746419,-1414.0
15232.291609243632,-431.0
15232.291671740844,2180.0
15232.291734238057,5172.0
15232.29179673527,8024.0
15232.291859232482,9774.0
15232.291921729693,10758.0
15232.291984226906,10897.0
15232.292046724118,10000.0
15232.292109221331,7775.0
15232.292171718544,5199.0
15232.292234215756,3392.0
15232.292296712969,2923.0
15232.292359210182,3832.0
15232.292421707394,5703.0
15232.292484204607,7326.0
15232.292546701818,8476.0
15232.29260919903,8733.0
15232.292671696243,8577.0
15232.292734193456,8233.0
15232.292796690668,7873.0
15232.29285918788,7591.0
15232.292921685093,7629.0
15232.292984182306,8044.0
15232.293046679519,8664.0
15232.293109176731,9306.0
15232.293171673944,9590.0
15232.293234171157,8924.0
15232.293296668367,7319.0
15232.29335916558,5441.0
15232.293421662793,3898.0
15232.293484160005,2969.0
15232.293546657218,2763.0
15232.29360915443,3035.0
15232.293671651643,3488.0
15232.293734148856,3744.0
15232.293796646069,3711.0
15232.293859143281,3411.0
15232.293921640492,2897.0
15232.293984137705,2136.0
15232.294046634917,1156.0
15232.29410913213,551.0
15232.294171629343,460.0
15232.294234126555,533.0
15232.294296623768,430.0
15232.29435912098,-205.0
15232.294421618193,-1618.0
15232.294484115406,-3692.0
15232.294546612618,-6093.0
15232.294609109831,-8582.0
15232.294671607042,-11206.0
15232.294734104255,-14126.0
15232.294796601467,-17083.0
15232.29485909868,-19787.0
15232.294921595892,-22023.0
15232.294984093105,-23576.0
15232.295046590318,-24594.0
15232.29510908753,-25675.0
15232.295171584743,-27955.0
15232.295234081956,-31499.0
15232.295296579166,-31914.0
15232.29535907638,-26297.0
15232.295421573592,-16289.0
15232.295484070804,-5696.0
15232.295546568017,3224.0
15232.29560906523,9374.0
15232.295671562442,11832.0
15232.295734059655,11625.0
15232.295796556868,10027.0
15232.29585905408,7183.0
15232.295921551293,3566.0
15232.295984048505,370.0
15232.296046545716,-1074.0
15232.296109042929,-408.0
15232.296171540142,1531.0
15232.296234037354,2527.0
15232.296296534567,1944.0
15232.29635903178,211.0
15232.296421528992,-1248.0
15232.296484026205,-1365.0
15232.296546523417,578.0
15232.296609020628,3633.0
15232.29667151784,6809.0
15232.296734015054,9340.0
15232.296796512266,10751.0
15232.296859009479,11224.0
15232.296921506691,10804.0
15232.296984003904,9168.0
15232.297046501117,6514.0
15232.29710899833,3818.0
15232.297171495542,2664.0
15232.297233992755,3098.0
15232.297296489967,4930.0
15232.29735898718,7183.0
15232.29742148439,8692.0
15232.297483981603,9074.0
15232.297546478816,8585.0
15232.297608976029,7812.0
15232.297671473241,7273.0
15232.297733970454,7162.0
15232.297796467667,7507.0
15232.29785896488,8322.0
15232.297921462092,9311.0
15232.297983959303,9981.0
15232.298046456515,9961.0
15232.298108953728,9111.0
15232.29817145094,7394.0
15232.298233948153,5460.0
15232.298296445366,4091.0
15232.298358942578,3568.0
15232.298421439791,3612.0
15232.298483937004,4005.0
15232.298546434216,4370.0
15232.298608931429,4224.0
15232.298671428642,3535.0
15232.298733925854,2649.0
15232.298796423065,1809.0
15232.298858920278,1111.0
15232.29892141749,696.0
15232.298983914703,762.0
15232.299046411916,1296.0
15232.299108909128,1955.0
15232.299171406341,2115.0
15232.299233903554,1519.0
15232.299296400766,13.0
15232.299358897977,-2189.0
15232.29942139519,-4713.0
15232.299483892402,-6955.0
15232.299546389615,-8754.0
15232.299608886828,-10638.0
15232.29967138404,-12615.0
15232.299733881253,-14684.0
15232.299796378466,-16948.0
15232.299858875678,-19202.0
15232.29992137289,-21460.0
15232.299983870103,-23330.0
15232.300046367316,-24856.0
15232.300108864529,-26602.0
15232.30017136174,-29236.0
15232.300233858952,-30545.0
15232.300296356165,-27149.0
15232.300358853377,-19124.0
15232.30042135059,-9181.0
15232.300483847803,-59.0
15232.300546345015,6653.0
15232.300608842228,9858.0
15232.30067133944,10373.0
15232.300733836651,9306.0
15232.300796333864,7410.0
15232.300858831077,4897.0
15232.30092132829,2221.0
15232.300983825502,595.0
15232.301046322715,579.0
15232.301108819927,1951.0
15232.30117131714,2878.0
15232.301233814353,2579.0
15232.301296311565,961.0
15232.301358808778,-936.0
15232.30142130599,-1800.0
15232.301483803201,-674.0
15232.301546300414,2103.0
15232.301608797627,5119.0
15232.30167129484,7917.0
15232.301733792052,9591.0
15232.301796289265,10425.0
15232.301858786477,10326.0
15232.30192128369,9297.0
15232.301983780902,7241.0
15232.302046278115,5182.0
15232.302108775326,3847.0
15232.302171272539,3860.0
15232.302233769751,5080.0
15232.302296266964,7062.0
15232.302358764176,8436.0
15232.30242126139,8912.0
15232.302483758602,8603.0
15232.302546255814,8068.0
15232.302608753027,7547.0
15232.30267125024,7596.0
15232.302733747452,7752.0
15232.302796244665,8263.0
15232.302858741876,8787.0
15232.302921239088,9265.0
15232.302983736301,9291.0
15232.303046233514,8934.0
15232.303108730726,7867.0
15232.303171227939,6287.0
15232.303233725152,4824.0
15232.303296222364,4002.0
15232.303358719577,3809.0
15232.30342121679,3964.0
15232.303483714,4228.0
15232.303546211213,4309.0
15232.303608708426,3923.0
15232.303671205638,3263.0
15232.30373370285,2493.0
15232.303796200064,1871.0
15232.303858697276,1301.0
15232.303921194489,805.0
15232.303983691701,652.0
15232.304046188914,700.0
15232.304108686127,556.0
15232.30417118334,-72.0
15232.30423368055,-1122.0
15232.304296177763,-2664.0
15232.304358674975,-4348.0
15232.304421172188,-6053.0
15232.3044836694,-7654.0
15232.304546166613,-9521.0
15232.304608663826,-11851.0
15232.304671161039,-14599.0
15232.304733658251,-17423.0
15232.304796155464,-20056.0
