time,X_NOSE,Y_NOSE,Z_NOSE,visibility_NOSE,X_LEFT_EYE_INNER,Y_LEFT_EYE_INNER,Z_LEFT_EYE_INNER,visibility_LEFT_EYE_INNER,X_LEFT_EYE,Y_LEFT_EYE,Z_LEFT_EYE,visibility_LEFT_EYE,X_LEFT_EYE_OUTER,Y_LEFT_EYE_OUTER,Z_LEFT_EYE_OUTER,visibility_LEFT_EYE_OUTER,X_RIGHT_EYE_OUTER,Y_RIGHT_EYE_OUTER,Z_RIGHT_EYE_OUTER,visibility_RIGHT_EYE_OUTER,X_RIGHT_EYE,Y_RIGHT_EYE,Z_RIGHT_EYE,visibility_RIGHT_EYE,X_RIGHT_EYE_OUTER,Y_RIGHT_EYE_OUTER,Z_RIGHT_EYE_OUTER,visibility_RIGHT_EYE_OUTER,X_LEFT_EAR,Y_LEFT_EAR,Z_LEFT_EAR,visibility_LEFT_EAR,X_RIGHT_EAR,Y_RIGHT_EAR,Z_RIGHT_EAR,visibility_RIGHT_EAR,X_MOUTH_LEFT,Y_MOUTH_LEFT,Z_MOUTH_LEFT,visibility_MOUTH_LEFT,X_MOUTH_RIGHT,Y_MOUTH_RIGHT,Z_MOUTH_RIGHT,visibility_MOUTH_RIGHT,X_LEFT_SHOULDER,Y_LEFT_SHOULDER,Z_LEFT_SHOULDER,visibility_LEFT_SHOULDER,X_RIGHT_SHOULDER,Y_RIGHT_SHOULDER,Z_RIGHT_SHOULDER,visibility_RIGHT_SHOULDER,X_LEFT_ELBOW,Y_LEFT_ELBOW,Z_LEFT_ELBOW,visibility_LEFT_ELBOW,X_RIGHT_ELBOW,Y_RIGHT_ELBOW,Z_RIGHT_ELBOW,visibility_RIGHT_ELBOW,X_LEFT_WRIST,Y_LEFT_WRIST,Z_LEFT_WRIST,visibility_LEFT_WRIST,X_RIGHT_WRIST,Y_RIGHT_WRIST,Z_RIGHT_WRIST,visibility_RIGHT_WRIST,X_LEFT_PINKY,Y_LEFT_PINKY,Z_LEFT_PINKY,visibility_LEFT_PINKY,X_RIGHT_PINKY,Y_RIGHT_PINKY,Z_RIGHT_PINKY,visibility_RIGHT_PINKY,X_LEFT_INDEX,Y_LEFT_INDEX,Z_LEFT_INDEX,visibility_LEFT_INDEX,X_RIGHT_INDEX,Y_RIGHT_INDEX,Z_RIGHT_INDEX,visibility_RIGHT_INDEX,X_LEFT_THUMB,Y_LEFT_THUMB,Z_LEFT_THUMB,visibility_LEFT_THUMB,X_RIGHT_THUMB,Y_RIGHT_THUMB,Z_RIGHT_THUMB,visibility_RIGHT_THUMB,X_LEFT_HIP,Y_LEFT_HIP,Z_LEFT_HIP,visibility_LEFT_HIP,X_RIGHT_HIP,Y_RIGHT_HIP,Z_RIGHT_HIP,visibility_RIGHT_HIP,X_LEFT_KNEE,Y_LEFT_KNEE,Z_LEFT_KNEE,visibility_LEFT_KNEE,X_RIGHT_KNEE,Y_RIGHT_KNEE,Z_RIGHT_KNEE,visibility_RIGHT_KNEE,X_LEFT_ANKLE,Y_LEFT_ANKLE,Z_LEFT_ANKLE,visibility_LEFT_ANKLE,X_RIGHT_ANKLE,Y_RIGHT_ANKLE,Z_RIGHT_ANKLE,visibility_RIGHT_ANKLE,X_LEFT_HEEL,Y_LEFT_HEEL,Z_LEFT_HEEL,visibility_LEFT_HEEL,X_RIGHT_HEEL,Y_RIGHT_HEEL,Z_RIGHT_HEEL,visibility_RIGHT_HEEL,X_LEFT_FOOT_INDEX,Y_LEFT_FOOT_INDEX,Z_LEFT_FOOT_INDEX,visibility_LEFT_FOOT_INDEX,X_RIGHT_FOOT_INDEX,Y_RIGHT_FOOT_INDEX,Z_RIGHT_FOOT_INDEX,visibility_RIGHT_FOOT_INDEX
14276.2290019575,0.4643794894218445,0.275239497423172,-0.6538719534873962,0.9997656941413879,0.48021790385246277,0.25461044907569885,-0.6124199032783508,0.9995081424713135,0.49009913206100464,0.25442075729370117,-0.612653374671936,0.9994563460350037,0.500643789768219,0.25443774461746216,-0.6128111481666565,0.9994152784347534,0.44647806882858276,0.25425994396209717,-0.6214976906776428,0.999251663684845,0.43332675099372864,0.2539881765842438,-0.6215868592262268,0.9991949200630188,0.4210565686225891,0.25412601232528687,-0.6217207908630371,0.9991613626480103,0.5097318887710571,0.2607467770576477,-0.3175911605358124,0.9993855953216553,0.3981483578681946,0.2606963515281677,-0.3669340908527374,0.9986798167228699,0.4791194200515747,0.29800134897232056,-0.5391814708709717,0.9997590184211731,0.43900060653686523,0.29865142703056335,-0.553178071975708,0.9996504783630371,0.5723560452461243,0.3792235255241394,-0.12153682857751846,0.9998252987861633,0.32101404666900635,0.38347721099853516,-0.19881437718868256,0.9992720484733582,0.5981820821762085,0.5295296907424927,0.01494579203426838,0.9301658868789673,0.3026964068412781,0.5625395178794861,-0.46215328574180603,0.9547685384750366,0.6468595266342163,0.6531254649162292,-0.2104080766439438,0.9406870603561401,0.33422425389289856,0.44991496205329895,-1.059348225593567,0.9887435436248779,0.6615068316459656,0.694226861000061,-0.267724871635437,0.9009910821914673,0.3381371796131134,0.41907376050949097,-1.1670513153076172,0.9816895723342896,0.651005744934082,0.6968181133270264,-0.33789393305778503,0.9072312116622925,0.3274822533130646,0.3982800543308258,-1.186907410621643,0.9810793399810791,0.6410000324249268,0.6879602670669556,-0.24014006555080414,0.9119946360588074,0.3308640718460083,0.40509048104286194,-1.0772274732589722,0.973682165145874,0.5530388951301575,0.6503098011016846,0.040829066187143326,0.9978368878364563,0.4077915549278259,0.6626461148262024,-0.040901657193899155,0.9958257675170898,0.5492042303085327,0.8741716146469116,-0.10678981989622116,0.538887619972229,0.4212627708911896,0.8742287158966064,-0.09295055270195007,0.5230634808540344,0.5331772565841675,1.0516111850738525,0.43189942836761475,0.2538808584213257,0.4397493898868561,1.0514442920684814,0.38610586524009705,0.259146511554718,0.5168341398239136,1.0723799467086792,0.46771764755249023,0.22812259197235107,0.44496163725852966,1.0695756673812866,0.4212004244327545,0.13329391181468964,0.5700171589851379,1.1193909645080566,0.17461182177066803,0.21894435584545135,0.46122223138809204,1.1267608404159546,0.08161035925149918,0.21103772521018982
14292.895668624165,0.46012082695961,0.2773979902267456,-0.6389855146408081,0.9996185302734375,0.4773935079574585,0.25753331184387207,-0.6003302931785583,0.9992396831512451,0.4866466224193573,0.25734105706214905,-0.6006003618240356,0.9991859793663025,0.4974185824394226,0.2572302222251892,-0.6008075475692749,0.9991219639778137,0.4423183798789978,0.25634050369262695,-0.6070557832717896,0.9988191723823547,0.4297011196613312,0.2555766999721527,-0.6071440577507019,0.998731791973114,0.41802579164505005,0.25546619296073914,-0.6072896122932434,0.9986427426338196,0.5081499814987183,0.2623271942138672,-0.3149287700653076,0.9991905093193054,0.3976176381111145,0.26117196679115295,-0.352985143661499,0.9979628324508667,0.4766368567943573,0.29922232031822205,-0.5270554423332214,0.9996331930160522,0.43507739901542664,0.29945334792137146,-0.5378864407539368,0.9994152784347534,0.5752171277999878,0.37727656960487366,-0.13111712038516998,0.9997782111167908,0.3178938627243042,0.3832803964614868,-0.1805102825164795,0.998854398727417,0.5978149771690369,0.5280652046203613,0.007645988371223211,0.932597815990448,0.2997598946094513,0.5641130208969116,-0.4436328411102295,0.9391107559204102,0.6469380855560303,0.6550068855285645,-0.18448804318904877,0.936097264289856,0.33129528164863586,0.44408202171325684,-1.0232292413711548,0.986024796962738,0.6630972623825073,0.6959552764892578,-0.23519720137119293,0.8936992883682251,0.33593636751174927,0.4131467938423157,-1.1262487173080444,0.9775955677032471,0.6510648131370544,0.6984595060348511,-0.30556991696357727,0.9016703367233276,0.32562702894210815,0.39151111245155334,-1.1424543857574463,0.9769176244735718,0.6408631801605225,0.6892901659011841,-0.21307478845119476,0.908440351486206,0.3289033770561218,0.39917948842048645,-1.0394916534423828,0.9682039618492126,0.5546356439590454,0.6520437598228455,0.02822685055434704,0.9973854422569275,0.4054965674877167,0.6632142066955566,-0.028225403279066086,0.9946364760398865,0.5510039329528809,0.8715991973876953,-0.12298701703548431,0.5292884111404419,0.4203353822231293,0.870145320892334,-0.06753384321928024,0.494720995426178,0.5365397334098816,1.0528934001922607,0.4109906554222107,0.21120139956474304,0.4384676218032837,1.0477943420410156,0.40126436948776245,0.2255699783563614,0.5216189622879028,1.073684573173523,0.44699832797050476,0.20175689458847046,0.44668009877204895,1.066103458404541,0.43633249402046204,0.12275440990924835,0.5692268013954163,1.1200568675994873,0.16243726015090942,0.17424924671649933,0.44897258281707764,1.121384620666504,0.11259488016366959,0.1763961762189865
14309.562335290831,0.4597327411174774,0.27517396211624146,-0.7044805884361267,0.999727189540863,0.47723498940467834,0.25582587718963623,-0.6656765937805176,0.9994334578514099,0.4862542748451233,0.255633145570755,-0.665928065776825,0.9993977546691895,0.49702271819114685,0.25549715757369995,-0.666091799736023,0.9993237257003784,0.44186893105506897,0.2551456093788147,-0.6716057658195496,0.9991348385810852,0.4287865161895752,0.25466397404670715,-0.671738862991333,0.9990991353988647,0.41717860102653503,0.2541871964931488,-0.6719048619270325,0.9990203380584717,0.5072410106658936,0.26143866777420044,-0.3718967139720917,0.9993371367454529,0.39749875664711,0.2596585750579834,-0.40773510932922363,0.9984215497970581,0.47559529542922974,0.29804790019989014,-0.5894288420677185,0.9997504353523254,0.4344676434993744,0.29858070611953735,-0.5996490716934204,0.999616265296936,0.5769126415252686,0.37723904848098755,-0.17224425077438354,0.9998331069946289,0.31704622507095337,0.3840779662132263,-0.21742671728134155,0.9990813732147217,0.60158371925354,0.5288457870483398,-0.03334290534257889,0.9488834738731384,0.2973773777484894,0.5624352693557739,-0.48027437925338745,0.9491536021232605,0.6474974155426025,0.6572167873382568,-0.2557319402694702,0.9542948603630066,0.3222964406013489,0.4541226923465729,-1.0967037677764893,0.9890451431274414,0.6632961630821228,0.698708713054657,-0.3111203610897064,0.9185822606086731,0.32681336998939514,0.4221610426902771,-1.2051513195037842,0.9819789528846741,0.6525995135307312,0.7020685076713562,-0.38253161311149597,0.9248769283294678,0.3173789978027344,0.39986589550971985,-1.2221144437789917,0.9814302325248718,0.642195463180542,0.6913178563117981,-0.2847123444080353,0.9274353384971619,0.3205786943435669,0.40698137879371643,-1.1135263442993164,0.9738278985023499,0.5555588006973267,0.6519207954406738,0.03370396047830582,0.9975185394287109,0.40603184700012207,0.6632565855979919,-0.03383319824934006,0.9948890805244446,0.5547568202018738,0.8717961311340332,-0.10620403289794922,0.5268926024436951,0.42038172483444214,0.8698549270629883,-0.07176830619573593,0.5090969800949097,0.5416507720947266,1.0571929216384888,0.44741326570510864,0.22613294422626495,0.43087801337242126,1.0524351596832275,0.42306119203567505,0.23835666477680206,0.525787889957428,1.0780402421951294,0.48475757241249084,0.2107989639043808,0.4357190728187561,1.0699844360351562,0.4600672125816345,0.12350205332040787,0.5751186013221741,1.1256078481674194,0.18704327940940857,0.1919124573469162,0.4505090117454529,1.127374291419983,0.12038183957338333,0.1889519989490509
14326.229001957498,0.4673643410205841,0.2763829827308655,-0.720490038394928,0.9997244477272034,0.4827319383621216,0.25504812598228455,-0.681255578994751,0.9994500279426575,0.49328434467315674,0.2548271715641022,-0.6814935803413391,0.999398946762085,0.5028940439224243,0.25485777854919434,-0.6816641092300415,0.9993361830711365,0.44996604323387146,0.2549941837787628,-0.6908848285675049,0.9991600513458252,0.43623700737953186,0.25492584705352783,-0.691011369228363,0.9990999698638916,0.4241882860660553,0.2550938129425049,-0.6911683082580566,0.9990302324295044,0.5112500786781311,0.2609522342681885,-0.3840848207473755,0.999397873878479,0.399495005607605,0.2619015574455261,-0.4361497163772583,0.9985842704772949,0.48060062527656555,0.29818984866142273,-0.6035197377204895,0.9997450709342957,0.4412486255168915,0.2992193400859833,-0.6184595227241516,0.9996065497398376,0.5774511098861694,0.3767951726913452,-0.18000835180282593,0.9998306035995483,0.3176966905593872,0.38433927297592163,-0.248916894197464,0.9991523027420044,0.6002081632614136,0.529619574546814,-0.031027844175696373,0.9378584027290344,0.3039560914039612,0.5610476732254028,-0.5020788311958313,0.943884015083313,0.6462942361831665,0.6563520431518555,-0.24327926337718964,0.9408259987831116,0.3312077224254608,0.4503135681152344,-1.0878961086273193,0.986436665058136,0.6634899377822876,0.6971369981765747,-0.2963423728942871,0.9004441499710083,0.336300253868103,0.4209977984428406,-1.1922225952148438,0.9785540699958801,0.6528687477111816,0.701049268245697,-0.369326651096344,0.9078271389007568,0.3248928189277649,0.3991103172302246,-1.2131812572479248,0.9780330657958984,0.6420350670814514,0.6899952292442322,-0.2732521593570709,0.9131352305412292,0.32797276973724365,0.4062328040599823,-1.1058974266052246,0.969556450843811,0.553991973400116,0.6493604779243469,0.0335674025118351,0.9977368116378784,0.4039280414581299,0.6586657762527466,-0.03364241123199463,0.9956101775169373,0.5545186996459961,0.8663161993026733,-0.09502391517162323,0.5570093989372253,0.41928282380104065,0.8655309677124023,-0.06477134674787521,0.5256417989730835,0.5413835644721985,1.0475038290023804,0.45360267162323,0.24581816792488098,0.4345704913139343,1.0445544719696045,0.4228288531303406,0.26575180888175964,0.5260131359100342,1.068016767501831,0.49026426672935486,0.21924647688865662,0.44232040643692017,1.0627894401550293,0.45878031849861145,0.14117583632469177,0.5755537748336792,1.1153180599212646,0.19631555676460266,0.21001818776130676,0.4438769519329071,1.1184172630310059,0.12295536696910858,0.21441829204559326
14342.895668624164,0.46490561962127686,0.27505987882614136,-0.6962948441505432,0.999745786190033,0.4807177186012268,0.25415241718292236,-0.6559430360794067,0.999488115310669,0.491019070148468,0.25395601987838745,-0.6561921834945679,0.9994373917579651,0.5012931823730469,0.2539865970611572,-0.6563565731048584,0.9993775486946106,0.44701629877090454,0.25376948714256287,-0.6637002825737,0.9992108345031738,0.4333993196487427,0.2534894049167633,-0.6638138890266418,0.9991542100906372,0.4214118421077728,0.2536945641040802,-0.6639679074287415,0.9991051554679871,0.510595440864563,0.26048409938812256,-0.36190441250801086,0.9993984699249268,0.39883363246917725,0.26070114970207214,-0.4058474600315094,0.9985761642456055,0.480007141828537,0.2974412441253662,-0.5815907716751099,0.9997618794441223,0.43891385197639465,0.2979828417301178,-0.5941599607467651,0.9996269941329956,0.5776774883270264,0.37745949625968933,-0.170683354139328,0.9998351335525513,0.3171200752258301,0.38428980112075806,-0.22418373823165894,0.9991450309753418,0.6008673906326294,0.5287033319473267,-0.03786341845989227,0.9415007829666138,0.3020317554473877,0.5627743601799011,-0.48512962460517883,0.9474564790725708,0.6467311382293701,0.655926525592804,-0.25732964277267456,0.9459530711174011,0.3272075057029724,0.4536668062210083,-1.083653450012207,0.9882273077964783,0.6634663939476013,0.6970045566558838,-0.31248390674591064,0.9066813588142395,0.3320929706096649,0.4239712953567505,-1.1898410320281982,0.9810667037963867,0.6535255312919617,0.7010024785995483,-0.3821060061454773,0.9132656455039978,0.32246845960617065,0.40227243304252625,-1.2070810794830322,0.9804559946060181,0.6425753235816956,0.6900674700737,-0.2859819829463959,0.9180116653442383,0.324977308511734,0.4081141948699951,-1.100355863571167,0.9726324677467346,0.5535103678703308,0.6511868238449097,0.03218230977654457,0.9977453351020813,0.4043962359428406,0.6617395281791687,-0.03227407485246658,0.9954826831817627,0.5514703392982483,0.8715173006057739,-0.10627089440822601,0.5030507445335388,0.4187310039997101,0.8695125579833984,-0.07345174252986908,0.4894069731235504,0.541508138179779,1.04859459400177,0.44826188683509827,0.21074381470680237,0.432458758354187,1.0463669300079346,0.4204357862472534,0.23141488432884216,0.5264341831207275,1.069332480430603,0.48600059747695923,0.20254378020763397,0.43842777609825134,1.0639863014221191,0.45747458934783936,0.12529943883419037,0.5775201320648193,1.1153613328933716,0.19582702219486237,0.18567116558551788,0.44868406653404236,1.1208386421203613,0.12336400151252747,0.1854219287633896
14359.56233529083,0.46408408880233765,0.2746027410030365,-0.6883209943771362,0.9997530579566956,0.48028433322906494,0.2540886104106903,-0.6485169529914856,0.9995027780532837,0.49045073986053467,0.25393879413604736,-0.648759126663208,0.9994592070579529,0.500767707824707,0.25404834747314453,-0.6489210724830627,0.9994188547134399,0.4468078315258026,0.25408634543418884,-0.6568197011947632,0.9992145299911499,0.4337725341320038,0.25397661328315735,-0.6569344997406006,0.9991457462310791,0.4218834340572357,0.2542000114917755,-0.6570819616317749,0.9990862607955933,0.5099985599517822,0.2607601284980774,-0.3579784035682678,0.9994282126426697,0.3988562822341919,0.26124221086502075,-0.4042820930480957,0.9985004663467407,0.47888362407684326,0.29673823714256287,-0.5749403834342957,0.9997667670249939,0.4385247230529785,0.2970488667488098,-0.5881791710853577,0.9996111989021301,0.578626275062561,0.3775586187839508,-0.16973577439785004,0.9998492002487183,0.3168809413909912,0.3850819766521454,-0.22898060083389282,0.9991685152053833,0.5996008515357971,0.528075635433197,-0.04189350828528404,0.9410237073898315,0.3060299754142761,0.5593511462211609,-0.489303857088089,0.9407157897949219,0.6455919742584229,0.6543586254119873,-0.26114535331726074,0.9455685019493103,0.3281843662261963,0.45269739627838135,-1.0816556215286255,0.986060619354248,0.663299560546875,0.6947259902954102,-0.3164968192577362,0.9076114892959595,0.3337203562259674,0.4241572916507721,-1.1869536638259888,0.9784495234489441,0.6527670621871948,0.6982459425926208,-0.38635432720184326,0.914121150970459,0.3232710659503937,0.40209323167800903,-1.2071784734725952,0.9778448343276978,0.641571044921875,0.6881040334701538,-0.2900758981704712,0.9189320206642151,0.32600539922714233,0.4083620011806488,-1.0999176502227783,0.9695974588394165,0.554229199886322,0.647808313369751,0.03259151801466942,0.9977651834487915,0.4047336280345917,0.6568233370780945,-0.03267519548535347,0.9956477284431458,0.5518901348114014,0.8660793304443359,-0.09916022419929504,0.5023543834686279,0.41655632853507996,0.8643735647201538,-0.07805383205413818,0.4900219738483429,0.5430583953857422,1.0437626838684082,0.4314069151878357,0.2204827219247818,0.4349879026412964,1.0434789657592773,0.39432597160339355,0.23648624122142792,0.5286707282066345,1.064339518547058,0.46673324704170227,0.20098087191581726,0.4412940442562103,1.0612341165542603,0.42899271845817566,0.12482710182666779,0.5787440538406372,1.1102491617202759,0.1784408837556839,0.19383247196674347,0.4500716030597687,1.1178629398345947,0.09724847227334976,0.19015121459960938
14376.229001957496,0.4677865207195282,0.27435001730918884,-0.7248011827468872,0.9997461438179016,0.48239243030548096,0.2530023157596588,-0.6835466027259827,0.9994926452636719,0.4921075105667114,0.2527332603931427,-0.683781623840332,0.9994407296180725,0.5022647380828857,0.252692848443985,-0.6839263439178467,0.9993846416473389,0.44958242774009705,0.2532786428928375,-0.6930257678031921,0.9992209672927856,0.43559616804122925,0.2532474398612976,-0.6931667923927307,0.999169111251831,0.4231090843677521,0.2536138892173767,-0.6933349967002869,0.9991077780723572,0.5104362368583679,0.25931915640830994,-0.3804645538330078,0.9993821382522583,0.39973658323287964,0.2603603005409241,-0.43307414650917053,0.9985640645027161,0.48128026723861694,0.29679322242736816,-0.6066452264785767,0.9997647404670715,0.4417306184768677,0.2983919382095337,-0.6217009425163269,0.9996389150619507,0.5768759846687317,0.3774045705795288,-0.17618374526500702,0.9998347759246826,0.31692421436309814,0.38267648220062256,-0.24970442056655884,0.9991639852523804,0.6001930832862854,0.5283873677253723,-0.03547324985265732,0.9405645132064819,0.3049813508987427,0.5614336729049683,-0.5145357847213745,0.9465935826301575,0.6469460725784302,0.656436562538147,-0.26252269744873047,0.947045087814331,0.32548826932907104,0.45492056012153625,-1.123960018157959,0.9861404895782471,0.6638873815536499,0.6976743936538696,-0.3199058771133423,0.9081655740737915,0.32926633954048157,0.425093412399292,-1.2318003177642822,0.9781965017318726,0.6531626582145691,0.7013562321662903,-0.39065444469451904,0.914831817150116,0.31954336166381836,0.4029078781604767,-1.2533501386642456,0.9776051640510559,0.6421686410903931,0.6905054450035095,-0.29186463356018066,0.9184536337852478,0.3225046396255493,0.40873008966445923,-1.1425129175186157,0.9689527750015259,0.555280327796936,0.651530921459198,0.04227789118885994,0.9975282549858093,0.4058525860309601,0.6622248888015747,-0.0423758402466774,0.9951190948486328,0.5526441335678101,0.8685815334320068,-0.09943809360265732,0.4870154857635498,0.41973602771759033,0.8676673769950867,-0.08595386892557144,0.4748190939426422,0.5406217575073242,1.0486899614334106,0.4560624957084656,0.20818015933036804,0.42985114455223083,1.0484001636505127,0.4136960208415985,0.22001436352729797,0.524604856967926,1.069793701171875,0.4934999346733093,0.2065507173538208,0.43272754549980164,1.066192626953125,0.45057258009910583,0.11738548427820206,0.579175591468811,1.1149461269378662,0.19717049598693848,0.19004163146018982,0.45442312955856323,1.1225943565368652,0.10588186234235764,0.17947949469089508
14392.895668624162,0.46454381942749023,0.2743837833404541,-0.713325560092926,0.9997090697288513,0.4800959825515747,0.2538127303123474,-0.6744797825813293,0.9994118213653564,0.49016714096069336,0.25367894768714905,-0.6747178435325623,0.9993595480918884,0.5005441308021545,0.253751277923584,-0.6748851537704468,0.999300479888916,0.44697749614715576,0.2532479465007782,-0.6823586821556091,0.9990992546081543,0.43362098932266235,0.2529545724391937,-0.6824881434440613,0.9990319013595581,0.42171531915664673,0.25308969616889954,-0.6826632618904114,0.9989651441574097,0.5094769597053528,0.2601066529750824,-0.38051486015319824,0.999302864074707,0.3991020917892456,0.2599940598011017,-0.4245077669620514,0.9983417987823486,0.4790758788585663,0.29665806889533997,-0.5980072617530823,0.9997285008430481,0.4389292895793915,0.2968948781490326,-0.6105865240097046,0.9995892643928528,0.5783786177635193,0.3784024715423584,-0.17746074497699738,0.9998109936714172,0.3182682693004608,0.38394877314567566,-0.2401309609413147,0.9991607666015625,0.5979737043380737,0.5307140350341797,-0.036542974412441254,0.9370872378349304,0.3030494451522827,0.5613463521003723,-0.4915916919708252,0.9482829570770264,0.646726131439209,0.6575043201446533,-0.260536253452301,0.9426177740097046,0.32871097326278687,0.4514932334423065,-1.0847352743148804,0.9874303340911865,0.6631993651390076,0.6978179812431335,-0.31774356961250305,0.9018532633781433,0.3316114544868469,0.4219837784767151,-1.1905817985534668,0.9796940684318542,0.6540008187294006,0.701086699962616,-0.3897780478000641,0.9095529913902283,0.32173264026641846,0.40089210867881775,-1.2112209796905518,0.979180634021759,0.6430894136428833,0.6907190084457397,-0.29047343134880066,0.913837730884552,0.3253968358039856,0.4074344336986542,-1.1026654243469238,0.9709095358848572,0.5529261827468872,0.6514337658882141,0.040187008678913116,0.9974731802940369,0.4041573107242584,0.6613088250160217,-0.04029016196727753,0.9951619505882263,0.554347813129425,0.8683655261993408,-0.10930522531270981,0.5234289169311523,0.4198523163795471,0.8680158853530884,-0.08067246526479721,0.5172051191329956,0.5411501526832581,1.0508108139038086,0.45032283663749695,0.22698809206485748,0.42784497141838074,1.0483171939849854,0.4188850522041321,0.24520379304885864,0.5247453451156616,1.0716170072555542,0.48836958408355713,0.21334052085876465,0.43224623799324036,1.0662648677825928,0.45610538125038147,0.12455923110246658,0.5781853795051575,1.118210792541504,0.19069904088974,0.19682911038398743,0.4477742612361908,1.1223992109298706,0.113591767847538,0.19552448391914368
14409.562335290828,0.4661028981208801,0.2744784951210022,-0.72361820936203,0.9997493624687195,0.4809918701648712,0.2536267042160034,-0.6825841069221497,0.9994854927062988,0.49063655734062195,0.25346165895462036,-0.6828173995018005,0.9994311928749084,0.5010698437690735,0.25351640582084656,-0.6829572319984436,0.9993626475334167,0.4481450915336609,0.2533271610736847,-0.6912031173706055,0.9992208480834961,0.4343636929988861,0.2530422508716583,-0.6913478374481201,0.9991744160652161,0.4221939146518707,0.25323256850242615,-0.6915183663368225,0.9991162419319153,0.5096916556358337,0.26003721356391907,-0.3806474506855011,0.9993783235549927,0.39922192692756653,0.25983405113220215,-0.4291253685951233,0.9986129999160767,0.48053088784217834,0.2965943217277527,-0.6058921217918396,0.9997668862342834,0.44002431631088257,0.2973420023918152,-0.6197525262832642,0.9996500015258789,0.5775818824768066,0.37751248478889465,-0.1756325364112854,0.9998325109481812,0.31667765974998474,0.38309139013290405,-0.24340945482254028,0.9992209672927856,0.6007009744644165,0.5297038555145264,-0.03184083476662636,0.9431812763214111,0.3036818504333496,0.5621150732040405,-0.5043483972549438,0.9515285491943359,0.6480585932731628,0.6565804481506348,-0.2558482587337494,0.9509762525558472,0.32545745372772217,0.45473554730415344,-1.1108460426330566,0.9884108304977417,0.6648786067962646,0.6981282830238342,-0.31203368306159973,0.91388338804245,0.33019542694091797,0.42551496624946594,-1.2183817625045776,0.981249988079071,0.654976487159729,0.7014670968055725,-0.3838808834552765,0.9200583696365356,0.3206082582473755,0.4029166102409363,-1.2381707429885864,0.9807028770446777,0.6440747380256653,0.6907528042793274,-0.2854281961917877,0.9233623147010803,0.32333189249038696,0.4087574779987335,-1.128519058227539,0.9728954434394836,0.5541285276412964,0.6534740328788757,0.04030729457736015,0.9978163242340088,0.4056169390678406,0.6636918187141418,-0.04043518751859665,0.9958611130714417,0.5541046857833862,0.8709893822669983,-0.09615400433540344,0.5154221653938293,0.4205623269081116,0.869062066078186,-0.07685324549674988,0.505649209022522,0.539912760257721,1.0506579875946045,0.4752962291240692,0.22191672027111053,0.42773330211639404,1.0501577854156494,0.43424656987190247,0.24577225744724274,0.52325838804245,1.0715012550354004,0.5144284963607788,0.21690350770950317,0.4319540560245514,1.0680009126663208,0.47242191433906555,0.13035164773464203,0.5785783529281616,1.1177457571029663,0.21861562132835388,0.20211105048656464,0.44789281487464905,1.1244895458221436,0.12901298701763153,0.20190219581127167
14426.229001957494,0.46189457178115845,0.27549588680267334,-0.6498090028762817,0.9997147917747498,0.47845757007598877,0.2546502351760864,-0.6094675660133362,0.9994350075721741,0.48747214674949646,0.254606693983078,-0.6097316741943359,0.9994020462036133,0.4982813894748688,0.25479498505592346,-0.6099278330802917,0.9993559718132019,0.4443815350532532,0.2541321814060211,-0.6175922751426697,0.999092698097229,0.43157073855400085,0.25370514392852783,-0.6176910996437073,0.9990144968032837,0.4197600781917572,0.2539359927177429,-0.6178416013717651,0.9989182949066162,0.5086874961853027,0.2611244022846222,-0.319839745759964,0.9993853569030762,0.39827489852905273,0.2601475715637207,-0.3647081255912781,0.9983262419700623,0.47802063822746277,0.29783183336257935,-0.5369033813476562,0.9997425675392151,0.4369152784347534,0.2978619337081909,-0.5497145056724548,0.9995669722557068,0.5754132866859436,0.37915852665901184,-0.1361740082502365,0.9998376369476318,0.317149817943573,0.3839494585990906,-0.19483348727226257,0.9990355968475342,0.5970162749290466,0.5304502844810486,-0.005936147645115852,0.9422535300254822,0.30500221252441406,0.5594549775123596,-0.4540039002895355,0.9384327530860901,0.647895097732544,0.6566653847694397,-0.22074048221111298,0.946558952331543,0.32760244607925415,0.4480375349521637,-1.0378880500793457,0.9864051342010498,0.6645276546478271,0.6966307759284973,-0.2762162685394287,0.9089308977127075,0.3341708779335022,0.41836944222450256,-1.1418589353561401,0.978613555431366,0.6547399759292603,0.6998724341392517,-0.34676557779312134,0.9165489673614502,0.3238130211830139,0.39638781547546387,-1.161942481994629,0.9781275987625122,0.6438288688659668,0.6898483633995056,-0.25020143389701843,0.9213680028915405,0.3269932270050049,0.4035804271697998,-1.055985689163208,0.9699996113777161,0.55267733335495,0.6510047912597656,0.03338679298758507,0.9975669384002686,0.4035511314868927,0.6614255905151367,-0.03340570628643036,0.9948107004165649,0.5555302500724792,0.8679988980293274,-0.1356184184551239,0.5510431528091431,0.41860780119895935,0.8691351413726807,-0.07514236867427826,0.49286943674087524,0.5404322743415833,1.05059814453125,0.4037306010723114,0.22520579397678375,0.4335133731365204,1.0462138652801514,0.4163786470890045,0.22492749989032745,0.525728702545166,1.0713694095611572,0.4399678111076355,0.2046019583940506,0.44056397676467896,1.0641252994537354,0.45303797721862793,0.11779894679784775,0.5726975798606873,1.118105173110962,0.14862290024757385,0.18389125168323517,0.4457680881023407,1.1198419332504272,0.12140630185604095,0.17547975480556488
14442.89566862416,0.4660486578941345,0.2743147313594818,-0.7032730579376221,0.9997512698173523,0.4810713827610016,0.25303372740745544,-0.6638708710670471,0.9994971752166748,0.4904915988445282,0.25291332602500916,-0.6641006469726562,0.9994589686393738,0.5012879371643066,0.2530612349510193,-0.6642535328865051,0.9993999004364014,0.4471977651119232,0.25319796800613403,-0.6719187498092651,0.9992361068725586,0.43368467688560486,0.25325044989585876,-0.6720372438430786,0.9991874098777771,0.4215182960033417,0.2537906765937805,-0.6722065806388855,0.9991219639778137,0.5104923844337463,0.26039883494377136,-0.3707919716835022,0.9994008541107178,0.39941534399986267,0.26081496477127075,-0.41622501611709595,0.9986056685447693,0.4814368486404419,0.2971568703651428,-0.5887876152992249,0.9997671246528625,0.4400046467781067,0.2981579899787903,-0.6016757488250732,0.9996458292007446,0.5779350399971008,0.3783355951309204,-0.17233462631702423,0.9998364448547363,0.3181973099708557,0.3837587237358093,-0.23509977757930756,0.9991810917854309,0.5990836024284363,0.529028594493866,-0.03319608420133591,0.9442710280418396,0.30329132080078125,0.5614604949951172,-0.49627426266670227,0.9460609555244446,0.6485028862953186,0.6564446091651917,-0.257538378238678,0.9520625472068787,0.32234686613082886,0.4550347924232483,-1.0982834100723267,0.9876453280448914,0.6649026870727539,0.697170078754425,-0.31342819333076477,0.9167188405990601,0.3277781903743744,0.42597633600234985,-1.2037667036056519,0.9803721308708191,0.6539403796195984,0.7001795172691345,-0.38456135988235474,0.9230186939239502,0.3186289072036743,0.4027369022369385,-1.2242014408111572,0.9798021912574768,0.6429165005683899,0.6901607513427734,-0.28687483072280884,0.9261791110038757,0.321506142616272,0.40896499156951904,-1.116215467453003,0.972004771232605,0.5534335374832153,0.6510011553764343,0.03909990191459656,0.9974274039268494,0.40485310554504395,0.6607909798622131,-0.039190873503685,0.9951091408729553,0.5545275807380676,0.8664001822471619,-0.10870453715324402,0.5359168648719788,0.42001640796661377,0.8669562339782715,-0.08070255070924759,0.505703330039978,0.5397647023200989,1.049592137336731,0.43255025148391724,0.2362395077943802,0.42957279086112976,1.0472784042358398,0.4128374755382538,0.2388584166765213,0.5240776538848877,1.0703456401824951,0.4682959318161011,0.21733829379081726,0.43432044982910156,1.0650163888931274,0.44919368624687195,0.12484218925237656,0.5749984979629517,1.117361068725586,0.17309768497943878,0.1972411572933197,0.4463019073009491,1.1220531463623047,0.10973160713911057,0.1877550184726715
14459.562335290826,0.4649443030357361,0.27640998363494873,-0.7057473063468933,0.9997797608375549,0.4810563921928406,0.25660648941993713,-0.6675703525543213,0.9995310306549072,0.49030765891075134,0.2562728226184845,-0.6677969098091125,0.999480664730072,0.5009291172027588,0.2561222016811371,-0.6679490208625793,0.9994471669197083,0.4465694725513458,0.2560434639453888,-0.6757043600082397,0.9992998838424683,0.4330563545227051,0.25547465682029724,-0.6758338809013367,0.9992396831512451,0.42082375288009644,0.2550576627254486,-0.6759725213050842,0.9991986155509949,0.5098415613174438,0.2624514102935791,-0.38052546977996826,0.9993698000907898,0.39940646290779114,0.2608056664466858,-0.4264862537384033,0.9986147880554199,0.47997263073921204,0.2991279363632202,-0.5933849215507507,0.9997617602348328,0.43879327178001404,0.30035433173179626,-0.6063870191574097,0.9996449947357178,0.5773183107376099,0.3776162564754486,-0.1829209178686142,0.9998418092727661,0.3176333010196686,0.385312020778656,-0.2443520873785019,0.9992904663085938,0.6005218029022217,0.5296693444252014,-0.045954663306474686,0.9415321350097656,0.30203065276145935,0.5632224082946777,-0.49331676959991455,0.9510634541511536,0.6491093635559082,0.6568493843078613,-0.2682357132434845,0.9494128227233887,0.3258046507835388,0.44908449053764343,-1.0805473327636719,0.9886632561683655,0.6660407781600952,0.6987202763557434,-0.32490959763526917,0.9115243554115295,0.33147522807121277,0.41651543974876404,-1.1844379901885986,0.981532096862793,0.655598521232605,0.70208740234375,-0.3944113552570343,0.9178223609924316,0.32181647419929504,0.39536353945732117,-1.2035578489303589,0.9808705449104309,0.6447231769561768,0.6912544965744019,-0.29709941148757935,0.9218616485595703,0.3248456120491028,0.40261802077293396,-1.0974892377853394,0.9732378125190735,0.5539022088050842,0.6472715139389038,0.03979622945189476,0.9975827932357788,0.4077278673648834,0.659929096698761,-0.03991878405213356,0.9954220652580261,0.5534928441047668,0.8670135140419006,-0.08578615635633469,0.4908738434314728,0.4246329963207245,0.8672962188720703,-0.075675368309021,0.49856165051460266,0.5411280989646912,1.0474483966827393,0.42740482091903687,0.22693729400634766,0.43521246314048767,1.0447272062301636,0.3952229917049408,0.22989337146282196,0.524994432926178,1.0687626600265503,0.4610305726528168,0.21389152109622955,0.4391411542892456,1.0619232654571533,0.43008530139923096,0.11775277554988861,0.5812968015670776,1.1130907535552979,0.17184174060821533,0.19647356867790222,0.457114040851593,1.1201496124267578,0.09779441356658936,0.18320219218730927
14476.229001957492,0.46330198645591736,0.2714425325393677,-0.6556820869445801,0.9997269511222839,0.47986921668052673,0.2503543198108673,-0.6132473945617676,0.9994630217552185,0.48871079087257385,0.25037676095962524,-0.6134979128837585,0.9994088411331177,0.49945592880249023,0.2507821023464203,-0.6136465668678284,0.9993680119514465,0.44606468081474304,0.2503128945827484,-0.6226131319999695,0.9991932511329651,0.4331871569156647,0.25021740794181824,-0.6227429509162903,0.9991401433944702,0.4216236472129822,0.25067397952079773,-0.6229156851768494,0.9990672469139099,0.5089073777198792,0.25879061222076416,-0.3206885755062103,0.9992832541465759,0.39944785833358765,0.25910547375679016,-0.3730742037296295,0.9984708428382874,0.47912344336509705,0.2942017912864685,-0.5433897376060486,0.9997463822364807,0.4384661018848419,0.29372408986091614,-0.5581422448158264,0.9996216297149658,0.5730512738227844,0.37979522347450256,-0.12849734723567963,0.9998192191123962,0.31804731488227844,0.3858051002025604,-0.21340210735797882,0.9991227984428406,0.5977060198783875,0.5281062126159668,0.004248815588653088,0.9382002353668213,0.3036051392555237,0.5606200695037842,-0.4849371314048767,0.9470065832138062,0.6504040360450745,0.6538435220718384,-0.224272221326828,0.956507682800293,0.32148903608322144,0.4524909257888794,-1.081378698348999,0.9882804155349731,0.6675294637680054,0.6946850419044495,-0.2812895178794861,0.9241664409637451,0.32770881056785583,0.4219990372657776,-1.186219573020935,0.9809601306915283,0.6558682918548584,0.6971134543418884,-0.34977036714553833,0.930786669254303,0.3182828426361084,0.40040767192840576,-1.207298994064331,0.980478823184967,0.6451327800750732,0.6880923509597778,-0.2531779110431671,0.9324634671211243,0.3210389018058777,0.40708979964256287,-1.0995029211044312,0.9733878970146179,0.5523470044136047,0.6493805050849915,0.051969014108181,0.9975957274436951,0.4080536365509033,0.6616620421409607,-0.05212901532649994,0.9953781366348267,0.5545090436935425,0.8672686815261841,-0.09522418677806854,0.4738222658634186,0.42078760266304016,0.8677846789360046,-0.09841747581958771,0.45694518089294434,0.541357159614563,1.0546702146530151,0.4410155713558197,0.20440395176410675,0.4269222319126129,1.0513572692871094,0.3936006426811218,0.19726009666919708,0.5235565304756165,1.0759812593460083,0.47680366039276123,0.2010475993156433,0.428347110748291,1.0688867568969727,0.43006575107574463,0.09645050764083862,0.5856723189353943,1.1198318004608154,0.18470025062561035,0.17262326180934906,0.4533539116382599,1.1250169277191162,0.08943156152963638,0.1561727076768875
14492.895668624158,0.46176114678382874,0.2714264392852783,-0.6205141544342041,0.9997603297233582,0.4790031313896179,0.2502942681312561,-0.5765134692192078,0.9995385408401489,0.48778435587882996,0.2503672242164612,-0.5767908096313477,0.9995187520980835,0.4985247850418091,0.2508317530155182,-0.5770034193992615,0.9994812607765198,0.4449768364429474,0.24998725950717926,-0.586239755153656,0.9992719292640686,0.4324783682823181,0.24966928362846375,-0.5863328576087952,0.9992212057113647,0.4209545850753784,0.24996128678321838,-0.5864621996879578,0.9991267323493958,0.5086460113525391,0.25862833857536316,-0.28248873353004456,0.9994863271713257,0.39903342723846436,0.258322536945343,-0.3350350856781006,0.998721182346344,0.47792214155197144,0.29447177052497864,-0.5073836445808411,0.999790370464325,0.43734604120254517,0.29373976588249207,-0.5223055481910706,0.9996585845947266,0.5710169076919556,0.3797064423561096,-0.09870854765176773,0.9998433589935303,0.317760705947876,0.386387437582016,-0.16925008594989777,0.9989615678787231,0.5990949869155884,0.5299001932144165,0.0414254330098629,0.9430964589118958,0.30518582463264465,0.5629822015762329,-0.42943084239959717,0.9412475228309631,0.6499336361885071,0.6544493436813354,-0.16718560457229614,0.9550034403800964,0.3302515745162964,0.4518047273159027,-1.0203447341918945,0.9881243109703064,0.6670621633529663,0.6956382989883423,-0.22295625507831573,0.9228824973106384,0.33570340275764465,0.4194023311138153,-1.125937819480896,0.9808070063591003,0.6584268808364868,0.6980646252632141,-0.2946234941482544,0.9297267198562622,0.324644535779953,0.39842796325683594,-1.1466405391693115,0.9803217053413391,0.6477640271186829,0.6892095804214478,-0.19714495539665222,0.9324462413787842,0.3278365731239319,0.4060806930065155,-1.0386412143707275,0.973005473613739,0.5527084469795227,0.6516162157058716,0.03968971595168114,0.9979294538497925,0.40618273615837097,0.6648194789886475,-0.03969043865799904,0.9952333569526672,0.5542411208152771,0.8733774423599243,-0.14608518779277802,0.6476593017578125,0.4176294207572937,0.8760020732879639,-0.07576018571853638,0.549135148525238,0.5403112173080444,1.0596985816955566,0.4023554027080536,0.2713306248188019,0.4321529269218445,1.0504885911941528,0.44783756136894226,0.2397012561559677,0.5236455798149109,1.0811141729354858,0.438594788312912,0.23025813698768616,0.4390212297439575,1.0682810544967651,0.48731932044029236,0.11550074070692062,0.576654851436615,1.1264376640319824,0.14132139086723328,0.20294702053070068,0.44521060585975647,1.123790979385376,0.15414254367351532,0.18355435132980347
14509.562335290824,0.461288183927536,0.2726544737815857,-0.6066989302635193,0.9997581839561462,0.47866472601890564,0.2513963580131531,-0.563212513923645,0.9995137453079224,0.487299382686615,0.25141623616218567,-0.5634716153144836,0.9994780421257019,0.4979623556137085,0.2517973482608795,-0.5636476874351501,0.9994532465934753,0.4443463087081909,0.2512364983558655,-0.5716373324394226,0.9992351531982422,0.4321287274360657,0.2509532570838928,-0.5717130303382874,0.9991661310195923,0.42024773359298706,0.2514360547065735,-0.5718424916267395,0.9991156458854675,0.5085995197296143,0.2595403492450714,-0.277308851480484,0.9994055032730103,0.3989256024360657,0.25947996973991394,-0.3236708641052246,0.9984720349311829,0.47764167189598083,0.2961781322956085,-0.49729689955711365,0.9997684359550476,0.4366084933280945,0.2955936789512634,-0.5104012489318848,0.9996272325515747,0.5693410038948059,0.38115444779396057,-0.10957948118448257,0.9998384714126587,0.31764423847198486,0.38678428530693054,-0.1632096916437149,0.9990234375,0.5972576141357422,0.5311490297317505,0.0045536356046795845,0.9431087374687195,0.30534207820892334,0.5640473961830139,-0.4262089729309082,0.945934534072876,0.6487013101577759,0.6557373404502869,-0.2237279862165451,0.9533650875091553,0.32686561346054077,0.4516410231590271,-1.0160083770751953,0.9891533255577087,0.6662763357162476,0.6979987025260925,-0.2826101779937744,0.9192080497741699,0.3342258334159851,0.4210675358772278,-1.1212852001190186,0.9821850657463074,0.6562028527259827,0.7009058594703674,-0.34993425011634827,0.9251487851142883,0.3235432803630829,0.39942190051078796,-1.1391445398330688,0.9815929532051086,0.6452906131744385,0.6914670467376709,-0.2523778975009918,0.9289430975914001,0.32625773549079895,0.4069514274597168,-1.0331289768218994,0.9746665358543396,0.5509977340698242,0.6518025994300842,0.03443703427910805,0.9976713061332703,0.4062420725822449,0.665020227432251,-0.03453686833381653,0.9951059818267822,0.5527216196060181,0.8741440773010254,-0.13715781271457672,0.5582308173179626,0.41991478204727173,0.8750780820846558,-0.09199293702840805,0.5041850805282593,0.5361046195030212,1.056077241897583,0.3988032042980194,0.24101316928863525,0.44022834300994873,1.052631139755249,0.3903321623802185,0.23359626531600952,0.5205766558647156,1.0765178203582764,0.4341152310371399,0.2026633322238922,0.44653749465942383,1.070354700088501,0.4258747100830078,0.11467444151639938,0.5691709518432617,1.1245781183242798,0.14155228435993195,0.19418594241142273,0.457507461309433,1.1274787187576294,0.0934290811419487,0.1860228180885315
14526.22900195749,0.46744123101234436,0.2717112898826599,-0.5917021036148071,0.9997383952140808,0.481473445892334,0.2513711750507355,-0.5473338961601257,0.9995195865631104,0.4908207058906555,0.25100845098495483,-0.5476066470146179,0.999488115310669,0.5008406639099121,0.25095176696777344,-0.5478072166442871,0.9994632601737976,0.4476272463798523,0.25150245428085327,-0.5568530559539795,0.9992020726203918,0.43432173132896423,0.25143200159072876,-0.556893527507782,0.9991198182106018,0.422868013381958,0.25158247351646423,-0.5570197701454163,0.9990357160568237,0.5088332295417786,0.2579217851161957,-0.2578619122505188,0.9994710087776184,0.39910760521888733,0.26051563024520874,-0.3091903626918793,0.9985394477844238,0.4819088280200958,0.29453232884407043,-0.4810248613357544,0.999757707118988,0.442465603351593,0.2945675849914551,-0.49553972482681274,0.9995936751365662,0.5703479647636414,0.38283222913742065,-0.08787289261817932,0.9998201727867126,0.3212842643260956,0.3852149546146393,-0.1580558717250824,0.9987071752548218,0.5947206616401672,0.5338948965072632,0.03541523963212967,0.9342063665390015,0.29802435636520386,0.5601111054420471,-0.4342798590660095,0.9403415322303772,0.6480762362480164,0.6563955545425415,-0.16860826313495636,0.9504768252372742,0.3245517313480377,0.4429554045200348,-1.0139762163162231,0.9862279295921326,0.6640713810920715,0.7004543542861938,-0.22315756976604462,0.9160380363464355,0.3328653573989868,0.4139295518398285,-1.1176836490631104,0.9782285094261169,0.6561619639396667,0.7029948234558105,-0.2914595603942871,0.9225262999534607,0.32368749380111694,0.3923764228820801,-1.137620449066162,0.97775799036026,0.6457124352455139,0.6932084560394287,-0.1974639743566513,0.9268299341201782,0.32649853825569153,0.4005510210990906,-1.0323885679244995,0.9701606035232544,0.5488088130950928,0.6542630791664124,0.03528475761413574,0.9977974891662598,0.4038468599319458,0.6667661070823669,-0.035242509096860886,0.9949294328689575,0.5487951636314392,0.8766871690750122,-0.13389143347740173,0.5817916393280029,0.4185032844543457,0.8753107786178589,-0.08311834186315536,0.49544551968574524,0.5363774299621582,1.0570958852767944,0.3887384235858917,0.24187451601028442,0.43740445375442505,1.0510958433151245,0.39535173773765564,0.2193327397108078,0.5205970406532288,1.0781959295272827,0.42261970043182373,0.2126695215702057,0.4451805055141449,1.0695688724517822,0.43079614639282227,0.1129661500453949,0.5702767372131348,1.1238971948623657,0.13225694000720978,0.18735291063785553,0.4493085741996765,1.1237056255340576,0.10197260230779648,0.17187105119228363
14542.895668624156,0.46690136194229126,0.27275514602661133,-0.6074971556663513,0.9998295307159424,0.482075959444046,0.25196734070777893,-0.5639939904212952,0.9996850490570068,0.49139976501464844,0.2517615556716919,-0.5642560720443726,0.9996591806411743,0.5020171999931335,0.2518356442451477,-0.564460813999176,0.9996391534805298,0.4483269453048706,0.2518364489078522,-0.5752769708633423,0.9995115995407104,0.4350360035896301,0.2515968382358551,-0.5753389596939087,0.9994634985923767,0.42325207591056824,0.2516837418079376,-0.5754294395446777,0.999414324760437,0.5106056928634644,0.2587471008300781,-0.2739987075328827,0.9996200799942017,0.39876604080200195,0.2599774897098541,-0.3347970247268677,0.9991651773452759,0.48106005787849426,0.29501840472221375,-0.4960862994194031,0.99982750415802,0.44139808416366577,0.295276015996933,-0.5131611227989197,0.9997486472129822,0.5704941153526306,0.3826448321342468,-0.09124839305877686,0.9998694658279419,0.32012349367141724,0.38658273220062256,-0.1754867434501648,0.9992369413375854,0.5960255861282349,0.5336295366287231,0.04792739450931549,0.9327666163444519,0.29753342270851135,0.5624672174453735,-0.430905818939209,0.9509349465370178,0.6496533155441284,0.6558328866958618,-0.15916793048381805,0.9482690691947937,0.3275269865989685,0.45060276985168457,-0.9924578070640564,0.9873571395874023,0.6679764986038208,0.699006199836731,-0.21535195410251617,0.9123309254646301,0.3345576524734497,0.41974151134490967,-1.0942798852920532,0.9787110686302185,0.6602815389633179,0.7009570002555847,-0.28472915291786194,0.9203824996948242,0.3261091113090515,0.3976359963417053,-1.1137299537658691,0.9783363342285156,0.6490384936332703,0.6916258335113525,-0.1890711635351181,0.9243640303611755,0.3286931812763214,0.4054068624973297,-1.0096571445465088,0.9710603952407837,0.5489844083786011,0.649863064289093,0.044387444853782654,0.9980759620666504,0.40752333402633667,0.6645030975341797,-0.04436566308140755,0.9958775043487549,0.5522066354751587,0.873100221157074,-0.12171880155801773,0.5595654249191284,0.42005598545074463,0.8734332323074341,-0.08832085877656937,0.49849310517311096,0.5454478859901428,1.0580949783325195,0.4034709632396698,0.2264525294303894,0.432576060295105,1.0519541501998901,0.39349061250686646,0.2116231918334961,0.5280848741531372,1.0795493125915527,0.43829891085624695,0.20611810684204102,0.43772318959236145,1.06986403465271,0.4295588731765747,0.10305216908454895,0.5858711004257202,1.123626708984375,0.14772889018058777,0.16825130581855774,0.4480736255645752,1.1250559091567993,0.09845808148384094,0.1573813110589981
14559.562335290822,0.4670802354812622,0.27431416511535645,-0.5576682686805725,0.9997523427009583,0.4821564555168152,0.25299111008644104,-0.5124995708465576,0.9995589852333069,0.4914191663265228,0.2530272603034973,-0.5127872228622437,0.999526858329773,0.5016573667526245,0.2532408535480499,-0.513001561164856,0.9994997978210449,0.44956812262535095,0.25244489312171936,-0.5243024230003357,0.9992896318435669,0.43625447154045105,0.2522035837173462,-0.5243530869483948,0.9992227554321289,0.42430579662323,0.252273827791214,-0.5244684815406799,0.9991451501846313,0.5096971988677979,0.2598433494567871,-0.21634899079799652,0.9995002746582031,0.3990800976753235,0.2600005865097046,-0.27838134765625,0.9988396763801575,0.48114484548568726,0.2969995439052582,-0.4438454806804657,0.9997760653495789,0.4415441155433655,0.2967550754547119,-0.4613726735115051,0.9996582269668579,0.5668670535087585,0.3814990222454071,-0.03666810318827629,0.9998602867126465,0.3192230463027954,0.38726046681404114,-0.1277453750371933,0.9990008473396301,0.5972299575805664,0.5325236320495605,0.09875940531492233,0.9356608986854553,0.29968976974487305,0.564293384552002,-0.3995790183544159,0.9508973360061646,0.6497279405593872,0.6568285226821899,-0.1073157861828804,0.9560254216194153,0.3268255293369293,0.44581907987594604,-0.9719356894493103,0.9887269735336304,0.6666010618209839,0.7001526355743408,-0.16413331031799316,0.9245123267173767,0.33566880226135254,0.41497138142585754,-1.0758942365646362,0.9812328815460205,0.6598705649375916,0.7019967436790466,-0.23277010023593903,0.9314557909965515,0.3264877200126648,0.3941279947757721,-1.0951679944992065,0.9807985424995422,0.6494414806365967,0.692467212677002,-0.13665233552455902,0.9339698553085327,0.3286491334438324,0.40210390090942383,-0.9892247319221497,0.9738508462905884,0.5501281023025513,0.657451868057251,0.04550979286432266,0.997974693775177,0.40672218799591064,0.6725794672966003,-0.04540570452809334,0.9953072667121887,0.5545129776000977,0.8806294202804565,-0.13135069608688354,0.606687605381012,0.4186660051345825,0.8823843002319336,-0.09160682559013367,0.5090672969818115,0.5431739687919617,1.0696789026260376,0.3940010070800781,0.24975475668907166,0.4330504834651947,1.0622166395187378,0.39728644490242004,0.2174403816461563,0.5259573459625244,1.0916563272476196,0.428451269865036,0.22591231763362885,0.438734769821167,1.0804442167282104,0.4335765540599823,0.10371624678373337,0.5813937187194824,1.1354466676712036,0.13481508195400238,0.18508118391036987,0.45020052790641785,1.1352083683013916,0.09887409955263138,0.1624787300825119
14576.229001957488,0.46414294838905334,0.2734752893447876,-0.5967453718185425,0.9997761845588684,0.48020580410957336,0.25337526202201843,-0.552807092666626,0.9995809197425842,0.48927149176597595,0.2534078359603882,-0.5530754327774048,0.999549925327301,0.49996477365493774,0.25368937849998474,-0.5532858967781067,0.9995416402816772,0.4468129873275757,0.2527596950531006,-0.5627844929695129,0.9993150234222412,0.43371713161468506,0.25242045521736145,-0.5628330707550049,0.9992377758026123,0.4224700927734375,0.25240159034729004,-0.5629457235336304,0.9991732239723206,0.5093565583229065,0.26051121950149536,-0.26147377490997314,0.9995019435882568,0.39879143238067627,0.26062828302383423,-0.3158576488494873,0.9986733198165894,0.47878342866897583,0.29599058628082275,-0.484761506319046,0.9997701048851013,0.439397394657135,0.2952311635017395,-0.5001821517944336,0.9996223449707031,0.5694756507873535,0.3830871284008026,-0.08644234389066696,0.9998531341552734,0.31892848014831543,0.383298397064209,-0.16276946663856506,0.9989608526229858,0.5966448783874512,0.5332117676734924,0.036123547703027725,0.9398952126502991,0.29747647047042847,0.5608342289924622,-0.4368680417537689,0.9466753602027893,0.6497857570648193,0.6559516191482544,-0.177171528339386,0.9539998173713684,0.3280155658721924,0.4449247121810913,-1.013863205909729,0.9861278533935547,0.6662018895149231,0.6998172998428345,-0.23353305459022522,0.9202656745910645,0.33721017837524414,0.41571399569511414,-1.1179542541503906,0.977187991142273,0.6582094430923462,0.7015638947486877,-0.3024043142795563,0.9270951151847839,0.326640784740448,0.3934550881385803,-1.1362552642822266,0.9767001271247864,0.6473341584205627,0.691456139087677,-0.20649391412734985,0.9299046993255615,0.3287196457386017,0.40167713165283203,-1.0312325954437256,0.9685326814651489,0.5479227304458618,0.652450442314148,0.03770679980516434,0.9977222084999084,0.4025537371635437,0.6647648215293884,-0.037676870822906494,0.9947577118873596,0.5472832322120667,0.8789364099502563,-0.15145795047283173,0.5162860751152039,0.4189700186252594,0.8739302754402161,-0.10378054529428482,0.4500143229961395,0.5357491970062256,1.0597259998321533,0.3603486716747284,0.2017035335302353,0.4372049570083618,1.054074764251709,0.36073702573776245,0.18890273571014404,0.5199280381202698,1.08119797706604,0.3936529755592346,0.189045712351799,0.4435206651687622,1.0725075006484985,0.39487534761428833,0.09647148102521896,0.57138592004776,1.1254185438156128,0.10272014141082764,0.16082721948623657,0.4532482624053955,1.1269416809082031,0.06397442519664764,0.14956030249595642
14592.895668624154,0.4631597399711609,0.2746293544769287,-0.5570694208145142,0.9996955394744873,0.479154109954834,0.2535330653190613,-0.5137351155281067,0.9994415640830994,0.4882640838623047,0.25351482629776,-0.514031171798706,0.999408483505249,0.49883297085762024,0.25374552607536316,-0.5142711997032166,0.9993898868560791,0.44566819071769714,0.25312942266464233,-0.5221098065376282,0.9991071820259094,0.43269139528274536,0.2529248595237732,-0.5221437215805054,0.9990230798721313,0.42127299308776855,0.25313374400138855,-0.5222678780555725,0.9989352822303772,0.5087403059005737,0.26031309366226196,-0.22726881504058838,0.999397873878479,0.3981819152832031,0.26108214259147644,-0.2731465697288513,0.9984130859375,0.4783187806606293,0.2968101501464844,-0.44670262932777405,0.9997110962867737,0.43894967436790466,0.2968232035636902,-0.4596514403820038,0.9995331764221191,0.5707851648330688,0.3826107382774353,-0.0590069554746151,0.9998047947883606,0.3205031752586365,0.38530293107032776,-0.1244245395064354,0.9987941980361938,0.5956275463104248,0.5327094197273254,0.059444550424814224,0.9257776141166687,0.3006817698478699,0.5616273880004883,-0.4032042324542999,0.942859947681427,0.6483162641525269,0.6550390124320984,-0.1491740345954895,0.9395927786827087,0.3261978328227997,0.44651108980178833,-0.9819669127464294,0.9857586622238159,0.6662462949752808,0.6976889371871948,-0.2044944167137146,0.9023262858390808,0.33322447538375854,0.4155295491218567,-1.086743950843811,0.9766571521759033,0.6599961519241333,0.7004587650299072,-0.27255111932754517,0.9113062024116516,0.32347267866134644,0.39377546310424805,-1.103872299194336,0.976310133934021,0.6483639478683472,0.6894501447677612,-0.17827850580215454,0.9157060384750366,0.32611405849456787,0.4025251269340515,-0.999384880065918,0.9681991338729858,0.5528348684310913,0.6543982028961182,0.03325505927205086,0.9974160194396973,0.40574684739112854,0.6652083396911621,-0.03315822035074234,0.9939861297607422,0.5523943901062012,0.8832463026046753,-0.16918204724788666,0.5361148118972778,0.42101597785949707,0.878258466720581,-0.10291038453578949,0.4689736068248749,0.5360344052314758,1.064807415008545,0.35866981744766235,0.20243661105632782,0.4384714663028717,1.058863878250122,0.36056411266326904,0.19618642330169678,0.5204452276229858,1.086355447769165,0.3941419720649719,0.1969120353460312,0.44516661763191223,1.0778956413269043,0.39505448937416077,0.10269853472709656,0.5702779293060303,1.1306614875793457,0.10693550854921341,0.1543816775083542,0.45343539118766785,1.131057858467102,0.06689760088920593,0.14731831848621368
14609.56233529082,0.4632715582847595,0.27429983019828796,-0.5104086399078369,0.9996247291564941,0.4789092242717743,0.2529943585395813,-0.46667733788490295,0.9993293285369873,0.4878748059272766,0.25298362970352173,-0.46698081493377686,0.9992871880531311,0.49847841262817383,0.253212034702301,-0.4672260582447052,0.9992652535438538,0.44559168815612793,0.252806693315506,-0.47438859939575195,0.9989486336708069,0.43258926272392273,0.2527160346508026,-0.47442397475242615,0.9988598823547363,0.4211098253726959,0.25307413935661316,-0.47455716133117676,0.9987723231315613,0.5082597136497498,0.2599937319755554,-0.1829889565706253,0.9993081092834473,0.3978720009326935,0.26094454526901245,-0.22504942119121552,0.9982287287712097,0.47829246520996094,0.29665830731391907,-0.40144839882850647,0.9996373653411865,0.438461571931839,0.2972480058670044,-0.4132983684539795,0.9994328618049622,0.571190595626831,0.3827754259109497,-0.020375600084662437,0.9997580647468567,0.3207721710205078,0.38636624813079834,-0.08714581280946732,0.998675525188446,0.5963593125343323,0.5330615043640137,0.09681634604930878,0.9191098213195801,0.3029981851577759,0.5643672347068787,-0.37555766105651855,0.939100980758667,0.6482753753662109,0.6559208631515503,-0.09747271239757538,0.9364364743232727,0.3248128890991211,0.44752275943756104,-0.9574279189109802,0.9859156608581543,0.6660630106925964,0.6993691921234131,-0.1496909111738205,0.8988164663314819,0.32965588569641113,0.4155897796154022,-1.0628844499588013,0.977189838886261,0.6587269902229309,0.7018734216690063,-0.21591433882713318,0.9078319668769836,0.3208328187465668,0.39489999413490295,-1.0796617269515991,0.9769694209098816,0.6469528675079346,0.6909500956535339,-0.12554650008678436,0.9128997325897217,0.32350459694862366,0.4033755362033844,-0.9751046299934387,0.9691647291183472,0.550999641418457,0.6610776782035828,0.033851705491542816,0.9974527955055237,0.40500351786613464,0.674096405506134,-0.0337337851524353,0.9944129586219788,0.5506718754768372,0.8872685432434082,-0.1513829231262207,0.5288719534873962,0.42298445105552673,0.8870294094085693,-0.10246530175209045,0.46617352962493896,0.5365467071533203,1.0720196962356567,0.369674414396286,0.19752715528011322,0.43930351734161377,1.0670641660690308,0.3478807210922241,0.19864197075366974,0.5205561518669128,1.0938178300857544,0.4045564532279968,0.1906079649925232,0.44658106565475464,1.0866247415542603,0.38108059763908386,0.10271335393190384,0.5707825422286987,1.1378190517425537,0.12117146700620651,0.1488092988729477,0.45273593068122864,1.1384928226470947,0.05611952021718025,0.14891965687274933
14626.229001957487,0.46590936183929443,0.2740350365638733,-0.5508407354354858,0.9996837377548218,0.48086017370224,0.2528068721294403,-0.5061642527580261,0.9994157552719116,0.49016720056533813,0.25282976031303406,-0.5064483284950256,0.9993698000907898,0.5003494620323181,0.2530357241630554,-0.5066653490066528,0.9993395209312439,0.44876226782798767,0.25239211320877075,-0.5169985890388489,0.999098539352417,0.4355318248271942,0.2522524297237396,-0.5170618891716003,0.9990394711494446,0.423848032951355,0.2523985207080841,-0.5171852707862854,0.9989569187164307,0.5086771845817566,0.25942954421043396,-0.20854569971561432,0.999376118183136,0.3989778161048889,0.26012536883354187,-0.2658950388431549,0.9985737800598145,0.4797585904598236,0.29642394185066223,-0.43599703907966614,0.9996926784515381,0.4406587481498718,0.296609103679657,-0.4522102475166321,0.9995416402816772,0.5700626969337463,0.38185954093933105,-0.023577362298965454,0.9998001456260681,0.32058537006378174,0.3844221830368042,-0.12255736440420151,0.9989012479782104,0.5942776799201965,0.533232569694519,0.1088470071554184,0.923828125,0.30325591564178467,0.5633662939071655,-0.40973249077796936,0.945444643497467,0.6494568586349487,0.6576055288314819,-0.08787545561790466,0.9401294589042664,0.32711780071258545,0.44765520095825195,-0.9873113632202148,0.9847773313522339,0.6660574078559875,0.7024803757667542,-0.14108344912528992,0.9014075994491577,0.33267003297805786,0.4163459539413452,-1.093758225440979,0.9752635955810547,0.657529354095459,0.7045167684555054,-0.2097541242837906,0.9101445078849792,0.32280927896499634,0.3952544927597046,-1.1140416860580444,0.9751401543617249,0.6462357044219971,0.6941510438919067,-0.11716058850288391,0.9136466383934021,0.3259733021259308,0.40377941727638245,-1.005882978439331,0.9666655659675598,0.551817774772644,0.6583510041236877,0.043729256838560104,0.9978442192077637,0.40631812810897827,0.6703934669494629,-0.04364393278956413,0.9954095482826233,0.5511319041252136,0.8868052959442139,-0.13147170841693878,0.5583005547523499,0.4246034026145935,0.884547770023346,-0.11257898807525635,0.48695239424705505,0.5393095016479492,1.0744779109954834,0.397262841463089,0.23675952851772308,0.43722406029701233,1.0709744691848755,0.34357425570487976,0.23497633635997772,0.5220012068748474,1.0964714288711548,0.4324013292789459,0.22198742628097534,0.4437963664531708,1.0909103155136108,0.3763635456562042,0.11590287834405899,0.5776073932647705,1.140923261642456,0.1394478976726532,0.1857580542564392,0.4511893093585968,1.1433566808700562,0.03782888129353523,0.18341907858848572
14642.895668624153,0.468442440032959,0.27376851439476013,-0.5364047288894653,0.9997014403343201,0.48308974504470825,0.2527373731136322,-0.4915769696235657,0.9994811415672302,0.49310922622680664,0.25276222825050354,-0.4918886423110962,0.9994454979896545,0.5026847124099731,0.25295290350914,-0.49213147163391113,0.9994157552719116,0.4507010579109192,0.2522965371608734,-0.5018017888069153,0.9991880059242249,0.43675774335861206,0.25218287110328674,-0.5018351078033447,0.9991217255592346,0.42457327246665955,0.25230252742767334,-0.5019642114639282,0.9990419745445251,0.510213315486908,0.2598555386066437,-0.200408935546875,0.9994577765464783,0.3985905647277832,0.260445237159729,-0.25523409247398376,0.9986957907676697,0.4816623628139496,0.29611703753471375,-0.4244469106197357,0.9997326731681824,0.44231095910072327,0.29643312096595764,-0.4399784803390503,0.9995943903923035,0.5698006749153137,0.3828035295009613,-0.03397182747721672,0.9997988343238831,0.31822699308395386,0.3877732753753662,-0.10693264752626419,0.9987298846244812,0.5966269969940186,0.5335243344306946,0.09071674197912216,0.9227783679962158,0.298944354057312,0.5671427249908447,-0.39016836881637573,0.9372941255569458,0.6493563652038574,0.6566369533538818,-0.1115860864520073,0.9383240938186646,0.3218461871147156,0.45349276065826416,-0.9769034385681152,0.9847382307052612,0.6663932204246521,0.6999269127845764,-0.16576535999774933,0.9030290246009827,0.32802093029022217,0.42259523272514343,-1.0822744369506836,0.9761369824409485,0.6599336862564087,0.7023515105247498,-0.23324674367904663,0.9117990732192993,0.3193656802177429,0.4002881944179535,-1.1008780002593994,0.9759141802787781,0.6488726139068604,0.6920616626739502,-0.1401768922805786,0.9164755344390869,0.32179537415504456,0.4085279405117035,-0.9948893785476685,0.9677702188491821,0.5525312423706055,0.659720242023468,0.03410694748163223,0.9974162578582764,0.40424636006355286,0.671830952167511,-0.033951349556446075,0.9939458966255188,0.5538407564163208,0.8847860097885132,-0.153213232755661,0.5505445599555969,0.42210325598716736,0.8864654302597046,-0.09705039858818054,0.473162442445755,0.5361288785934448,1.0712239742279053,0.3732892870903015,0.20111656188964844,0.43631798028945923,1.0649666786193848,0.3655167818069458,0.19603702425956726,0.5204299092292786,1.0930719375610352,0.4083171784877777,0.19710992276668549,0.44295331835746765,1.0842348337173462,0.39982131123542786,0.10504960268735886,0.570077657699585,1.1372498273849487,0.12488816678524017,0.14789652824401855,0.449404239654541,1.1369781494140625,0.07368537783622742,0.14378482103347778
14659.562335290819,0.4715152382850647,0.2733568251132965,-0.5391488075256348,0.9997263550758362,0.48509979248046875,0.2524458169937134,-0.49359259009361267,0.9995405673980713,0.495053231716156,0.2523011267185211,-0.4939132332801819,0.9995001554489136,0.5039511919021606,0.25240737199783325,-0.4941507875919342,0.9994743466377258,0.4537375867366791,0.2521769106388092,-0.5058211088180542,0.9992904663085938,0.4395206570625305,0.25212886929512024,-0.5058655738830566,0.99922776222229,0.42704835534095764,0.2523062229156494,-0.5060036182403564,0.9991681575775146,0.5098643898963928,0.2590126395225525,-0.19929176568984985,0.9995007514953613,0.39935219287872314,0.2606685161590576,-0.26364412903785706,0.998896598815918,0.48325732350349426,0.29556068778038025,-0.4259665906429291,0.9997541308403015,0.4454357922077179,0.29580122232437134,-0.44430550932884216,0.9996359348297119,0.5695143938064575,0.3828994929790497,-0.032817646861076355,0.9998144507408142,0.31680381298065186,0.38633593916893005,-0.11551296710968018,0.9988495111465454,0.5970959067344666,0.5338081121444702,0.08977683633565903,0.9247447848320007,0.2995564937591553,0.567780077457428,-0.40112990140914917,0.9427974224090576,0.6503404974937439,0.6573076844215393,-0.12060844898223877,0.943463146686554,0.32474714517593384,0.4547974467277527,-0.9885693192481995,0.9869709014892578,0.66668301820755,0.699709415435791,-0.17553837597370148,0.9111562967300415,0.33231568336486816,0.4238220453262329,-1.093034267425537,0.9793021082878113,0.6604065895080566,0.7021719217300415,-0.24305379390716553,0.9194621443748474,0.3231014013290405,0.4023275077342987,-1.1111167669296265,0.9790672659873962,0.6498932838439941,0.6923148036003113,-0.1494019627571106,0.9238513112068176,0.32506346702575684,0.4092223346233368,-1.0057772397994995,0.9717530608177185,0.553145170211792,0.6611894369125366,0.034817516803741455,0.9973322153091431,0.4030727744102478,0.6730894446372986,-0.034674182534217834,0.9938941597938538,0.5521589517593384,0.8854786157608032,-0.15220028162002563,0.5197087526321411,0.42066115140914917,0.8853249549865723,-0.10145561397075653,0.4496403932571411,0.5368168950080872,1.0713374614715576,0.3610205054283142,0.17355790734291077,0.4348592162132263,1.0649290084838867,0.348935604095459,0.1724887490272522,0.5217386484146118,1.0934059619903564,0.3945178687572479,0.1722898781299591,0.44132834672927856,1.0842126607894897,0.38188183307647705,0.09200666099786758,0.570626437664032,1.1363167762756348,0.11343880742788315,0.12955234944820404,0.44840434193611145,1.136409878730774,0.05751287564635277,0.1271592676639557
14676.229001957485,0.4727076292037964,0.2743421494960785,-0.5812575221061707,0.9996414184570312,0.4861156940460205,0.25314605236053467,-0.536323606967926,0.9993582367897034,0.4959072172641754,0.2528623640537262,-0.5366268754005432,0.9993164539337158,0.5044631361961365,0.25288763642311096,-0.5368449091911316,0.9992727637290955,0.4551664888858795,0.2531791925430298,-0.5496166944503784,0.9990028738975525,0.4406978487968445,0.25319376587867737,-0.5496985912322998,0.9989225268363953,0.42819592356681824,0.2535340189933777,-0.5498605370521545,0.9988316893577576,0.5100533366203308,0.25944697856903076,-0.24069145321846008,0.9992908239364624,0.3993331789970398,0.2613818049430847,-0.31003761291503906,0.9983525276184082,0.48389676213264465,0.29648664593696594,-0.46723467111587524,0.9996753931045532,0.44617876410484314,0.2971704304218292,-0.4870397448539734,0.9995115995407104,0.5683286786079407,0.38222628831863403,-0.07125374674797058,0.9997979998588562,0.3155132532119751,0.3847481608390808,-0.15320448577404022,0.9986794590950012,0.5966064929962158,0.5347810983657837,0.05275644734501839,0.9291692972183228,0.3014371991157532,0.5647762417793274,-0.42806050181388855,0.9384768605232239,0.6477763652801514,0.6591965556144714,-0.16105332970619202,0.943120002746582,0.3199305534362793,0.45320528745651245,-1.007420301437378,0.985622227191925,0.6641844511032104,0.7003921866416931,-0.2168886959552765,0.9077609181404114,0.3301742672920227,0.42583900690078735,-1.1097896099090576,0.9774611592292786,0.6550230979919434,0.7027632594108582,-0.284305602312088,0.9158235192298889,0.32080692052841187,0.4028138518333435,-1.1299128532409668,0.9771380424499512,0.6444586515426636,0.6931577324867249,-0.18960490822792053,0.9204782247543335,0.3215554356575012,0.4093330502510071,-1.0249764919281006,0.9691038131713867,0.5521052479743958,0.6594207286834717,0.03608110919594765,0.9969000816345215,0.4027598798274994,0.6712023019790649,-0.03600921854376793,0.9930850267410278,0.5512396097183228,0.8803963661193848,-0.13873961567878723,0.5331831574440002,0.4186181426048279,0.8819442987442017,-0.0887262150645256,0.42500966787338257,0.5361464023590088,1.062906265258789,0.376679390668869,0.19296486675739288,0.4334411919116974,1.0582220554351807,0.3828209638595581,0.17334818840026855,0.5223250389099121,1.0841809511184692,0.41013118624687195,0.18190869688987732,0.4393453896045685,1.0768682956695557,0.4173971712589264,0.09270959347486496,0.5650578141212463,1.129523754119873,0.12423892319202423,0.14993104338645935,0.4474039673805237,1.1304863691329956,0.08822034299373627,0.134428009390831
14692.89566862415,0.4657857120037079,0.2757909595966339,-0.591605544090271,0.9996583461761475,0.4822677969932556,0.25497132539749146,-0.5492690205574036,0.9993515610694885,0.49258044362068176,0.2548932731151581,-0.5495652556419373,0.999314546585083,0.5021874308586121,0.25505638122558594,-0.5497864484786987,0.9992561936378479,0.44930699467658997,0.254223108291626,-0.5576693415641785,0.9990177154541016,0.43527013063430786,0.2539810836315155,-0.5577446818351746,0.9989556074142456,0.4231519103050232,0.25402116775512695,-0.5579062700271606,0.9988864064216614,0.5109472870826721,0.26180317997932434,-0.2635948061943054,0.9992637038230896,0.39794862270355225,0.2613765597343445,-0.3108820617198944,0.9983179569244385,0.4793679416179657,0.2990056276321411,-0.4813251793384552,0.9996711015701294,0.4396621286869049,0.29922401905059814,-0.49474939703941345,0.9995181560516357,0.569256603717804,0.3830379247665405,-0.0962640792131424,0.9997382760047913,0.3152562975883484,0.3874305188655853,-0.14386993646621704,0.9986741542816162,0.5950989723205566,0.5347417593002319,0.03183489292860031,0.9295717477798462,0.30039143562316895,0.565804123878479,-0.41147682070732117,0.936381459236145,0.6497757434844971,0.6579570174217224,-0.17293693125247955,0.9399427175521851,0.3177308738231659,0.45491939783096313,-1.0073471069335938,0.9866653680801392,0.6659784317016602,0.699455976486206,-0.22601103782653809,0.9027072191238403,0.3232908844947815,0.427307665348053,-1.1107630729675293,0.9791242480278015,0.6564995050430298,0.7018234729766846,-0.2946856915950775,0.9105187058448792,0.31575432419776917,0.40579819679260254,-1.1279913187026978,0.9787002205848694,0.6460171937942505,0.6923208832740784,-0.20120061933994293,0.9160193204879761,0.31808239221572876,0.4130161702632904,-1.0240881443023682,0.9709830284118652,0.5524312257766724,0.6612241864204407,0.02806767448782921,0.9964578747749329,0.4030384421348572,0.6721208095550537,-0.028043601661920547,0.9927031993865967,0.549587070941925,0.88187175989151,-0.14004340767860413,0.5273929834365845,0.4191891849040985,0.882800817489624,-0.08276054263114929,0.4632585942745209,0.532081663608551,1.060909628868103,0.38841551542282104,0.19054557383060455,0.43529799580574036,1.0568361282348633,0.38561728596687317,0.18861675262451172,0.5183405876159668,1.081992268562317,0.4234856069087982,0.18715468049049377,0.4419545531272888,1.0752673149108887,0.4204251170158386,0.10419023036956787,0.5618221163749695,1.1270302534103394,0.1432855874300003,0.14553090929985046,0.4482625424861908,1.129457712173462,0.09595557302236557,0.1408652663230896
14709.562335290817,0.463922381401062,0.27497440576553345,-0.581075131893158,0.9997363686561584,0.48046937584877014,0.2540697455406189,-0.5393778681755066,0.9995033740997314,0.49077165126800537,0.2541222870349884,-0.5396796464920044,0.9994797110557556,0.5007213950157166,0.25434282422065735,-0.5399036407470703,0.999431312084198,0.4477261006832123,0.25319957733154297,-0.5479846596717834,0.9992399215698242,0.43421855568885803,0.25303202867507935,-0.548041820526123,0.999189555644989,0.4224003255367279,0.25306904315948486,-0.548186182975769,0.9991224408149719,0.5098093152046204,0.2611934542655945,-0.25729820132255554,0.9994533658027649,0.3973442614078522,0.2605067789554596,-0.30619606375694275,0.9986901879310608,0.4777994751930237,0.2981082797050476,-0.47214025259017944,0.9997429251670837,0.4378013610839844,0.29765570163726807,-0.48600611090660095,0.9996179342269897,0.5687987804412842,0.3817644417285919,-0.09797738492488861,0.9997826218605042,0.3143612742424011,0.38610661029815674,-0.14242111146450043,0.9988522529602051,0.5957108736038208,0.5333781242370605,0.021947072818875313,0.9361436367034912,0.2997891902923584,0.5645596981048584,-0.41007882356643677,0.9368119835853577,0.6482604146003723,0.6578038930892944,-0.1880340725183487,0.9438085556030273,0.31643620133399963,0.45688045024871826,-1.004678726196289,0.9871537089347839,0.6642715334892273,0.6985530257225037,-0.24195072054862976,0.9086435437202454,0.3243527412414551,0.43012022972106934,-1.107406497001648,0.9800776243209839,0.653690755367279,0.7012500166893005,-0.3099619150161743,0.9161701798439026,0.31660956144332886,0.407205730676651,-1.1246479749679565,0.9797229170799255,0.6437743902206421,0.6925742626190186,-0.2160697728395462,0.9217952489852905,0.3181012272834778,0.4136112332344055,-1.0214455127716064,0.9725593328475952,0.548877477645874,0.6593277454376221,0.025512419641017914,0.9964683055877686,0.40047886967658997,0.6705432534217834,-0.025467822328209877,0.9927300810813904,0.5503706932067871,0.8794121742248535,-0.13674268126487732,0.5023470520973206,0.41860559582710266,0.8819880485534668,-0.08652350306510925,0.4522121548652649,0.532477617263794,1.0599846839904785,0.3763088285923004,0.17346692085266113,0.43327459692955017,1.0552879571914673,0.36286014318466187,0.18033520877361298,0.5186528563499451,1.081498622894287,0.40999701619148254,0.179060697555542,0.44008946418762207,1.0741512775421143,0.3959764242172241,0.10378334671258926,0.5639045834541321,1.1256351470947266,0.13920986652374268,0.13234813511371613,0.4432198703289032,1.1272213459014893,0.07974817603826523,0.13299328088760376
14726.229001957483,0.4624279737472534,0.2757836878299713,-0.554839551448822,0.9997102618217468,0.47992709279060364,0.2545399069786072,-0.5143609046936035,0.9994432330131531,0.49098002910614014,0.2544898986816406,-0.5146341919898987,0.9993953704833984,0.5012679696083069,0.2546936869621277,-0.5148441791534424,0.9993672966957092,0.446153849363327,0.2534019351005554,-0.5239373445510864,0.9991680383682251,0.4324162006378174,0.25290367007255554,-0.5239984393119812,0.9990967512130737,0.4202823340892792,0.25274771451950073,-0.5241348147392273,0.9990450739860535,0.5113717317581177,0.26117584109306335,-0.2347610741853714,0.9993335604667664,0.39679810404777527,0.2600592076778412,-0.28817689418792725,0.9984831213951111,0.4776851236820221,0.29941850900650024,-0.4462283253669739,0.999693751335144,0.43691906332969666,0.29933908581733704,-0.4613313376903534,0.9995632767677307,0.5679842829704285,0.38121795654296875,-0.07065992802381516,0.9997900128364563,0.313396692276001,0.38766422867774963,-0.13795991241931915,0.9989833235740662,0.5943695902824402,0.5331255197525024,0.05871091037988663,0.9269027709960938,0.29846397042274475,0.5675126314163208,-0.4067777991294861,0.9394832253456116,0.6462478041648865,0.6581927537918091,-0.134120911359787,0.9406797885894775,0.3221036195755005,0.4566788673400879,-0.9775679111480713,0.9863256812095642,0.6634774208068848,0.7001838684082031,-0.1842322051525116,0.9051297903060913,0.3271922469139099,0.42777228355407715,-1.0777390003204346,0.9787861108779907,0.6548780798912048,0.7023980617523193,-0.24939149618148804,0.9127313494682312,0.31721073389053345,0.40622076392173767,-1.0938283205032349,0.9785289764404297,0.6443761587142944,0.692952573299408,-0.1607515662908554,0.9182098507881165,0.3200889527797699,0.41344940662384033,-0.9933416843414307,0.9709036946296692,0.547532320022583,0.6593065857887268,0.034681424498558044,0.996884286403656,0.40115463733673096,0.6706668734550476,-0.0346616692841053,0.9933966398239136,0.550530195236206,0.8815000653266907,-0.1525290161371231,0.44058212637901306,0.42364123463630676,0.8819958567619324,-0.10638483613729477,0.4034067690372467,0.5315914154052734,1.0620307922363281,0.3535502254962921,0.1510283499956131,0.4339311718940735,1.0584344863891602,0.337138295173645,0.16000275313854218,0.5162686109542847,1.0830270051956177,0.38780009746551514,0.16236543655395508,0.4392721354961395,1.0768343210220337,0.3703228831291199,0.08752218633890152,0.5650556683540344,1.1290370225906372,0.1191297098994255,0.11928817629814148,0.4498620629310608,1.1319774389266968,0.0546390675008297,0.11986098438501358
14742.895668624149,0.46432533860206604,0.27611199021339417,-0.5877463817596436,0.9997658133506775,0.48073750734329224,0.25569772720336914,-0.5461505651473999,0.9995619654655457,0.49100521206855774,0.25575506687164307,-0.5464245676994324,0.9995334148406982,0.500771701335907,0.25594019889831543,-0.5466452836990356,0.999517560005188,0.4483751952648163,0.25419193506240845,-0.5573118925094604,0.9993011951446533,0.4346136450767517,0.2536584138870239,-0.5573643445968628,0.999240517616272,0.42270490527153015,0.25338616967201233,-0.5574781894683838,0.9991693496704102,0.5094746351242065,0.2616632878780365,-0.25517114996910095,0.9995230436325073,0.3973754048347473,0.260270893573761,-0.31609493494033813,0.998762845993042,0.4784467816352844,0.298427939414978,-0.4742128252983093,0.9997671246528625,0.4384126365184784,0.29771238565444946,-0.4915347993373871,0.9996311664581299,0.5695873498916626,0.3804514706134796,-0.08237157016992569,0.9998730421066284,0.31595084071159363,0.38400882482528687,-0.15762944519519806,0.9990992546081543,0.5995548367500305,0.5312190055847168,0.04162527620792389,0.9469509124755859,0.3058352470397949,0.5620947480201721,-0.43535536527633667,0.9457053542137146,0.6468945741653442,0.6582720279693604,-0.16942301392555237,0.9569231867790222,0.3260548710823059,0.4535992741584778,-1.0144338607788086,0.9872370958328247,0.663090705871582,0.6997029185295105,-0.22503003478050232,0.9260485768318176,0.3359189033508301,0.4257653057575226,-1.1175328493118286,0.979109525680542,0.6535772085189819,0.7020625472068787,-0.2932734191417694,0.9329650402069092,0.32651594281196594,0.4032767713069916,-1.1362396478652954,0.9788047075271606,0.6433093547821045,0.6929866075515747,-0.1978600025177002,0.9355204701423645,0.32796722650527954,0.41002166271209717,-1.0315357446670532,0.9714145064353943,0.5503469705581665,0.6531261205673218,0.034385643899440765,0.997369647026062,0.4040083885192871,0.6627998352050781,-0.034340497106313705,0.9941003918647766,0.5506299138069153,0.8771576881408691,-0.15194033086299896,0.48829105496406555,0.423464298248291,0.873833417892456,-0.10643026232719421,0.42532679438591003,0.52544105052948,1.0404303073883057,0.35436663031578064,0.1725350022315979,0.43565377593040466,1.0541852712631226,0.3356117308139801,0.17626623809337616,0.5168085098266602,1.0817456245422363,0.3877900540828705,0.17556773126125336,0.4416196048259735,1.0731966495513916,0.36773011088371277,0.09517242014408112,0.5645796656608582,1.1267633438110352,0.10964740812778473,0.13364149630069733,0.4483951926231384,1.1266119480133057,0.045420944690704346,0.13215632736682892
14759.562335290815,0.4714324474334717,0.27510255575180054,-0.5441074371337891,0.9997358918190002,0.48552051186561584,0.2541687786579132,-0.4988444745540619,0.9995393753051758,0.4950636923313141,0.2538648843765259,-0.4991503953933716,0.9995063543319702,0.5034456849098206,0.25395825505256653,-0.49938201904296875,0.9994919300079346,0.45491164922714233,0.2540118098258972,-0.5126557350158691,0.9992616772651672,0.4409628212451935,0.25380998849868774,-0.5127151012420654,0.9992011189460754,0.42830419540405273,0.2541181147098541,-0.5128283500671387,0.9991341233253479,0.5092632174491882,0.2599732279777527,-0.20297294855117798,0.9995125532150269,0.3990597724914551,0.26191601157188416,-0.2756420373916626,0.9988017082214355,0.4826415181159973,0.29786416888237,-0.4298742413520813,0.9997473359107971,0.44620445370674133,0.2977542281150818,-0.45057645440101624,0.9996091723442078,0.5703155398368835,0.38152840733528137,-0.035951167345047,0.9998569488525391,0.3172237277030945,0.384585976600647,-0.12835286557674408,0.9989773035049438,0.5929407477378845,0.5332136750221252,0.08679863810539246,0.9279683232307434,0.30089789628982544,0.5605000257492065,-0.412961483001709,0.9485955834388733,0.6451142430305481,0.6549529433250427,-0.11925539374351501,0.9442974925041199,0.322056382894516,0.4492696225643158,-0.9881511330604553,0.9866031408309937,0.6623717546463013,0.6968629956245422,-0.17367707192897797,0.9111694693565369,0.3281354308128357,0.42114534974098206,-1.0936580896377563,0.9780600666999817,0.6532146334648132,0.6993663907051086,-0.24161791801452637,0.9193331599235535,0.3192143440246582,0.39928218722343445,-1.1126608848571777,0.9779955148696899,0.6417984962463379,0.6899930238723755,-0.14838528633117676,0.9229623079299927,0.3223334550857544,0.4070683419704437,-1.006215214729309,0.9707652926445007,0.5514264106750488,0.6535530090332031,0.03470147028565407,0.9978995323181152,0.40525901317596436,0.6646493673324585,-0.034588299691677094,0.9949812293052673,0.5507265329360962,0.8774866461753845,-0.15044859051704407,0.49373796582221985,0.41189607977867126,0.8790098428726196,-0.10093962401151657,0.4160556197166443,0.5400189161300659,1.0617603063583374,0.3664086163043976,0.17783276736736298,0.441872775554657,1.0560336112976074,0.35183843970298767,0.18317918479442596,0.5246614217758179,1.0828704833984375,0.4013058543205261,0.1771836280822754,0.44889387488365173,1.0751646757125854,0.38562992215156555,0.10110963881015778,0.5739038586616516,1.1282662153244019,0.1250489205121994,0.14417238533496857,0.454641729593277,1.1277832984924316,0.06738881021738052,0.14592432975769043
14776.229001957481,0.46436387300491333,0.27327361702919006,-0.5581502914428711,0.9997432827949524,0.479982852935791,0.25339728593826294,-0.5128726363182068,0.999544084072113,0.49047788977622986,0.2535021901130676,-0.5131646394729614,0.9995009899139404,0.4997292459011078,0.2539341449737549,-0.5133773684501648,0.9994687438011169,0.44821736216545105,0.2522459030151367,-0.526728630065918,0.9993001222610474,0.4343970715999603,0.2513344883918762,-0.5267782211303711,0.9992471933364868,0.4229060709476471,0.2507126033306122,-0.5269145965576172,0.9991918206214905,0.5075274705886841,0.2600763738155365,-0.21608926355838776,0.9994900226593018,0.3963545560836792,0.2585974931716919,-0.2890539765357971,0.9989094734191895,0.4769721031188965,0.29571443796157837,-0.44366323947906494,0.9997586607933044,0.4382047951221466,0.2942725419998169,-0.46456414461135864,0.9996532201766968,0.5647017359733582,0.37916916608810425,-0.04400334134697914,0.999823272228241,0.3137741982936859,0.3831786513328552,-0.14359314739704132,0.9989767074584961,0.5914610028266907,0.5315757989883423,0.08494953066110611,0.928566038608551,0.3032659888267517,0.5604519844055176,-0.4265969693660736,0.9486276507377625,0.6425691843032837,0.656291663646698,-0.11672648042440414,0.9427690505981445,0.32592201232910156,0.4538952708244324,-0.9974496364593506,0.9863211512565613,0.6600139141082764,0.6973490118980408,-0.1695583015680313,0.9064702391624451,0.3341314196586609,0.427806556224823,-1.1005419492721558,0.9781764149665833,0.6518237590789795,0.6997636556625366,-0.23629368841648102,0.914517879486084,0.32323557138442993,0.4035010039806366,-1.1189532279968262,0.9779950976371765,0.6406585574150085,0.6907394528388977,-0.14494067430496216,0.9186319708824158,0.32522961497306824,0.41043195128440857,-1.0141785144805908,0.9700245261192322,0.547084629535675,0.6521273851394653,0.03673766925930977,0.9976246953010559,0.40149545669555664,0.6642534732818604,-0.036661699414253235,0.9945855736732483,0.5509997010231018,0.8765174150466919,-0.15044444799423218,0.4962753653526306,0.4261190593242645,0.8771184682846069,-0.10578110069036484,0.4241693913936615,0.5374610424041748,1.0605436563491821,0.36396315693855286,0.17628701031208038,0.4425354301929474,1.054811954498291,0.3445129692554474,0.18481291830539703,0.5219429135322571,1.0823650360107422,0.39792272448539734,0.17778007686138153,0.44949862360954285,1.0740678310394287,0.377543568611145,0.10161064565181732,0.5720147490501404,1.1267235279083252,0.11812654882669449,0.14268526434898376,0.45653825998306274,1.1259015798568726,0.05284972861409187,0.1460290551185608
14792.895668624147,0.46675965189933777,0.2759387791156769,-0.5778063535690308,0.9996970891952515,0.4822443723678589,0.25517505407333374,-0.5325447916984558,0.9994482398033142,0.49213817715644836,0.2551417052745819,-0.5328342914581299,0.9994109869003296,0.5009340047836304,0.2554331123828888,-0.5330548882484436,0.9993638396263123,0.45049068331718445,0.2544249892234802,-0.5466340780258179,0.9991273283958435,0.43681827187538147,0.2539818584918976,-0.5466899871826172,0.9990755319595337,0.42458242177963257,0.25384441018104553,-0.5468264222145081,0.9989879727363586,0.5076934695243835,0.26120346784591675,-0.22634093463420868,0.9994181394577026,0.3980798125267029,0.26133912801742554,-0.29978251457214355,0.9986996650695801,0.47860369086265564,0.2981032133102417,-0.4588375985622406,0.9997188448905945,0.4418395161628723,0.29775890707969666,-0.4798848330974579,0.9995891451835632,0.5654163360595703,0.37963253259658813,-0.03948643058538437,0.9998363256454468,0.3158099949359894,0.38246259093284607,-0.14817778766155243,0.9989448189735413,0.5921204090118408,0.5318276882171631,0.09562908113002777,0.9329976439476013,0.30159464478492737,0.5598759651184082,-0.43181416392326355,0.9518324732780457,0.6441937685012817,0.6569166779518127,-0.10982540994882584,0.9472059011459351,0.3262627422809601,0.4499897360801697,-1.0056297779083252,0.9871929883956909,0.6609526872634888,0.6973186135292053,-0.16508224606513977,0.9107983708381653,0.33643966913223267,0.4221823513507843,-1.111323595046997,0.9789897799491882,0.6524643301963806,0.6997520923614502,-0.23423068225383759,0.9188511371612549,0.3258507251739502,0.3988841772079468,-1.1308271884918213,0.9788510799407959,0.6415673494338989,0.6910396218299866,-0.13925369083881378,0.9221145510673523,0.3275800943374634,0.4060756266117096,-1.0228768587112427,0.9708608984947205,0.5465446710586548,0.6528292298316956,0.04175378754734993,0.9978986978530884,0.40126144886016846,0.6643837094306946,-0.04167962074279785,0.9951564073562622,0.5515514612197876,0.8765721321105957,-0.14479871094226837,0.5235893130302429,0.4267396330833435,0.8770387172698975,-0.10726018249988556,0.44441935420036316,0.5370872020721436,1.06169855594635,0.396549254655838,0.19819726049900055,0.4418160617351532,1.0554200410842896,0.36549368500709534,0.20609238743782043,0.5206718444824219,1.0833077430725098,0.4332348704338074,0.20335613191127777,0.4484953284263611,1.0748603343963623,0.40051206946372986,0.10908234864473343,0.5721197724342346,1.1282061338424683,0.14550568163394928,0.16127480566501617,0.4565802216529846,1.1264240741729736,0.06664706021547318,0.16423429548740387
14809.562335290813,0.47186851501464844,0.274779736995697,-0.5884921550750732,0.9997238516807556,0.4860941469669342,0.254474014043808,-0.5458420515060425,0.9995014667510986,0.4951550364494324,0.2541373670101166,-0.5461324453353882,0.9994648098945618,0.5033138394355774,0.25424134731292725,-0.5463366508483887,0.9994356036186218,0.45538899302482605,0.2541313171386719,-0.5604968070983887,0.9992235898971558,0.44176897406578064,0.2537302076816559,-0.5605738759040833,0.9991632699966431,0.4286975562572479,0.2538128197193146,-0.5607326030731201,0.9990835189819336,0.5070912837982178,0.25995689630508423,-0.24895277619361877,0.9994425177574158,0.3988426923751831,0.26121148467063904,-0.324889600276947,0.9987020492553711,0.48177069425582886,0.29687944054603577,-0.47263750433921814,0.999754011631012,0.44688060879707336,0.29653027653694153,-0.49434342980384827,0.9996250867843628,0.5692176222801208,0.3798438012599945,-0.06652889400720596,0.9998633861541748,0.3147898316383362,0.38403668999671936,-0.17190541326999664,0.9990389347076416,0.6005265712738037,0.5305887460708618,0.054352518171072006,0.9416194558143616,0.3021368682384491,0.5633969306945801,-0.45092689990997314,0.9510688781738281,0.6447052955627441,0.6554142236709595,-0.17223499715328217,0.9559893012046814,0.32400280237197876,0.456254780292511,-1.0284947156906128,0.9879570603370667,0.6604456305503845,0.6957303881645203,-0.22989343106746674,0.9247549772262573,0.3285660445690155,0.42837435007095337,-1.1323580741882324,0.9808328151702881,0.6520354747772217,0.6982671618461609,-0.29736149311065674,0.9317499399185181,0.317356675863266,0.40484970808029175,-1.1547107696533203,0.9806987643241882,0.6415149569511414,0.6890233755111694,-0.2009720504283905,0.9340420961380005,0.3208519220352173,0.4117988646030426,-1.0468405485153198,0.9735816121101379,0.5506594181060791,0.6544991731643677,0.04572581872344017,0.9974066615104675,0.40285634994506836,0.6631948947906494,-0.04569330811500549,0.9942260384559631,0.5545411109924316,0.8745800852775574,-0.1401539295911789,0.4791238605976105,0.42426663637161255,0.8734067678451538,-0.11670705676078796,0.4272657334804535,0.5411465764045715,1.0605422258377075,0.37199732661247253,0.1762048602104187,0.43974974751472473,1.0562726259231567,0.3357919454574585,0.1809873878955841,0.524798572063446,1.0821343660354614,0.40582382678985596,0.19102711975574493,0.444072425365448,1.0751538276672363,0.36864739656448364,0.09620024263858795,0.5794481039047241,1.1265604496002197,0.12333162873983383,0.14445143938064575,0.46140623092651367,1.1285394430160522,0.03821255639195442,0.14015373587608337
14826.22900195748,0.45935773849487305,0.2763412594795227,-0.5955079793930054,0.9996918439865112,0.47650450468063354,0.25591734051704407,-0.5510169863700867,0.9994268417358398,0.48763588070869446,0.2559562623500824,-0.5513167977333069,0.9993786811828613,0.49750787019729614,0.25640586018562317,-0.5515220761299133,0.9993157386779785,0.4438300132751465,0.2549203634262085,-0.5609089732170105,0.999126136302948,0.4302932024002075,0.25401827692985535,-0.5609826445579529,0.9990857839584351,0.4188227355480194,0.2535463571548462,-0.5611424446105957,0.9990137815475464,0.5077603459358215,0.26266998052597046,-0.25240567326545715,0.9993447661399841,0.39337629079818726,0.2609413266181946,-0.3078051209449768,0.9986314177513123,0.47320449352264404,0.2986968457698822,-0.48047056794166565,0.9997163414955139,0.4335733950138092,0.2978557050228119,-0.49629661440849304,0.9995952248573303,0.5665801167488098,0.3813432455062866,-0.07375433295965195,0.9997740387916565,0.3133695721626282,0.385416179895401,-0.14846017956733704,0.9989099502563477,0.5929985046386719,0.532455325126648,0.06113717705011368,0.921441912651062,0.30063536763191223,0.5623247623443604,-0.4299302101135254,0.9463108777999878,0.6416244506835938,0.6533255577087402,-0.14478299021720886,0.9330231547355652,0.32294368743896484,0.4556425213813782,-1.0282201766967773,0.986350953578949,0.6591968536376953,0.6942514181137085,-0.1970251053571701,0.8940396904945374,0.3304886519908905,0.429135262966156,-1.1342393159866333,0.9781169891357422,0.6510130167007446,0.6966853737831116,-0.26611921191215515,0.9032096862792969,0.3191280961036682,0.4042873680591583,-1.1522213220596313,0.9779472947120667,0.6396840810775757,0.6874642968177795,-0.17364148795604706,0.9077711701393127,0.32190340757369995,0.4122484028339386,-1.0454779863357544,0.9700446128845215,0.5509939789772034,0.6547662019729614,0.0312526673078537,0.9972012042999268,0.40509724617004395,0.6660355925559998,-0.031234433874487877,0.9938879609107971,0.5542474389076233,0.8772459626197815,-0.15248960256576538,0.45595455169677734,0.41369450092315674,0.8810534477233887,-0.09821021556854248,0.40671834349632263,0.5395015478134155,1.0618880987167358,0.38854190707206726,0.1589348316192627,0.4413934350013733,1.0570266246795654,0.367130309343338,0.1743205040693283,0.5247088670730591,1.0832481384277344,0.42514440417289734,0.1658961921930313,0.4476608633995056,1.0761922597885132,0.40175822377204895,0.1029093936085701,0.5715718865394592,1.1280298233032227,0.14266546070575714,0.1279822587966919,0.45473161339759827,1.1280676126480103,0.07269088923931122,0.13845929503440857
14842.895668624145,0.4587743878364563,0.27505138516426086,-0.586001992225647,0.9997320771217346,0.4758213460445404,0.25460636615753174,-0.5421358942985535,0.999502420425415,0.48698487877845764,0.2545304298400879,-0.5424466133117676,0.9994637370109558,0.4970199465751648,0.2549093961715698,-0.5426670908927917,0.9994156360626221,0.44268766045570374,0.2537876069545746,-0.5515332221984863,0.999247670173645,0.42915213108062744,0.2528669834136963,-0.5515857934951782,0.9991951584815979,0.4179336130619049,0.25241729617118835,-0.5517405271530151,0.9991351962089539,0.5075244307518005,0.26126816868782043,-0.24650438129901886,0.9994233846664429,0.3928620517253876,0.26026126742362976,-0.2988668382167816,0.9987905621528625,0.47336143255233765,0.2974972128868103,-0.4719139039516449,0.9997552037239075,0.4336358904838562,0.29671257734298706,-0.48684242367744446,0.9996459484100342,0.5667786002159119,0.38094770908355713,-0.0700477883219719,0.9997983574867249,0.3140622675418854,0.38602033257484436,-0.13957317173480988,0.9990167617797852,0.5934793949127197,0.5308903455734253,0.058236852288246155,0.9237123727798462,0.29653143882751465,0.5643377900123596,-0.4200459420681,0.9491174817085266,0.6417550444602966,0.6517170071601868,-0.15755251049995422,0.9326720237731934,0.3190450668334961,0.4576175808906555,-1.024685025215149,0.9874690771102905,0.659392237663269,0.6931580901145935,-0.2124260514974594,0.8938665986061096,0.3266069293022156,0.4300985038280487,-1.131919264793396,0.9797232747077942,0.6511151790618896,0.6960780024528503,-0.28021901845932007,0.9030624032020569,0.31686654686927795,0.40673863887786865,-1.1502411365509033,0.9794981479644775,0.6394757032394409,0.6860021352767944,-0.18615871667861938,0.9078571200370789,0.3199154734611511,0.4145301580429077,-1.0422767400741577,0.9719869494438171,0.550730288028717,0.6564159393310547,0.03144723176956177,0.997287392616272,0.4041256904602051,0.6675686836242676,-0.03141087293624878,0.9938818216323853,0.5538238883018494,0.8796578049659729,-0.15876471996307373,0.45182323455810547,0.42703279852867126,0.8803514838218689,-0.10038237273693085,0.4021565020084381,0.5411988496780396,1.0674333572387695,0.36010709404945374,0.1608087122440338,0.4409801959991455,1.0614371299743652,0.359589546918869,0.16595537960529327,0.526797890663147,1.0895333290100098,0.3942701518535614,0.17036597430706024,0.447385311126709,1.0808185338974,0.39349132776260376,0.09676250070333481,0.5746672749519348,1.1326282024383545,0.1085488349199295,0.12676960229873657,0.4549586772918701,1.1326149702072144,0.06318085640668869,0.12843133509159088
14859.562335290811,0.4560256600379944,0.2752630114555359,-0.6358320713043213,0.9997760653495789,0.4736376106739044,0.254766583442688,-0.5938017964363098,0.9995636343955994,0.4847598075866699,0.25480589270591736,-0.5940885543823242,0.9995286464691162,0.494953453540802,0.2552557587623596,-0.5942912101745605,0.9994816184043884,0.43977123498916626,0.25368085503578186,-0.6015859246253967,0.9993158578872681,0.42635005712509155,0.2526629865169525,-0.6016531586647034,0.9992743134498596,0.41505932807922363,0.2521534562110901,-0.6018013954162598,0.9992157220840454,0.5060647130012512,0.26164862513542175,-0.30374133586883545,0.9994935989379883,0.3909749686717987,0.26017168164253235,-0.3500477373600006,0.9987986087799072,0.4710281491279602,0.2979658842086792,-0.5238276124000549,0.9997841715812683,0.43048128485679626,0.29704639315605164,-0.5370281934738159,0.9996707439422607,0.5668468475341797,0.3811074495315552,-0.12907086312770844,0.9998107552528381,0.3130735456943512,0.38581082224845886,-0.17945103347301483,0.9989830851554871,0.5953948497772217,0.5320931673049927,0.010690897703170776,0.9382545351982117,0.2987525463104248,0.5638256072998047,-0.4466850161552429,0.9493946433067322,0.6450501084327698,0.655388355255127,-0.18828895688056946,0.9486106038093567,0.31988146901130676,0.45584529638290405,-1.0439538955688477,0.9894857406616211,0.6626006364822388,0.6967910528182983,-0.23944945633411407,0.9144681096076965,0.32509100437164307,0.42815136909484863,-1.1484472751617432,0.9830832481384277,0.6538445949554443,0.6992506980895996,-0.3087534010410309,0.921536922454834,0.31490328907966614,0.4058466851711273,-1.1661572456359863,0.9828590750694275,0.6429593563079834,0.6903398633003235,-0.2163206934928894,0.926103949546814,0.318217396736145,0.4131278991699219,-1.0608118772506714,0.976301372051239,0.5496405959129333,0.6550193428993225,0.024059658870100975,0.9974358677864075,0.4039090573787689,0.6652235388755798,-0.02413114719092846,0.9941527247428894,0.5524385571479797,0.8788237571716309,-0.15261314809322357,0.4176385700702667,0.425869882106781,0.8788504600524902,-0.08810305595397949,0.39278554916381836,0.5377734899520874,1.0582983493804932,0.39352697134017944,0.1423032134771347,0.43988269567489624,1.0539309978485107,0.3744300305843353,0.16540269553661346,0.5238187313079834,1.079406499862671,0.43122461438179016,0.15987809002399445,0.4467327892780304,1.072682499885559,0.40958476066589355,0.10110979527235031,0.5703635215759277,1.124151349067688,0.157821387052536,0.11979024112224579,0.4526267945766449,1.1256792545318604,0.0893765315413475,0.13023768365383148
14876.229001957478,0.4572056531906128,0.2778518795967102,-0.6628718972206116,0.9997699856758118,0.4744836688041687,0.2572881579399109,-0.6207485198974609,0.9995347261428833,0.48567092418670654,0.2573646306991577,-0.6210250854492188,0.9994907379150391,0.49558350443840027,0.2577931880950928,-0.6212183237075806,0.999428927898407,0.4410429298877716,0.2560582756996155,-0.6286051273345947,0.9992890357971191,0.42745068669319153,0.2551153600215912,-0.6286967992782593,0.9992471933364868,0.41596415638923645,0.25455570220947266,-0.6288535594940186,0.9991894364356995,0.5064233541488647,0.26377975940704346,-0.3256986439228058,0.9994509816169739,0.39126938581466675,0.26168128848075867,-0.3728332221508026,0.9987778067588806,0.471932590007782,0.2998960614204407,-0.548599362373352,0.999775230884552,0.43108028173446655,0.29920804500579834,-0.562110960483551,0.9996628761291504,0.5656332969665527,0.3821418285369873,-0.14303691685199738,0.9998002648353577,0.3130980134010315,0.38643500208854675,-0.1954336166381836,0.9990536570549011,0.5951857566833496,0.5327328443527222,0.00942046195268631,0.9393497109413147,0.29741141200065613,0.5625497102737427,-0.46264204382896423,0.9522817730903625,0.6459423899650574,0.65522301197052,-0.18438275158405304,0.9480103254318237,0.32363635301589966,0.45460766553878784,-1.063890814781189,0.9892826080322266,0.6629800796508789,0.6972993612289429,-0.23354583978652954,0.9131891131401062,0.3302733302116394,0.42814940214157104,-1.1687620878219604,0.9824478030204773,0.6540083885192871,0.6998432874679565,-0.30404260754585266,0.9199952483177185,0.3188924193382263,0.40390947461128235,-1.1846201419830322,0.9821047186851501,0.6434539556503296,0.6907755732536316,-0.21247130632400513,0.9242535829544067,0.32200419902801514,0.4117087423801422,-1.0797648429870605,0.9749314785003662,0.5489601492881775,0.6564262509346008,0.02236565575003624,0.9975378513336182,0.4036315977573395,0.6668785214424133,-0.02246631309390068,0.9944669008255005,0.5498233437538147,0.8795112371444702,-0.15135695040225983,0.41475433111190796,0.4200763404369354,0.8803755640983582,-0.07895246148109436,0.38247811794281006,0.5323638916015625,1.0586357116699219,0.4105079770088196,0.1417039930820465,0.4351210594177246,1.0549689531326294,0.4029220938682556,0.16665686666965485,0.5187040567398071,1.0797207355499268,0.4497582018375397,0.16072821617126465,0.4424280524253845,1.0738825798034668,0.4398421347141266,0.10621088743209839,0.5638320446014404,1.124563217163086,0.17454314231872559,0.1242540255188942,0.4448941648006439,1.126542091369629,0.11581307649612427,0.1366451531648636
14892.895668624144,0.46624407172203064,0.27618318796157837,-0.5635599493980408,0.9996954202651978,0.4819255471229553,0.2553737461566925,-0.5194347500801086,0.9994460940361023,0.4917448163032532,0.25515466928482056,-0.5197345018386841,0.999403715133667,0.5005766153335571,0.25539150834083557,-0.5199601650238037,0.999363362789154,0.45021259784698486,0.2549953758716583,-0.5320577621459961,0.9991274476051331,0.43666648864746094,0.25459960103034973,-0.532122790813446,0.9990633130073547,0.4241876006126404,0.2545333802700043,-0.5322572588920593,0.998994767665863,0.5068382024765015,0.2611256241798401,-0.22339369356632233,0.9993953704833984,0.3955938220024109,0.26191577315330505,-0.2910463213920593,0.9986060261726379,0.47779086232185364,0.29795923829078674,-0.448885977268219,0.9997103810310364,0.44108283519744873,0.2976008653640747,-0.4681771695613861,0.9995691180229187,0.5660728812217712,0.38022661209106445,-0.054224733263254166,0.9998194575309753,0.3151407837867737,0.38429227471351624,-0.1357177346944809,0.9989271759986877,0.5955395102500916,0.530911922454834,0.06953684985637665,0.92973393201828,0.3014395236968994,0.5617278218269348,-0.4077127277851105,0.9456826448440552,0.6470360159873962,0.6541996002197266,-0.1408064216375351,0.9413486123085022,0.31971412897109985,0.4543006420135498,-0.9873587489128113,0.98703533411026,0.6643246412277222,0.6963743567466736,-0.19654437899589539,0.904887855052948,0.3258112668991089,0.42757147550582886,-1.0915844440460205,0.9794759154319763,0.6551482677459717,0.6988890767097473,-0.2643149197101593,0.9131757020950317,0.31590187549591064,0.40391775965690613,-1.1123045682907104,0.979371964931488,0.6439440846443176,0.6897265911102295,-0.16958703100681305,0.9185270667076111,0.31822139024734497,0.40998974442481995,-1.0055845975875854,0.9721888303756714,0.5500379800796509,0.6540164351463318,0.033234208822250366,0.997485876083374,0.40391603112220764,0.6647505760192871,-0.03316938132047653,0.9943724870681763,0.5516451597213745,0.8796384930610657,-0.1478474736213684,0.45196643471717834,0.4275099039077759,0.878737211227417,-0.10510516911745071,0.3871631324291229,0.533805787563324,1.059773564338684,0.38725218176841736,0.1537937968969345,0.44114959239959717,1.054502010345459,0.3606220781803131,0.1702008992433548,0.5188839435577393,1.080987572669983,0.42384010553359985,0.17187896370887756,0.44828033447265625,1.0735973119735718,0.395313560962677,0.09861187636852264,0.5667946338653564,1.1258103847503662,0.15021540224552155,0.12685063481330872,0.45295777916908264,1.1258596181869507,0.07204694300889969,0.13300460577011108
14909.56233529081,0.46128302812576294,0.27385199069976807,-0.6274756789207458,0.9997751116752625,0.47665688395500183,0.2536468505859375,-0.5839423537254333,0.9995781779289246,0.4875189960002899,0.2536156475543976,-0.5842499732971191,0.999554455280304,0.4966574013233185,0.2538917660713196,-0.5844658017158508,0.9995114803314209,0.44380632042884827,0.2530687153339386,-0.5946332216262817,0.999313235282898,0.429718017578125,0.252469539642334,-0.594704806804657,0.9992682337760925,0.41813698410987854,0.25218841433525085,-0.5948525667190552,0.9991863369941711,0.5053020119667053,0.2601511478424072,-0.2897240221500397,0.9995465874671936,0.3915192782878876,0.26027342677116394,-0.3490762412548065,0.9988089799880981,0.47437795996665955,0.29597193002700806,-0.513774573802948,0.9997898936271667,0.4352872967720032,0.2956327497959137,-0.5308284163475037,0.9996509552001953,0.5661144256591797,0.379223108291626,-0.11927777528762817,0.9998438358306885,0.3125135600566864,0.3843826353549957,-0.18128369748592377,0.9988598823547363,0.5962784886360168,0.5320712327957153,0.014123314991593361,0.9478052258491516,0.29991984367370605,0.5604888200759888,-0.44887563586235046,0.941215991973877,0.6483296155929565,0.6571084260940552,-0.18758827447891235,0.9576000571250916,0.3201848864555359,0.4557919502258301,-1.037426471710205,0.9886067509651184,0.6623830795288086,0.6989332437515259,-0.238980233669281,0.9271928071975708,0.3238263726234436,0.4291191101074219,-1.1403449773788452,0.9822472929954529,0.6519292593002319,0.7018015384674072,-0.30868011713027954,0.9335847496986389,0.31470027565956116,0.4056369960308075,-1.1596423387527466,0.9820575714111328,0.64271479845047,0.6926554441452026,-0.21582195162773132,0.937484860420227,0.31803879141807556,0.4122597277164459,-1.0547237396240234,0.9753050804138184,0.5468247532844543,0.6537007689476013,0.024639783427119255,0.997553288936615,0.40013787150382996,0.6643458604812622,-0.024680815637111664,0.994289755821228,0.5493285655975342,0.8746444582939148,-0.13650690019130707,0.4259048402309418,0.422651082277298,0.8737655282020569,-0.07789172977209091,0.3820650577545166,0.5394194722175598,1.055489182472229,0.39395439624786377,0.13987194001674652,0.4414483904838562,1.0502878427505493,0.38185417652130127,0.16151931881904602,0.5263442397117615,1.0770678520202637,0.42992401123046875,0.1601799577474594,0.4492066204547882,1.0693869590759277,0.41652777791023254,0.10149772465229034,0.5734069347381592,1.1197922229766846,0.16006216406822205,0.11908058822154999,0.45146307349205017,1.1208478212356567,0.10156945139169693,0.1288972645998001
14926.229001957476,0.46699342131614685,0.27751612663269043,-0.6200260519981384,0.9997145533561707,0.48152896761894226,0.2563994824886322,-0.5792729258537292,0.9994625449180603,0.4908677935600281,0.2560124099254608,-0.5795642733573914,0.9994211196899414,0.49971818923950195,0.25603920221328735,-0.5797797441482544,0.9993808269500732,0.4500748813152313,0.25601935386657715,-0.5908015370368958,0.9991486072540283,0.43566104769706726,0.2555304169654846,-0.590901255607605,0.9990870952606201,0.42280223965644836,0.25572463870048523,-0.5910546779632568,0.9990115165710449,0.5047006011009216,0.26150307059288025,-0.28974825143814087,0.9994127750396729,0.3928469717502594,0.2629149556159973,-0.3526148498058319,0.9985717535018921,0.47783398628234863,0.2997693121433258,-0.506962239742279,0.9997296929359436,0.44197946786880493,0.3001444637775421,-0.5248957872390747,0.9995735287666321,0.5659250020980835,0.38073015213012695,-0.11261586099863052,0.9998378753662109,0.3134208917617798,0.3873356580734253,-0.1862419694662094,0.9989824891090393,0.5938953161239624,0.532721996307373,0.03308672085404396,0.9377678036689758,0.296211838722229,0.5658125281333923,-0.45035895705223083,0.9480538368225098,0.6483491659164429,0.655661940574646,-0.1572408378124237,0.9529967308044434,0.31876325607299805,0.4508311152458191,-1.0250364542007446,0.9890850186347961,0.6648242473602295,0.6969521641731262,-0.2070004642009735,0.922717273235321,0.3225575089454651,0.42031851410865784,-1.126710295677185,0.9826493263244629,0.6562001705169678,0.6991890668869019,-0.27746301889419556,0.929603099822998,0.3131283223628998,0.3988252282142639,-1.146696925163269,0.9824563264846802,0.6461907029151917,0.690075695514679,-0.18582063913345337,0.9340423345565796,0.3171493411064148,0.4070703983306885,-1.042598009109497,0.9761301875114441,0.5507375597953796,0.6570550203323364,0.029978131875395775,0.997520387172699,0.4049316942691803,0.6683357357978821,-0.029960865154862404,0.9945218563079834,0.5494669675827026,0.8781962990760803,-0.12532009184360504,0.4381940960884094,0.4222319722175598,0.8768439292907715,-0.08060885965824127,0.3950360119342804,0.5351278185844421,1.0565001964569092,0.40647777915000916,0.1489311158657074,0.43667665123939514,1.0534332990646362,0.3792056739330292,0.16472908854484558,0.5208410620689392,1.0770435333251953,0.4435575306415558,0.17241208255290985,0.4436560869216919,1.0714601278305054,0.414522647857666,0.09914790093898773,0.5684944987297058,1.1226482391357422,0.1774492710828781,0.1261911541223526,0.44974228739738464,1.1264448165893555,0.1009601578116417,0.1282581388950348
14942.895668624142,0.46717536449432373,0.2767142057418823,-0.5851020216941833,0.9997121691703796,0.4803459048271179,0.25523680448532104,-0.5428035855293274,0.9994668364524841,0.489740252494812,0.25473299622535706,-0.5430850982666016,0.9994188547134399,0.49800905585289,0.25464895367622375,-0.5433027744293213,0.9993877410888672,0.44986778497695923,0.2554536461830139,-0.5557863116264343,0.9991763234138489,0.4358406960964203,0.25520890951156616,-0.5558465719223022,0.999110758304596,0.4230034351348877,0.25558122992515564,-0.5559853315353394,0.9990461468696594,0.5023855566978455,0.260283499956131,-0.25043192505836487,0.999414324760437,0.39271247386932373,0.26324954628944397,-0.3190547227859497,0.9986756443977356,0.4774020314216614,0.29875877499580383,-0.47125622630119324,0.9996986389160156,0.4426894187927246,0.2998090386390686,-0.49075740575790405,0.9995495676994324,0.5636909008026123,0.38005009293556213,-0.06963761895895004,0.9998250603675842,0.3143458962440491,0.38727203011512756,-0.16677193343639374,0.9990018010139465,0.591918408870697,0.5314527750015259,0.0760473981499672,0.9247435927391052,0.29818663001060486,0.565001904964447,-0.44427770376205444,0.9482587575912476,0.6471896767616272,0.6543778777122498,-0.10938290506601334,0.9461045861244202,0.31773900985717773,0.4496228098869324,-1.0131868124008179,0.9883574843406677,0.6645601987838745,0.6972581744194031,-0.15868286788463593,0.9131193161010742,0.32198566198349,0.41890883445739746,-1.1156470775604248,0.9814469814300537,0.6581627130508423,0.6996666193008423,-0.22792285680770874,0.9208405613899231,0.3117619752883911,0.3966996669769287,-1.1371750831604004,0.981361448764801,0.6473093628883362,0.6895643472671509,-0.13823288679122925,0.9258963465690613,0.3152354955673218,0.40490129590034485,-1.031536340713501,0.9747493267059326,0.5484704375267029,0.6573835015296936,0.03527257591485977,0.9976826906204224,0.4035183787345886,0.6710132956504822,-0.03517575189471245,0.9949487447738647,0.5510550737380981,0.8809671998023987,-0.1225859671831131,0.4567675292491913,0.42535263299942017,0.8813110589981079,-0.0930955559015274,0.4015803039073944,0.5329076647758484,1.0617073774337769,0.3823322653770447,0.16913442313671112,0.43799492716789246,1.0590026378631592,0.34448257088661194,0.17461004853248596,0.5173892974853516,1.0831642150878906,0.41613003611564636,0.18465015292167664,0.4452987611293793,1.078074336051941,0.3770979642868042,0.1017734482884407,0.5680932402610779,1.1270010471343994,0.1437828689813614,0.1385483741760254,0.4494759738445282,1.1311583518981934,0.059389378875494,0.13647229969501495
14959.562335290808,0.46131283044815063,0.27745622396469116,-0.6278254985809326,0.9997705817222595,0.47652512788772583,0.2561589777469635,-0.5873516201972961,0.9995515942573547,0.48646071553230286,0.2557758390903473,-0.5876330733299255,0.9995238780975342,0.49537405371665955,0.2556784749031067,-0.5878579020500183,0.999496340751648,0.4447576701641083,0.25591978430747986,-0.596988320350647,0.9992964267730713,0.43080228567123413,0.2556862533092499,-0.597061038017273,0.9992520213127136,0.41908326745033264,0.25570032000541687,-0.5971793532371521,0.9991865754127502,0.5022748112678528,0.26123273372650146,-0.29860690236091614,0.9995216131210327,0.3922668397426605,0.26260867714881897,-0.3524033725261688,0.9987689852714539,0.4735719561576843,0.2990182936191559,-0.5149272084236145,0.9997515082359314,0.4361116588115692,0.2993065416812897,-0.5302490592002869,0.999599039554596,0.5661201477050781,0.3804755210876465,-0.11983168870210648,0.9998469352722168,0.3135643005371094,0.38514116406440735,-0.1828335076570511,0.9990768432617188,0.595104455947876,0.5314459204673767,0.021811921149492264,0.9414322972297668,0.3002907335758209,0.5635132789611816,-0.4500596225261688,0.9487224817276001,0.6494494080543518,0.6555023193359375,-0.17316573858261108,0.9499073624610901,0.31924277544021606,0.4483787417411804,-1.0333207845687866,0.9891802072525024,0.6667343378067017,0.698573887348175,-0.22335296869277954,0.9167971014976501,0.32449352741241455,0.4206749498844147,-1.1371437311172485,0.9820771217346191,0.6587983965873718,0.7011566162109375,-0.2950499355792999,0.9244264364242554,0.31496819853782654,0.39878150820732117,-1.1569887399673462,0.9818735122680664,0.647716224193573,0.6911619305610657,-0.20265266299247742,0.9291393160820007,0.3181588053703308,0.4064096510410309,-1.05141282081604,0.9753562211990356,0.550639808177948,0.6519644260406494,0.02337486483156681,0.9976527094841003,0.404072642326355,0.6625502705574036,-0.023368986323475838,0.9947690367698669,0.5504778623580933,0.878445029258728,-0.13479597866535187,0.44208621978759766,0.4243283271789551,0.8745346069335938,-0.08111431449651718,0.40737906098365784,0.5315291285514832,1.0590492486953735,0.38035139441490173,0.16023823618888855,0.43669191002845764,1.0535467863082886,0.3557692766189575,0.18317610025405884,0.5172452330589294,1.0802464485168457,0.4151807129383087,0.17132194340229034,0.4447135925292969,1.0729680061340332,0.3884287476539612,0.11074966192245483,0.5635030269622803,1.12522292137146,0.1436106562614441,0.13448555767536163,0.44380998611450195,1.1254079341888428,0.07432978600263596,0.1440199613571167
14976.229001957474,0.4534684121608734,0.27543044090270996,-0.6234023571014404,0.9997091889381409,0.4704984426498413,0.2544380724430084,-0.5804713368415833,0.9994381070137024,0.4805099070072174,0.2541444003582001,-0.5807644128799438,0.9993933439254761,0.49100467562675476,0.254292368888855,-0.580979585647583,0.999340832233429,0.43602222204208374,0.25462740659713745,-0.5884113907814026,0.9991662502288818,0.4229692220687866,0.2545287311077118,-0.5884858965873718,0.9991260170936584,0.4116511344909668,0.2546752691268921,-0.5886595845222473,0.9990506768226624,0.5011669397354126,0.2606433928012848,-0.2866986393928528,0.9993767142295837,0.38925960659980774,0.26277971267700195,-0.3312261402606964,0.9986458420753479,0.469801127910614,0.2977907359600067,-0.5097929239273071,0.9997223019599915,0.4283175468444824,0.29827091097831726,-0.5225001573562622,0.9995678067207336,0.565824568271637,0.3811430335044861,-0.10097576677799225,0.9997743964195251,0.3144720792770386,0.3873930275440216,-0.1716163009405136,0.9989774227142334,0.5936033725738525,0.5320911407470703,0.04578767716884613,0.9232586622238159,0.2966863512992859,0.5667232275009155,-0.4573076367378235,0.9472542405128479,0.6491719484329224,0.6540341973304749,-0.1473609209060669,0.9347993731498718,0.3196903467178345,0.4524277448654175,-1.0615462064743042,0.9886660575866699,0.6674829721450806,0.6985175609588623,-0.19571998715400696,0.8966712355613708,0.3252323865890503,0.4226013123989105,-1.1678404808044434,0.9814033508300781,0.6601278781890869,0.7008544206619263,-0.26571935415267944,0.9058752059936523,0.3151540160179138,0.40167632699012756,-1.1864176988601685,0.9811119437217712,0.6486697196960449,0.69080650806427,-0.17610645294189453,0.911217212677002,0.3180721402168274,0.4094347357749939,-1.0792838335037231,0.9739147424697876,0.5529931783676147,0.6589639186859131,0.027242694050073624,0.9973558187484741,0.40831947326660156,0.6720491051673889,-0.02724553272128105,0.9942525029182434,0.5538747310638428,0.8832589387893677,-0.14935146272182465,0.45357614755630493,0.427925705909729,0.8849383592605591,-0.08299127221107483,0.41036245226860046,0.5399198532104492,1.0714733600616455,0.38080599904060364,0.16904830932617188,0.44221043586730957,1.0656039714813232,0.3746863603591919,0.18046239018440247,0.5253584384918213,1.0936254262924194,0.41595667600631714,0.18041014671325684,0.4503882825374603,1.0853310823440552,0.4087785482406616,0.11009512096643448,0.5742552280426025,1.1363985538482666,0.131077840924263,0.1367729902267456,0.4512040913105011,1.1371675729751587,0.08344236016273499,0.14465828239917755
14992.89566862414,0.45306065678596497,0.2756466269493103,-0.6180250644683838,0.9997005462646484,0.47013741731643677,0.25458306074142456,-0.5753280520439148,0.9994189739227295,0.4801456332206726,0.2542714774608612,-0.5756191611289978,0.99937504529953,0.4907735586166382,0.25440508127212524,-0.5758305788040161,0.9993200302124023,0.4354822039604187,0.2548105716705322,-0.5829710960388184,0.9991307854652405,0.4224592447280884,0.25472989678382874,-0.5830428600311279,0.9990880489349365,0.41117554903030396,0.2548939883708954,-0.58321613073349,0.9990079998970032,0.5012689232826233,0.26071715354919434,-0.28298690915107727,0.9993578791618347,0.38904157280921936,0.2629540264606476,-0.32615968585014343,0.9985673427581787,0.4696100950241089,0.2980054020881653,-0.5050248503684998,0.9997120499610901,0.4280918836593628,0.29867494106292725,-0.517317533493042,0.9995490908622742,0.5660025477409363,0.38103994727134705,-0.09892890602350235,0.9997746348381042,0.3145720064640045,0.387663871049881,-0.16723427176475525,0.9989418387413025,0.5934441089630127,0.5321347713470459,0.046431828290224075,0.9251433610916138,0.29631751775741577,0.5667657256126404,-0.4534110724925995,0.9463695287704468,0.6491668820381165,0.6541180610656738,-0.14600279927253723,0.9380409121513367,0.31909120082855225,0.45221376419067383,-1.0574856996536255,0.988680362701416,0.6675974726676941,0.6985360980033875,-0.19425474107265472,0.9007807374000549,0.3249218761920929,0.4221181869506836,-1.163439154624939,0.9814971685409546,0.6602104902267456,0.7007548809051514,-0.2639821469783783,0.9095896482467651,0.3147222101688385,0.40107980370521545,-1.181855320930481,0.9812073111534119,0.6487405300140381,0.6906303763389587,-0.1745898723602295,0.9147210121154785,0.3175645172595978,0.4090557396411896,-1.0751869678497314,0.9740743041038513,0.5529013872146606,0.6593964695930481,0.02752084657549858,0.9973256587982178,0.4086686968803406,0.6727432012557983,-0.02752038463950157,0.9942270517349243,0.5540484189987183,0.8826186060905457,-0.14825473725795746,0.45323824882507324,0.42804303765296936,0.8846542835235596,-0.08498857170343399,0.4109090566635132,0.5392622351646423,1.0702054500579834,0.38160842657089233,0.1692630797624588,0.4424508810043335,1.0650990009307861,0.3708324432373047,0.1805817037820816,0.5245654582977295,1.092200517654419,0.41681212186813354,0.18174418807029724,0.45049041509628296,1.0846900939941406,0.40475982427597046,0.10945706069469452,0.5734469890594482,1.1352684497833252,0.13293465971946716,0.13707281649112701,0.45208990573883057,1.1367710828781128,0.07988886535167694,0.14411510527133942
15009.562335290806,0.45140349864959717,0.2755979597568512,-0.6066418290138245,0.999783456325531,0.46901804208755493,0.2545658349990845,-0.5638746619224548,0.9995802044868469,0.47854170203208923,0.2542351186275482,-0.5641738176345825,0.9995654225349426,0.48940831422805786,0.2542443871498108,-0.5643948912620544,0.9995144605636597,0.4335172772407532,0.2545018792152405,-0.5699235200881958,0.9993507266044617,0.42096126079559326,0.2543400824069977,-0.5699687600135803,0.99931800365448,0.4097568988800049,0.25425252318382263,-0.5701072216033936,0.9992436170578003,0.5006035566329956,0.260250449180603,-0.2767582833766937,0.9995716214179993,0.38888487219810486,0.26195335388183594,-0.31256866455078125,0.9989057779312134,0.46849462389945984,0.29764702916145325,-0.4962197244167328,0.9997904896736145,0.4264572858810425,0.29801270365715027,-0.5063294172286987,0.9996577501296997,0.5672138929367065,0.38132530450820923,-0.10863333940505981,0.9998036026954651,0.31308263540267944,0.3874150812625885,-0.14474676549434662,0.9989230036735535,0.5945088863372803,0.5328755378723145,0.023530665785074234,0.9416728019714355,0.2939333915710449,0.5667378306388855,-0.41697365045547485,0.9451816082000732,0.6512923240661621,0.6549985408782959,-0.17576724290847778,0.9483305811882019,0.31749796867370605,0.4515395164489746,-1.0189810991287231,0.989941418170929,0.6697115898132324,0.698738157749176,-0.22725389897823334,0.9137372970581055,0.32501858472824097,0.4217274785041809,-1.1243174076080322,0.9833579659461975,0.662459135055542,0.7009066343307495,-0.2977704405784607,0.9214149713516235,0.3149527311325073,0.4009304642677307,-1.1412160396575928,0.9830319881439209,0.6511586904525757,0.6906628012657166,-0.20492930710315704,0.9269348978996277,0.31751367449760437,0.40871208906173706,-1.0362614393234253,0.9767018556594849,0.5518988966941833,0.6596124172210693,0.017145467922091484,0.9972165822982788,0.40594911575317383,0.6733352541923523,-0.01709340699017048,0.9940304160118103,0.5534175634384155,0.8813873529434204,-0.14536957442760468,0.5224164724349976,0.4234011471271515,0.8833682537078857,-0.06782027333974838,0.4743994474411011,0.5268136262893677,1.0420072078704834,0.3947999179363251,0.1947963833808899,0.4414922595024109,1.0602991580963135,0.3917255699634552,0.2129489779472351,0.5190971493721008,1.0873968601226807,0.430780827999115,0.1961534470319748,0.4511210024356842,1.0802063941955566,0.425984650850296,0.1317223161458969,0.5646594762802124,1.1310594081878662,0.15342752635478973,0.15160030126571655,0.4445344805717468,1.1309564113616943,0.108761265873909,0.164264976978302
