0,1
19430.476121491432,-805.0
19430.47618398867,-851.0
19430.47624648591,-683.0
19430.476308983147,-238.0
19430.47637148038,-34.0
19430.47643397762,-21.0
19430.476496474857,-23.0
19430.476558972096,-119.0
19430.47662146933,-98.0
19430.476683966568,-213.0
19430.476746463806,-136.0
19430.476808961044,122.0
19430.47687145828,20.0
19430.476933955517,159.0
19430.476996452755,150.0
19430.477058949993,-38.0
19430.477121447228,108.0
19430.477183944466,184.0
19430.477246441704,258.0
19430.477308938942,254.0
19430.477371436176,134.0
19430.477433933414,47.0
19430.477496430653,215.0
19430.477558927887,216.0
19430.477621425125,-43.0
19430.477683922363,-47.0
19430.4777464196,150.0
19430.477808916836,193.0
19430.477871414074,-20.0
19430.477933911312,-115.0
19430.47799640855,-172.0
19430.478058905785,-250.0
19430.478121403023,-104.0
19430.47818390026,-23.0
19430.4782463975,-88.0
19430.478308894733,171.0
19430.47837139197,215.0
19430.47843388921,15.0
19430.478496386448,56.0
19430.478558883682,83.0
19430.47862138092,87.0
19430.47868387816,37.0
19430.478746375396,69.0
19430.47880887263,155.0
19430.47887136987,211.0
19430.478933867107,254.0
19430.47899636434,276.0
19430.47905886158,162.0
19430.479121358818,1.0
19430.479183856056,49.0
19430.479246353294,61.0
19430.47930885053,-65.0
19430.479371347767,-142.0
19430.479433845005,-76.0
19430.47949634224,-111.0
19430.479558839477,-194.0
19430.479621336715,-152.0
19430.479683833953,-240.0
19430.479746331188,-318.0
19430.479808828426,-315.0
19430.479871325664,-237.0
19430.479933822902,-274.0
19430.479996320137,-256.0
19430.480058817375,-183.0
19430.480121314613,-205.0
19430.48018381185,-211.0
19430.480246309085,-418.0
19430.480308806324,-492.0
19430.48037130356,-367.0
19430.4804338008,-290.0
19430.480496298034,-380.0
19430.480558795272,-427.0
19430.48062129251,-271.0
19430.48068378975,-294.0
19430.480746286983,-100.0
19430.48080878422,109.0
19430.48087128146,-117.0
19430.480933778694,-196.0
19430.480996275932,-57.0
19430.48105877317,57.0
19430.481121270408,83.0
19430.481183767646,-104.0
19430.48124626488,-76.0
19430.48130876212,-92.0
19430.481371259357,-28.0
19430.48143375659,11.0
19430.48149625383,-118.0
19430.481558751067,1.0
19430.481621248306,57.0
19430.48168374554,70.0
19430.481746242778,0.0
19430.481808740016,-302.0
19430.481871237254,-495.0
19430.48193373449,-520.0
19430.481996231727,-614.0
19430.482058728965,-642.0
19430.482121226203,-547.0
19430.482183723438,-538.0
19430.482246220676,-317.0
19430.482308717914,-59.0
19430.482371215152,-216.0
19430.482433712386,-271.0
19430.482496209625,-333.0
19430.482558706863,-363.0
19430.4826212041,-309.0
19430.482683701335,-514.0
19430.482746198573,-274.0
19430.48280869581,-35.0
19430.482871193046,-18.0
19430.482933690284,295.0
19430.482996187522,246.0
19430.48305868476,289.0
19430.483121181995,267.0
19430.483183679233,-12.0
19430.48324617647,-201.0
19430.48330867371,-370.0
19430.483371170943,-308.0
19430.48343366818,-244.0
19430.48349616542,-34.0
19430.483558662658,220.0
19430.483621159892,279.0
19430.48368365713,157.0
19430.48374615437,62.0
19430.483808651607,-37.0
19430.48387114884,-195.0
19430.48393364608,-291.0
19430.483996143317,-264.0
19430.484058640555,-345.0
19430.48412113779,-325.0
19430.484183635028,-233.0
19430.484246132266,-193.0
19430.4843086295,-169.0
19430.48437112674,-111.0
19430.484433623977,23.0
19430.484496121215,-91.0
19430.484558618453,-72.0
19430.484621115687,-185.0
19430.484683612925,-348.0
19430.484746110164,-127.0
19430.484808607398,-111.0
19430.484871104636,-157.0
19430.484933601874,-117.0
19430.484996099112,-43.0
19430.485058596347,289.0
19430.485121093585,519.0
19430.485183590823,528.0
19430.48524608806,621.0
19430.485308585296,613.0
19430.485371082534,613.0
19430.48543357977,402.0
19430.48549607701,209.0
19430.485558574244,145.0
19430.485621071482,147.0
19430.48568356872,185.0
19430.48574606596,245.0
19430.485808563193,402.0
19430.48587106043,246.0
19430.48593355767,-65.0
19430.485996054907,-77.0
19430.486058552142,-147.0
19430.48612104938,-208.0
19430.486183546618,-35.0
19430.486246043853,-10.0
19430.48630854109,-4.0
19430.48637103833,-52.0
19430.486433535567,-143.0
19430.486496032805,-163.0
19430.48655853004,-101.0
19430.486621027278,42.0
19430.486683524516,-40.0
19430.48674602175,-86.0
19430.48680851899,-144.0
19430.486871016226,-165.0
19430.486933513464,63.0
19430.4869960107,152.0
19430.487058507937,226.0
19430.487121005175,281.0
19430.487183502413,225.0
19430.487245999648,160.0
19430.487308496886,3.0
19430.487370994124,-30.0
19430.487433491362,112.0
19430.487495988596,236.0
19430.487558485835,398.0
19430.487620983073,376.0
19430.48768348031,87.0
19430.487745977545,170.0
19430.487808474783,289.0
19430.48787097202,163.0
19430.48793346926,342.0
19430.487995966494,313.0
19430.488058463732,276.0
19430.48812096097,495.0
19430.488183458205,429.0
19430.488245955443,131.0
19430.48830845268,-37.0
19430.48837094992,197.0
19430.488433447154,166.0
19430.48849594439,-39.0
19430.48855844163,-118.0
19430.488620938868,-258.0
19430.488683436102,43.0
19430.48874593334,400.0
19430.48880843058,390.0
19430.488870927817,267.0
19430.48893342505,218.0
19430.48899592229,266.0
19430.489058419527,328.0
19430.489120916765,124.0
19430.489183414,-185.0
19430.489245911238,76.0
19430.489308408476,388.0
19430.489370905714,127.0
19430.48943340295,-33.0
19430.489495900187,165.0
19430.489558397425,291.0
19430.489620894663,357.0
19430.489683391897,151.0
19430.489745889136,86.0
19430.489808386374,269.0
19430.48987088361,95.0
19430.489933380846,-3.0
19430.489995878084,-1.0
19430.490058375322,-135.0
19430.490120872557,-126.0
19430.490183369795,-86.0
19430.490245867033,-83.0
19430.49030836427,57.0
19430.490370861506,31.0
19430.490433358744,72.0
19430.490495855982,100.0
19430.49055835322,41.0
19430.490620850454,85.0
19430.490683347693,-135.0
19430.49074584493,-270.0
19430.49080834217,-261.0
19430.490870839403,-411.0
19430.49093333664,-428.0
19430.49099583388,-328.0
19430.491058331118,-434.0
19430.491120828352,-470.0
19430.49118332559,-195.0
19430.49124582283,-5.0
19430.491308320066,-144.0
19430.4913708173,-185.0
19430.49143331454,15.0
19430.491495811777,-80.0
19430.49155830901,-349.0
19430.49162080625,-405.0
19430.491683303488,-675.0
19430.491745800726,-464.0
19430.491808297964,-185.0
19430.4918707952,-168.0
19430.491933292436,116.0
19430.491995789675,192.0
19430.49205828691,283.0
19430.492120784147,290.0
19430.492183281385,2.0
19430.492245778623,-128.0
19430.492308275858,-192.0
19430.492370773096,-143.0
19430.492433270334,-146.0
19430.492495767572,-249.0
19430.492558264807,-29.0
19430.492620762045,253.0
19430.492683259283,260.0
19430.49274575652,171.0
19430.492808253755,250.0
19430.492870750993,225.0
19430.49293324823,176.0
19430.49299574547,39.0
19430.493058242704,-26.0
19430.493120739942,-72.0
19430.49318323718,-77.0
19430.49324573442,-142.0
19430.493308231653,-187.0
19430.49337072889,-67.0
19430.49343322613,9.0
19430.493495723364,162.0
19430.4935582206,214.0
19430.49362071784,142.0
19430.493683215078,180.0
19430.493745712312,333.0
19430.49380820955,476.0
19430.49387070679,403.0
19430.493933204027,316.0
19430.49399570126,289.0
19430.4940581985,327.0
19430.494120695737,246.0
19430.494183192975,300.0
19430.49424569021,501.0
19430.494308187448,588.0
19430.494370684686,546.0
19430.494433181924,354.0
19430.49449567916,196.0
19430.494558176397,31.0
19430.494620673635,30.0
19430.494683170873,-112.0
19430.494745668107,-316.0
19430.494808165346,-216.0
19430.494870662584,-194.0
19430.49493315982,-199.0
19430.494995657056,-251.0
19430.495058154294,-224.0
19430.495120651532,55.0
19430.49518314877,64.0
19430.495245646005,-101.0
19430.495308143243,-127.0
19430.49537064048,30.0
19430.495433137716,263.0
19430.495495634954,339.0
19430.495558132192,363.0
19430.49562062943,375.0
19430.495683126665,483.0
19430.495745623903,648.0
19430.49580812114,427.0
19430.49587061838,273.0
19430.495933115613,200.0
19430.49599561285,93.0
19430.49605811009,100.0
19430.496120607328,-129.0
19430.496183104562,-120.0
19430.4962456018,-85.0
19430.49630809904,-22.0
19430.496370596276,76.0
19430.49643309351,-33.0
19430.49649559075,0.0
19430.496558087987,61.0
19430.496620585225,220.0
19430.49668308246,250.0
19430.496745579698,58.0
19430.496808076936,-67.0
19430.49687057417,-214.0
19430.49693307141,-222.0
19430.496995568647,-338.0
19430.497058065885,-371.0
19430.497120563123,-533.0
19430.497183060357,-453.0
19430.497245557595,-83.0
19430.497308054833,-338.0
19430.497370552068,-402.0
19430.497433049306,-294.0
19430.497495546544,-259.0
19430.497558043782,-141.0
19430.497620541017,-69.0
19430.497683038255,-243.0
19430.497745535493,-143.0
19430.49780803273,51.0
19430.497870529965,-86.0
19430.497933027204,-83.0
19430.49799552444,-120.0
19430.49805802168,-108.0
19430.498120518914,-9.0
19430.498183016152,-16.0
19430.49824551339,-236.0
19430.49830801063,-682.0
19430.498370507863,-717.0
19430.4984330051,-468.0
19430.49849550234,-248.0
19430.498557999577,-270.0
19430.49862049681,-318.0
19430.49868299405,-120.0
19430.498745491288,-60.0
19430.498807988522,-113.0
19430.49887048576,-53.0
19430.498932983,-49.0
19430.498995480237,-168.0
19430.49905797747,-136.0
19430.49912047471,71.0
19430.499182971947,156.0
19430.499245469186,47.0
19430.49930796642,-154.0
19430.499370463658,-237.0
19430.499432960896,-162.0
19430.499495458134,-331.0
19430.49955795537,-426.0
19430.499620452607,-428.0
19430.499682949845,-428.0
19430.499745447083,-275.0
19430.499807944318,-309.0
19430.499870441556,-295.0
19430.499932938794,-172.0
19430.499995436032,-106.0
19430.500057933266,-55.0
19430.500120430504,-101.0
19430.500182927743,-240.0
19430.50024542498,-270.0
19430.500307922215,-249.0
19430.500370419453,-306.0
19430.50043291669,-373.0
19430.50049541393,-520.0
19430.500557911164,-414.0
19430.500620408402,-256.0
19430.50068290564,-272.0
19430.500745402875,-257.0
19430.500807900113,-277.0
19430.50087039735,-393.0
19430.50093289459,-401.0
19430.500995391823,-362.0
19430.50105788906,-368.0
19430.5011203863,-534.0
19430.501182883538,-519.0
19430.501245380772,-338.0
19430.50130787801,-531.0
19430.50137037525,-401.0
19430.501432872486,-233.0
19430.50149536972,-410.0
19430.50155786696,-332.0
19430.501620364197,-433.0
19430.501682861435,-471.0
19430.50174535867,-338.0
19430.501807855908,-150.0
19430.501870353146,-57.0
19430.501932850384,108.0
19430.50199534762,53.0
19430.502057844857,-86.0
19430.502120342095,-96.0
19430.50218283933,-253.0
19430.502245336567,-125.0
19430.502307833805,30.0
19430.502370331043,-67.0
19430.50243282828,-120.0
19430.502495325516,-79.0
19430.502557822754,-279.0
19430.502620319992,-503.0
19430.502682817227,-434.0
19430.502745314465,-229.0
19430.502807811703,-100.0
19430.50287030894,-204.0
19430.502932806176,-292.0
19430.502995303414,-165.0
19430.50305780065,-130.0
19430.50312029789,-331.0
19430.503182795124,-417.0
19430.503245292362,-369.0
19430.5033077896,-287.0
19430.50337028684,-135.0
19430.503432784073,-222.0
19430.50349528131,-384.0
19430.50355777855,-372.0
19430.503620275787,-386.0
19430.503682773022,-502.0
19430.50374527026,-594.0
19430.503807767498,-488.0
19430.503870264736,-393.0
19430.50393276197,-283.0
19430.50399525921,-310.0
19430.504057756447,-326.0
19430.50412025368,-162.0
19430.50418275092,-217.0
19430.504245248158,-204.0
19430.504307745396,12.0
19430.504370242634,176.0
19430.50443273987,234.0
19430.504495237106,216.0
19430.504557734344,184.0
19430.50462023158,259.0
19430.504682728817,322.0
19430.504745226055,375.0
19430.504807723293,394.0
19430.504870220528,381.0
19430.504932717766,334.0
19430.504995215004,246.0
19430.505057712242,131.0
19430.505120209476,185.0
19430.505182706715,267.0
19430.505245203953,222.0
19430.50530770119,16.0
19430.505370198425,-104.0
19430.505432695663,-144.0
19430.5054951929,-301.0
19430.50555769014,-317.0
19430.505620187374,-306.0
19430.505682684612,-338.0
19430.50574518185,-303.0
19430.50580767909,-149.0
19430.505870176323,-275.0
19430.50593267356,-422.0
19430.5059951708,-263.0
19430.506057668033,-216.0
19430.50612016527,-125.0
19430.50618266251,-158.0
19430.506245159748,-254.0
19430.506307656982,-369.0
19430.50637015422,-461.0
19430.50643265146,-315.0
19430.506495148697,-450.0
19430.50655764593,-469.0
19430.50662014317,-268.0
19430.506682640407,-312.0
19430.506745137645,-241.0
19430.50680763488,-116.0
19430.506870132118,-17.0
19430.506932629356,102.0
19430.506995126594,79.0
19430.50705762383,50.0
19430.507120121067,122.0
19430.507182618305,53.0
19430.507245115543,-25.0
19430.507307612777,-8.0
19430.507370110015,57.0
19430.507432607254,196.0
19430.50749510449,203.0
19430.507557601726,101.0
19430.507620098964,11.0
19430.507682596202,157.0
19430.50774509344,272.0
19430.507807590675,171.0
19430.507870087913,53.0
19430.50793258515,88.0
19430.507995082386,303.0
19430.508057579624,265.0
19430.50812007686,98.0
19430.5081825741,12.0
19430.508245071334,80.0
19430.508307568572,236.0
19430.50837006581,283.0
19430.50843256305,356.0
19430.508495060283,387.0
19430.50855755752,304.0
19430.50862005476,256.0
19430.508682551997,80.0
19430.508745049232,19.0
19430.50880754647,266.0
19430.508870043708,323.0
19430.508932540946,217.0
19430.50899503818,135.0
19430.50905753542,39.0
19430.509120032657,-69.0
19430.509182529895,-94.0
19430.50924502713,-134.0
19430.509307524368,-79.0
19430.509370021606,29.0
19430.50943251884,67.0
19430.50949501608,64.0
19430.509557513316,186.0
19430.509620010554,374.0
19430.509682507793,166.0
19430.509745005027,-4.0
19430.509807502265,40.0
19430.509869999503,-118.0
19430.509932496738,-29.0
19430.509994993976,393.0
19430.510057491214,478.0
19430.510119988452,463.0
19430.510182485687,641.0
19430.510244982925,779.0
19430.510307480163,831.0
19430.5103699774,659.0
19430.510432474635,594.0
19430.510494971873,686.0
19430.51055746911,502.0
19430.51061996635,359.0
19430.510682463584,322.0
19430.510744960822,222.0
19430.51080745806,283.0
19430.5108699553,184.0
19430.510932452533,96.0
19430.51099494977,169.0
19430.51105744701,115.0
19430.511119944247,148.0
19430.51118244148,259.0
19430.51124493872,352.0
19430.511307435958,186.0
19430.511369933192,168.0
19430.51143243043,387.0
19430.51149492767,362.0
19430.511557424907,205.0
19430.51161992214,238.0
19430.51168241938,306.0
19430.511744916617,444.0
19430.511807413855,491.0
19430.51186991109,341.0
19430.511932408328,245.0
19430.511994905566,146.0
19430.512057402804,39.0
19430.51211990004,-56.0
19430.512182397277,-131.0
19430.512244894515,-172.0
19430.512307391753,-30.0
19430.512369888987,-126.0
19430.512432386226,-321.0
19430.512494883464,-318.0
19430.5125573807,-349.0
19430.512619877936,-361.0
19430.512682375174,-318.0
19430.512744872412,-52.0
19430.51280736965,128.0
19430.512869866885,155.0
19430.512932364123,8.0
19430.51299486136,-78.0
19430.5130573586,-78.0
19430.513119855834,-94.0
19430.513182353072,-132.0
19430.51324485031,-253.0
19430.513307347544,-235.0
19430.513369844783,-235.0
19430.51343234202,-339.0
19430.51349483926,-269.0
19430.513557336493,-87.0
19430.51361983373,-55.0
19430.51368233097,-16.0
19430.513744828208,141.0
19430.513807325442,320.0
19430.51386982268,414.0
19430.51393231992,493.0
19430.513994817156,406.0
19430.51405731439,296.0
19430.51411981163,444.0
19430.514182308867,526.0
19430.514244806105,558.0
19430.51430730334,565.0
19430.514369800578,477.0
19430.514432297816,406.0
19430.514494795054,510.0
19430.51455729229,626.0
19430.514619789526,461.0
19430.514682286765,283.0
19430.514744784,166.0
19430.514807281237,-57.0
19430.514869778475,-50.0
19430.514932275713,20.0
19430.51499477295,-51.0
19430.515057270186,-104.0
19430.515119767424,34.0
19430.515182264662,140.0
19430.515244761897,116.0
19430.515307259135,172.0
19430.515369756373,108.0
19430.51543225361,110.0
19430.515494750845,104.0
19430.515557248083,25.0
19430.51561974532,162.0
19430.51568224256,125.0
19430.515744739794,60.0
19430.515807237032,146.0
19430.51586973427,101.0
19430.51593223151,349.0
19430.515994728743,684.0
19430.51605722598,669.0
19430.51611972322,590.0
19430.516182220457,617.0
19430.51624471769,693.0
19430.51630721493,642.0
19430.516369712168,619.0
19430.516432209406,731.0
19430.51649470664,741.0
19430.51655720388,748.0
19430.516619701117,635.0
19430.51668219835,465.0
19430.51674469559,566.0
19430.516807192827,485.0
19430.516869690066,286.0
19430.5169321873,267.0
19430.516994684538,102.0
19430.517057181776,19.0
19430.517119679014,36.0
19430.51718217625,-240.0
19430.517244673487,-526.0
19430.517307170725,-365.0
19430.517369667963,-293.0
19430.517432165198,-426.0
19430.517494662436,-560.0
19430.517557159674,-525.0
19430.517619656912,-544.0
19430.517682154146,-746.0
19430.517744651384,-671.0
19430.517807148623,-423.0
19430.51786964586,-75.0
19430.517932143095,67.0
19430.517994640333,35.0
19430.51805713757,141.0
19430.51811963481,21.0
19430.518182132044,-38.0
19430.518244629282,-92.0
19430.51830712652,-187.0
19430.51836962376,-222.0
19430.518432120993,-151.0
19430.51849461823,-36.0
19430.51855711547,-147.0
19430.518619612703,-255.0
19430.51868210994,-271.0
19430.51874460718,-93.0
19430.518807104418,40.0
19430.518869601652,-18.0
19430.51893209889,-56.0
19430.51899459613,-82.0
19430.519057093366,-123.0
19430.5191195906,-185.0
19430.51918208784,-321.0
19430.519244585077,-308.0
19430.519307082315,-113.0
19430.51936957955,140.0
19430.519432076788,284.0
19430.519494574026,301.0
19430.519557071264,465.0
19430.5196195685,611.0
19430.519682065737,663.0
19430.519744562975,692.0
19430.519807060213,509.0
19430.519869557447,320.0
19430.519932054685,305.0
19430.519994551923,218.0
19430.520057049158,-8.0
19430.520119546396,103.0
19430.520182043634,252.0
19430.520244540872,381.0
19430.52030703811,530.0
19430.520369535345,361.0
19430.520432032583,367.0
19430.52049452982,470.0
19430.520557027055,511.0
19430.520619524294,411.0
19430.52068202153,233.0
19430.52074451877,187.0
19430.520807016004,343.0
19430.520869513242,536.0
19430.52093201048,451.0
19430.52099450772,248.0
19430.521057004953,211.0
19430.52111950219,287.0
19430.52118199943,198.0
19430.521244496667,194.0
19430.5213069939,156.0
19430.52136949114,116.0
19430.521431988378,267.0
19430.521494485616,252.0
19430.52155698285,88.0
19430.52161948009,41.0
19430.521681977327,-3.0
19430.521744474565,-21.0
19430.5218069718,20.0
19430.521869469037,-76.0
19430.521931966276,-216.0
19430.52199446351,6.0
19430.522056960748,163.0
19430.522119457986,140.0
19430.522181955224,5.0
19430.52224445246,-115.0
19430.522306949697,15.0
19430.522369446935,136.0
19430.522431944173,203.0
19430.522494441408,120.0
19430.522556938646,176.0
19430.522619435884,204.0
19430.522681933122,201.0
19430.522744430356,272.0
19430.522806927595,198.0
19430.522869424833,68.0
19430.52293192207,81.0
19430.522994419305,62.0
19430.523056916543,-83.0
19430.52311941378,-133.0
19430.52318191102,-238.0
19430.523244408254,-259.0
19430.523306905492,-131.0
19430.52336940273,-136.0
19430.52343189997,-24.0
19430.523494397203,-99.0
19430.52355689444,-194.0
19430.52361939168,91.0
19430.523681888917,152.0
19430.52374438615,217.0
19430.52380688339,251.0
19430.523869380628,176.0
19430.523931877862,247.0
19430.5239943751,150.0
19430.52405687234,129.0
19430.524119369577,194.0
19430.52418186681,360.0
19430.52424436405,506.0
19430.524306861287,383.0
19430.524369358525,187.0
19430.52443185576,20.0
19430.524494352998,-189.0
19430.524556850236,-237.0
19430.524619347474,-131.0
19430.52468184471,-171.0
19430.524744341947,-240.0
19430.524806839185,-85.0
19430.524869336423,-123.0
19430.524931833657,-136.0
19430.524994330895,-170.0
19430.525056828134,-297.0
19430.52511932537,-177.0
19430.525181822606,-215.0
19430.525244319844,-282.0
19430.525306817082,-296.0
19430.525369314317,-341.0
19430.525431811555,-317.0
19430.525494308793,-283.0
19430.52555680603,-300.0
19430.52561930327,-263.0
19430.525681800504,-233.0
19430.52574429774,-103.0
19430.52580679498,5.0
19430.525869292214,-69.0
19430.525931789452,-148.0
19430.52599428669,-136.0
19430.52605678393,-12.0
19430.526119281163,151.0
19430.5261817784,130.0
19430.52624427564,103.0
19430.526306772877,260.0
19430.526369270112,181.0
19430.52643176735,41.0
19430.526494264588,-110.0
19430.526556761826,-183.0
19430.52661925906,-61.0
19430.5266817563,-85.0
19430.526744253537,-4.0
19430.526806750775,-45.0
19430.52686924801,-82.0
19430.526931745248,117.0
19430.526994242486,71.0
19430.527056739724,49.0
19430.52711923696,-19.0
19430.527181734196,35.0
19430.527244231434,240.0
19430.52730672867,195.0
19430.527369225907,177.0
19430.527431723145,231.0
19430.527494220383,168.0
19430.52755671762,53.0
19430.527619214856,-73.0
19430.527681712094,-77.0
19430.527744209332,13.0
19430.527806706566,221.0
19430.527869203805,279.0
19430.527931701043,43.0
19430.52799419828,77.0
19430.528056695515,175.0
19430.528119192753,23.0
19430.52818168999,-17.0
19430.52824418723,10.0
19430.528306684464,47.0
19430.528369181702,105.0
19430.52843167894,269.0
19430.52849417618,484.0
19430.528556673413,318.0
19430.52861917065,217.0
19430.52868166789,194.0
19430.528744165127,59.0
19430.52880666236,87.0
19430.5288691596,185.0
19430.528931656838,223.0
19430.528994154076,177.0
19430.52905665131,111.0
19430.52911914855,-67.0
19430.529181645787,-154.0
19430.52924414302,-124.0
19430.52930664026,113.0
19430.529369137497,345.0
19430.529431634735,152.0
19430.52949413197,62.0
19430.529556629208,169.0
19430.529619126446,195.0
19430.529681623684,63.0
19430.52974412092,-91.0
19430.529806618157,-212.0
19430.529869115395,-157.0
19430.529931612633,-156.0
19430.529994109867,-313.0
19430.530056607106,-293.0
19430.530119104344,-257.0
19430.53018160158,-21.0
19430.530244098816,-6.0
19430.530306596054,-41.0
19430.530369093292,-54.0
19430.53043159053,-262.0
19430.530494087765,-106.0
19430.530556585003,-143.0
19430.53061908224,-318.0
19430.53068157948,-147.0
19430.530744076714,-47.0
19430.530806573952,-312.0
19430.53086907119,-553.0
19430.530931568428,-430.0
19430.530994065663,-532.0
19430.5310565629,-749.0
19430.53111906014,-735.0
19430.531181557373,-575.0
19430.53124405461,-481.0
19430.53130655185,-300.0
19430.531369049088,-111.0
19430.531431546322,-263.0
19430.53149404356,-402.0
19430.5315565408,-361.0
19430.531619038036,-212.0
19430.53168153527,-297.0
19430.53174403251,-168.0
19430.531806529747,-92.0
19430.531869026985,-203.0
19430.53193152422,-194.0
19430.531994021458,-202.0
19430.532056518696,-12.0
19430.532119015934,-34.0
19430.53218151317,-114.0
19430.532244010406,-153.0
19430.532306507645,-185.0
19430.532369004883,-127.0
19430.532431502117,-137.0
19430.532493999355,-125.0
19430.532556496593,10.0
19430.532618993828,127.0
19430.532681491066,271.0
19430.532743988304,297.0
19430.532806485542,319.0
19430.53286898278,327.0
19430.532931480015,277.0
19430.532993977253,278.0
19430.53305647449,204.0
19430.533118971725,-26.0
19430.533181468963,-98.0
19430.5332439662,-157.0
19430.53330646344,-305.0
19430.533368960674,-251.0
19430.533431457912,-186.0
19430.53349395515,-305.0
19430.53355645239,-357.0
19430.533618949623,-307.0
19430.53368144686,-481.0
19430.5337439441,-555.0
19430.533806441337,-184.0
19430.53386893857,-83.0
19430.53393143581,-9.0
19430.533993933048,79.0
19430.534056430286,20.0
19430.53411892752,-44.0
19430.53418142476,-263.0
19430.534243921997,-405.0
19430.534306419235,-200.0
19430.53436891647,-95.0
19430.534431413707,-74.0
19430.534493910945,17.0
19430.53455640818,-18.0
19430.534618905418,296.0
19430.534681402656,372.0
19430.534743899894,420.0
19430.53480639713,550.0
19430.534868894367,447.0
19430.534931391605,516.0
19430.534993888843,522.0
19430.535056386077,457.0
19430.535118883316,354.0
19430.535181380554,256.0
19430.53524387779,298.0
19430.535306375026,303.0
19430.535368872264,242.0
19430.535431369502,213.0
19430.53549386674,213.0
19430.535556363975,101.0
19430.535618861213,51.0
19430.53568135845,-63.0
19430.53574385569,-232.0
19430.535806352924,-289.0
19430.535868850162,-461.0
19430.5359313474,-580.0
19430.535993844638,-646.0
19430.536056341873,-562.0
19430.53611883911,-235.0
19430.53618133635,-154.0
19430.536243833587,-80.0
19430.53630633082,-191.0
19430.53636882806,-359.0
19430.536431325298,-101.0
19430.536493822532,-254.0
19430.53655631977,-455.0
19430.53661881701,-256.0
19430.536681314246,-248.0
19430.53674381148,-85.0
19430.53680630872,190.0
19430.536868805957,42.0
19430.536931303195,-98.0
19430.53699380043,-116.0
19430.537056297668,-270.0
19430.537118794906,-383.0
19430.537181292144,-253.0
19430.53724378938,-145.0
19430.537306286617,35.0
19430.537368783855,304.0
19430.537431281093,196.0
19430.537493778327,232.0
19430.537556275565,506.0
19430.537618772803,453.0
19430.53768127004,399.0
19430.537743767276,315.0
19430.537806264514,153.0
19430.537868761752,273.0
19430.537931258987,329.0
19430.537993756225,86.0
19430.538056253463,1.0
19430.5381187507,18.0
19430.53818124794,128.0
19430.538243745174,76.0
19430.53830624241,-221.0
19430.53836873965,-381.0
19430.538431236884,-301.0
19430.538493734122,-241.0
19430.53855623136,-207.0
19430.5386187286,-272.0
19430.538681225833,-333.0
19430.53874372307,-85.0
19430.53880622031,106.0
19430.538868717547,-24.0
19430.53893121478,-199.0
19430.53899371202,-86.0
19430.539056209258,-5.0
19430.539118706496,-103.0
19430.53918120373,-182.0
19430.53924370097,-321.0
19430.539306198207,-257.0
19430.539368695445,-371.0
19430.53943119268,-538.0
19430.539493689917,-447.0
19430.539556187156,-495.0
19430.539618684394,-533.0
19430.539681181628,-436.0
19430.539743678866,-480.0
19430.539806176104,-662.0
19430.53986867334,-673.0
19430.539931170577,-424.0
19430.539993667815,-372.0
19430.540056165053,-462.0
19430.540118662288,-425.0
19430.540181159526,-482.0
19430.540243656764,-523.0
19430.540306154002,-533.0
19430.540368651236,-727.0
19430.540431148474,-741.0
19430.540493645713,-404.0
19430.54055614295,-373.0
19430.540618640185,-482.0
19430.540681137423,-565.0
19430.54074363466,-597.0
19430.5408061319,-480.0
19430.540868629134,-450.0
19430.540931126372,-627.0
19430.54099362361,-784.0
19430.54105612085,-723.0
19430.541118618083,-675.0
19430.54118111532,-798.0
19430.54124361256,-901.0
19430.541306109797,-772.0
19430.54136860703,-798.0
19430.54143110427,-787.0
19430.541493601508,-729.0
19430.541556098746,-1030.0
19430.54161859598,-995.0
19430.54168109322,-946.0
19430.541743590456,-1050.0
19430.54180608769,-939.0
19430.54186858493,-926.0
19430.541931082167,-779.0
19430.541993579405,-497.0
19430.54205607664,-494.0
19430.542118573878,-619.0
19430.542181071116,-541.0
19430.542243568354,-366.0
19430.54230606559,-505.0
19430.542368562827,-585.0
19430.542431060065,-695.0
19430.542493557303,-685.0
19430.542556054537,-285.0
19430.542618551775,-134.0
19430.542681049013,-55.0
19430.54274354625,38.0
19430.542806043486,33.0
19430.542868540724,-178.0
19430.542931037962,-514.0
19430.5429935352,-712.0
19430.543056032435,-732.0
19430.543118529673,-737.0
19430.54318102691,-775.0
19430.543243524146,-650.0
19430.543306021384,-576.0
19430.54336851862,-569.0
19430.54343101586,-503.0
19430.543493513098,-400.0
19430.543556010332,-329.0
19430.54361850757,-424.0
19430.54368100481,-373.0
19430.543743502043,-353.0
19430.54380599928,-422.0
19430.54386849652,-395.0
19430.543930993757,-236.0
19430.543993490992,-326.0
19430.54405598823,-289.0
19430.544118485468,-209.0
19430.544180982706,-397.0
19430.54424347994,-378.0
19430.54430597718,-330.0
19430.544368474417,-230.0
19430.544430971655,-128.0
19430.54449346889,-130.0
19430.544555966128,-173.0
19430.544618463366,-262.0
19430.544680960604,-289.0
19430.54474345784,-256.0
19430.544805955076,-170.0
19430.544868452314,-267.0
19430.544930949553,-199.0
19430.544993446787,-96.0
19430.545055944025,-98.0
19430.545118441263,-23.0
19430.545180938498,-133.0
19430.545243435736,-77.0
19430.545305932974,-66.0
19430.545368430212,-174.0
19430.545430927446,-231.0
19430.545493424685,-407.0
19430.545555921923,-496.0
19430.54561841916,-481.0
19430.545680916395,-469.0
19430.545743413633,-404.0
19430.54580591087,-186.0
19430.54586840811,-172.0
19430.545930905344,-102.0
19430.545993402582,24.0
19430.54605589982,-58.0
19430.54611839706,-214.0
19430.546180894293,-282.0
19430.54624339153,-91.0
19430.54630588877,-123.0
19430.546368386007,-342.0
19430.54643088324,-307.0
19430.54649338048,-168.0
19430.546555877718,-47.0
19430.546618374956,-69.0
19430.54668087219,-130.0
19430.54674336943,-96.0
19430.546805866667,-96.0
19430.546868363905,-268.0
19430.54693086114,-421.0
19430.546993358377,-340.0
19430.547055855615,-435.0
19430.54711835285,-279.0
19430.547180850088,-145.0
19430.547243347326,-216.0
19430.547305844564,-138.0
19430.5473683418,-118.0
19430.547430839037,-62.0
19430.547493336275,-145.0
19430.547555833513,-163.0
19430.547618330747,-157.0
19430.547680827985,-250.0
19430.547743325224,-300.0
19430.54780582246,-408.0
19430.547868319696,-546.0
19430.547930816934,-584.0
19430.547993314172,-556.0
19430.54805581141,-488.0
19430.548118308645,-323.0
19430.548180805883,-136.0
19430.54824330312,-147.0
19430.54830580036,-87.0
19430.548368297594,-36.0
19430.54843079483,-209.0
19430.54849329207,-251.0
19430.548555789304,-238.0
19430.548618286542,-257.0
19430.54868078378,-332.0
19430.54874328102,-482.0
19430.548805778257,-442.0
19430.54886827549,-377.0
19430.54893077273,-320.0
19430.548993269967,-230.0
19430.549055767202,-208.0
19430.54911826444,-174.0
19430.549180761678,-184.0
19430.549243258916,-177.0
19430.54930575615,-269.0
19430.54936825339,-562.0
19430.549430750627,-618.0
19430.549493247865,-523.0
19430.5495557451,-591.0
19430.549618242338,-558.0
19430.549680739576,-533.0
19430.549743236814,-544.0
19430.54980573405,-531.0
19430.549868231286,-627.0
19430.549930728524,-609.0
19430.549993225763,-376.0
19430.550055722997,-332.0
19430.550118220235,-408.0
19430.550180717473,-422.0
19430.55024321471,-471.0
19430.550305711946,-418.0
19430.550368209184,-432.0
19430.550430706422,-619.0
19430.550493203657,-549.0
19430.550555700895,-418.0
19430.550618198133,-452.0
19430.55068069537,-272.0
19430.55074319261,-10.0
19430.550805689843,172.0
19430.55086818708,121.0
19430.55093068432,54.0
19430.550993181554,-139.0
19430.551055678792,-268.0
19430.55111817603,-169.0
19430.55118067327,-193.0
19430.551243170503,-227.0
19430.55130566774,-106.0
19430.55136816498,-51.0
19430.551430662217,52.0
19430.55149315945,134.0
19430.55155565669,69.0
19430.551618153928,90.0
19430.551680651166,-7.0
19430.5517431484,-184.0
19430.55180564564,-187.0
19430.551868142877,-220.0
19430.551930640115,-333.0
19430.55199313735,-217.0
19430.552055634587,-237.0
19430.552118131825,-231.0
19430.552180629064,-156.0
19430.552243126298,-152.0
19430.552305623536,-36.0
19430.552368120774,-180.0
19430.55243061801,-322.0
19430.552493115247,-475.0
19430.552555612485,-446.0
19430.552618109723,-295.0
19430.552680606957,-230.0
19430.552743104196,-159.0
19430.552805601434,-121.0
19430.55286809867,-14.0
19430.552930595906,-28.0
19430.552993093144,-123.0
19430.553055590382,-211.0
19430.55311808762,-256.0
19430.553180584855,-226.0
19430.553243082093,-336.0
19430.55330557933,-544.0
19430.55336807657,-730.0
19430.553430573804,-699.0
19430.553493071042,-669.0
19430.55355556828,-754.0
19430.553618065518,-663.0
19430.553680562753,-553.0
19430.55374305999,-381.0
19430.55380555723,-194.0
19430.553868054467,-329.0
19430.5539305517,-402.0
19430.55399304894,-281.0
19430.554055546178,-161.0
19430.554118043416,-274.0
19430.55418054065,-354.0
19430.55424303789,-409.0
19430.554305535126,-525.0
19430.55436803236,-475.0
19430.5544305296,-422.0
19430.554493026837,-363.0
19430.554555524075,-258.0
19430.55461802131,-263.0
19430.554680518548,-341.0
19430.554743015786,-383.0
19430.554805513024,-365.0
19430.55486801026,-381.0
19430.554930507496,-483.0
19430.554993004735,-580.0
19430.555055501973,-640.0
19430.555117999207,-546.0
19430.555180496445,-345.0
19430.555242993683,-403.0
19430.55530549092,-265.0
19430.555367988156,-62.0
19430.555430485394,-142.0
19430.555492982632,-275.0
19430.55555547987,-515.0
19430.555617977105,-707.0
19430.555680474343,-701.0
19430.55574297158,-704.0
19430.555805468815,-708.0
19430.555867966053,-697.0
19430.55593046329,-591.0
19430.55599296053,-411.0
19430.556055457768,-237.0
19430.556117955002,-37.0
19430.55618045224,-33.0
19430.55624294948,23.0
19430.556305446713,32.0
19430.55636794395,-101.0
19430.55643044119,-216.0
19430.556492938427,-419.0
19430.55655543566,-535.0
19430.5566179329,-608.0
19430.556680430138,-627.0
19430.556742927376,-624.0
19430.55680542461,-604.0
19430.55686792185,-506.0
19430.556930419087,-343.0
19430.556992916325,-224.0
19430.55705541356,-255.0
19430.557117910797,-462.0
19430.557180408035,-642.0
19430.557242905274,-790.0
19430.557305402508,-867.0
19430.557367899746,-1020.0
19430.557430396984,-944.0
19430.557492894222,-701.0
19430.557555391457,-727.0
19430.557617888695,-645.0
19430.557680385933,-740.0
19430.557742883168,-785.0
19430.557805380406,-523.0
19430.557867877644,-479.0
19430.557930374882,-627.0
19430.557992872116,-668.0
19430.558055369354,-742.0
19430.558117866593,-902.0
19430.55818036383,-698.0
19430.558242861065,-550.0
19430.558305358303,-726.0
19430.55836785554,-592.0
19430.55843035278,-396.0
19430.558492850014,-376.0
19430.558555347252,-362.0
19430.55861784449,-335.0
19430.558680341728,-325.0
19430.558742838963,-365.0
19430.5588053362,-392.0
19430.55886783344,-565.0
19430.558930330677,-744.0
19430.55899282791,-943.0
19430.55905532515,-851.0
19430.559117822388,-557.0
19430.559180319626,-452.0
19430.55924281686,-564.0
19430.5593053141,-595.0
19430.559367811336,-496.0
19430.559430308575,-493.0
19430.55949280581,-620.0
19430.559555303047,-842.0
19430.559617800285,-855.0
19430.55968029752,-839.0
19430.559742794758,-844.0
19430.559805291996,-986.0
19430.559867789234,-1008.0
19430.55993028647,-804.0
19430.559992783707,-483.0
19430.560055280945,-283.0
19430.560117778183,-488.0
19430.560180275417,-537.0
19430.560242772655,-321.0
19430.560305269893,-282.0
19430.56036776713,-454.0
19430.560430264366,-637.0
19430.560492761604,-661.0
19430.560555258842,-542.0
19430.56061775608,-393.0
19430.560680253315,-419.0
19430.560742750553,-339.0
19430.56080524779,-43.0
19430.56086774503,-146.0
19430.560930242264,-66.0
19430.5609927395,-161.0
19430.56105523674,-495.0
19430.561117733974,-544.0
19430.561180231212,-561.0
19430.56124272845,-505.0
19430.56130522569,-540.0
19430.561367722927,-531.0
19430.56143022016,-262.0
19430.5614927174,-118.0
19430.561555214637,-173.0
19430.56161771187,-312.0
19430.56168020911,-630.0
19430.561742706348,-612.0
19430.561805203586,-321.0
19430.56186770082,-229.0
19430.56193019806,-64.0
19430.561992695297,176.0
19430.562055192535,191.0
19430.56211768977,142.0
19430.562180187007,145.0
19430.562242684246,-8.0
19430.562305181484,-162.0
19430.562367678718,-111.0
19430.562430175956,-189.0
19430.562492673194,-345.0
19430.562555170432,-396.0
19430.562617667667,-570.0
19430.562680164905,-811.0
19430.562742662143,-859.0
19430.56280515938,-974.0
19430.562867656616,-1054.0
19430.562930153854,-1090.0
19430.562992651092,-1016.0
19430.563055148326,-889.0
19430.563117645564,-735.0
19430.563180142803,-757.0
19430.56324264004,-845.0
19430.563305137275,-633.0
19430.563367634513,-449.0
19430.56343013175,-183.0
19430.56349262899,-261.0
19430.563555126224,-371.0
19430.563617623462,-236.0
19430.5636801207,-369.0
19430.56374261794,-404.0
19430.563805115173,-457.0
19430.56386761241,-477.0
19430.56393010965,-343.0
19430.563992606887,-295.0
19430.56405510412,-322.0
19430.56411760136,-409.0
19430.564180098598,-416.0
19430.564242595836,-354.0
19430.56430509307,-417.0
19430.56436759031,-445.0
19430.564430087546,-437.0
19430.564492584785,-421.0
19430.56455508202,-374.0
19430.564617579257,-189.0
19430.564680076495,-247.0
19430.564742573733,-406.0
19430.564805070968,-343.0
19430.564867568206,-489.0
19430.564930065444,-731.0
19430.56499256268,-915.0
19430.565055059917,-754.0
19430.565117557155,-659.0
19430.565180054393,-688.0
19430.565242551627,-523.0
19430.565305048865,-457.0
19430.565367546104,-482.0
19430.56543004334,-529.0
19430.565492540576,-435.0
19430.565555037814,-402.0
19430.565617535052,-626.0
19430.56568003229,-761.0
19430.565742529525,-707.0
19430.565805026763,-664.0
19430.565867524,-588.0
19430.56593002124,-399.0
19430.565992518474,-200.0
19430.56605501571,-242.0
19430.56611751295,-189.0
19430.566180010188,80.0
19430.566242507422,-134.0
19430.56630500466,-347.0
19430.5663675019,-376.0
19430.566429999133,-409.0
19430.56649249637,-438.0
19430.56655499361,-558.0
19430.566617490847,-643.0
19430.566679988086,-570.0
19430.56674248532,-738.0
19430.566804982558,-947.0
19430.566867479796,-906.0
19430.56692997703,-825.0
19430.56699247427,-815.0
19430.567054971507,-853.0
19430.567117468745,-905.0
19430.56717996598,-996.0
19430.567242463218,-922.0
19430.567304960456,-904.0
19430.567367457694,-878.0
19430.56742995493,-879.0
19430.567492452166,-812.0
19430.567554949404,-489.0
19430.567617446643,-494.0
19430.567679943877,-566.0
19430.567742441115,-444.0
19430.567804938353,-440.0
19430.56786743559,-748.0
19430.567929932826,-724.0
19430.567992430064,-580.0
19430.568054927302,-644.0
19430.56811742454,-474.0
19430.568179921775,-462.0
19430.568242419013,-574.0
19430.56830491625,-556.0
19430.568367413485,-455.0
19430.568429910723,-200.0
19430.56849240796,-166.0
19430.5685549052,-163.0
19430.568617402434,-85.0
19430.568679899672,-141.0
19430.56874239691,-170.0
19430.56880489415,-270.0
19430.568867391383,-408.0
19430.56892988862,-511.0
19430.56899238586,-385.0
19430.569054883097,-254.0
19430.56911738033,-407.0
19430.56917987757,-453.0
19430.569242374808,-323.0
19430.569304872046,-392.0
19430.56936736928,-462.0
19430.56942986652,-533.0
19430.569492363757,-590.0
19430.569554860995,-604.0
19430.56961735823,-703.0
19430.569679855467,-758.0
19430.569742352705,-916.0
19430.569804849943,-900.0
19430.569867347178,-682.0
19430.569929844416,-581.0
19430.569992341654,-566.0
19430.570054838892,-560.0
19430.570117336127,-529.0
19430.570179833365,-328.0
19430.570242330603,-394.0
19430.570304827837,-487.0
19430.570367325075,-270.0
19430.570429822314,-353.0
19430.57049231955,-581.0
19430.570554816786,-715.0
19430.570617314024,-812.0
19430.570679811262,-900.0
19430.5707423085,-882.0
19430.570804805735,-841.0
19430.570867302973,-772.0
19430.57092980021,-606.0
19430.57099229745,-514.0
19430.571054794684,-434.0
19430.571117291922,-410.0
19430.57117978916,-473.0
19430.571242286398,-478.0
19430.571304783633,-642.0
19430.57136728087,-922.0
19430.57142977811,-997.0
19430.571492275347,-1013.0
19430.57155477258,-1030.0
19430.57161726982,-961.0
19430.571679767058,-1002.0
19430.571742264292,-911.0
19430.57180476153,-552.0
19430.571867258768,-581.0
19430.571929756006,-631.0
19430.571992253244,-434.0
19430.57205475048,-422.0
19430.572117247717,-518.0
19430.572179744955,-683.0
19430.57224224219,-689.0
19430.572304739428,-494.0
19430.572367236666,-377.0
19430.572429733904,-377.0
19430.57249223114,-240.0
19430.572554728376,38.0
19430.572617225615,240.0
19430.572679722853,325.0
19430.572742220087,198.0
19430.572804717325,-61.0
19430.572867214563,-146.0
19430.5729297118,-295.0
19430.572992209036,-476.0
19430.573054706274,-546.0
19430.573117203512,-746.0
19430.57317970075,-735.0
19430.573242197985,-773.0
19430.573304695223,-853.0
19430.57336719246,-904.0
19430.5734296897,-841.0
19430.573492186933,-597.0
19430.57355468417,-590.0
19430.57361718141,-618.0
19430.573679678644,-814.0
19430.573742175882,-889.0
19430.57380467312,-835.0
19430.57386717036,-899.0
19430.573929667597,-857.0
19430.57399216483,-935.0
19430.57405466207,-896.0
19430.574117159307,-686.0
19430.57417965654,-486.0
19430.57424215378,-441.0
19430.574304651018,-386.0
19430.574367148256,-385.0
19430.57442964549,-478.0
19430.57449214273,-476.0
19430.574554639967,-421.0
19430.574617137205,-376.0
19430.57467963444,-442.0
19430.574742131677,-411.0
19430.574804628915,-579.0
19430.574867126154,-789.0
19430.574929623388,-849.0
19430.574992120626,-949.0
19430.575054617864,-810.0
19430.575117115102,-698.0
19430.575179612337,-828.0
19430.575242109575,-775.0
19430.575304606813,-701.0
19430.57536710405,-732.0
19430.575429601286,-869.0
19430.575492098524,-1041.0
19430.57555459576,-1091.0
19430.575617092996,-1074.0
19430.575679590234,-1146.0
19430.575742087472,-1223.0
19430.57580458471,-1121.0
19430.575867081945,-1057.0
19430.575929579183,-1060.0
19430.57599207642,-992.0
19430.57605457366,-987.0
19430.576117070894,-901.0
19430.576179568132,-782.0
19430.57624206537,-805.0
19430.576304562608,-890.0
19430.576367059843,-902.0
19430.57642955708,-828.0
19430.57649205432,-903.0
19430.576554551557,-1000.0
19430.57661704879,-1033.0
19430.57667954603,-1005.0
19430.576742043268,-828.0
19430.576804540506,-722.0
19430.57686703774,-496.0
19430.57692953498,-325.0
19430.576992032216,-510.0
19430.577054529454,-630.0
19430.57711702669,-752.0
19430.577179523927,-823.0
19430.577242021165,-783.0
19430.577304518403,-864.0
19430.577367015638,-757.0
19430.577429512876,-576.0
19430.577492010114,-358.0
19430.57755450735,-270.0
19430.577617004587,-353.0
19430.577679501825,-225.0
19430.577741999063,-314.0
19430.577804496297,-376.0
19430.577866993535,-353.0
19430.577929490773,-548.0
19430.57799198801,-665.0
19430.578054485246,-636.0
19430.578116982484,-432.0
19430.578179479722,-528.0
19430.57824197696,-646.0
19430.578304474195,-651.0
19430.578366971433,-759.0
19430.57842946867,-807.0
19430.57849196591,-890.0
19430.578554463144,-788.0
19430.57861696038,-710.0
19430.57867945762,-681.0
19430.578741954858,-627.0
19430.578804452092,-735.0
19430.57886694933,-853.0
19430.57892944657,-857.0
19430.578991943803,-751.0
19430.57905444104,-738.0
19430.57911693828,-726.0
19430.579179435517,-615.0
19430.579241932755,-606.0
19430.57930442999,-571.0
19430.579366927228,-393.0
19430.579429424466,-355.0
19430.5794919217,-275.0
19430.57955441894,-62.0
19430.579616916177,24.0
19430.579679413415,-54.0
19430.57974191065,-78.0
19430.579804407887,4.0
19430.579866905126,-140.0
19430.579929402364,-347.0
19430.579991899598,-403.0
19430.580054396836,-451.0
19430.580116894074,-581.0
19430.580179391312,-588.0
19430.580241888547,-579.0
19430.580304385785,-626.0
19430.580366883023,-497.0
19430.58042938026,-438.0
19430.580491877496,-363.0
19430.580554374734,-377.0
19430.580616871972,-361.0
19430.58067936921,-347.0
19430.580741866444,-529.0
19430.580804363683,-526.0
19430.58086686092,-574.0
19430.580929358155,-584.0
19430.580991855393,-480.0
19430.58105435263,-567.0
19430.58111684987,-663.0
19430.581179347104,-617.0
19430.581241844342,-568.0
19430.58130434158,-618.0
19430.58136683882,-461.0
19430.581429336053,-341.0
19430.58149183329,-578.0
19430.58155433053,-650.0
19430.581616827767,-634.0
19430.581679325,-646.0
19430.58174182224,-633.0
19430.581804319478,-592.0
19430.581866816716,-485.0
19430.58192931395,-401.0
19430.58199181119,-462.0
19430.582054308426,-446.0
19430.582116805665,-448.0
19430.5821793029,-445.0
19430.582241800137,-448.0
19430.582304297375,-487.0
19430.582366794613,-569.0
19430.582429291848,-742.0
19430.582491789086,-824.0
19430.582554286324,-969.0
19430.582616783562,-980.0
19430.582679280797,-869.0
19430.582741778035,-863.0
19430.582804275273,-778.0
19430.582866772507,-724.0
19430.582929269745,-741.0
19430.582991766983,-718.0
19430.58305426422,-543.0
19430.583116761456,-466.0
19430.583179258694,-618.0
19430.583241755932,-669.0
19430.58330425317,-682.0
19430.583366750405,-881.0
19430.583429247643,-985.0
19430.58349174488,-962.0
19430.58355424212,-914.0
19430.583616739354,-857.0
19430.58367923659,-819.0
19430.58374173383,-779.0
19430.583804231068,-585.0
19430.583866728302,-221.0
19430.58392922554,-159.0
19430.58399172278,-283.0
19430.584054220017,-243.0
19430.58411671725,-242.0
19430.58417921449,-187.0
19430.584241711727,-234.0
19430.584304208962,-293.0
19430.5843667062,-327.0
19430.584429203438,-435.0
19430.584491700676,-524.0
19430.584554197914,-484.0
19430.58461669515,-388.0
19430.584679192387,-493.0
19430.584741689625,-577.0
19430.58480418686,-823.0
19430.584866684098,-901.0
19430.584929181336,-896.0
19430.584991678574,-938.0
19430.58505417581,-849.0
19430.585116673046,-845.0
19430.585179170284,-686.0
19430.585241667522,-709.0
19430.585304164757,-805.0
19430.585366661995,-580.0
19430.585429159233,-378.0
19430.58549165647,-372.0
19430.585554153706,-384.0
19430.585616650944,-197.0
19430.585679148182,-261.0
19430.58574164542,-445.0
19430.585804142655,-480.0
19430.585866639893,-616.0
19430.58592913713,-637.0
19430.58599163437,-617.0
19430.586054131603,-769.0
19430.58611662884,-644.0
19430.58617912608,-475.0
19430.586241623314,-362.0
19430.586304120552,-309.0
19430.58636661779,-330.0
19430.58642911503,-320.0
19430.586491612263,-177.0
19430.5865541095,-26.0
19430.58661660674,-257.0
19430.586679103977,-353.0
19430.58674160121,-325.0
19430.58680409845,-389.0
19430.586866595688,-520.0
19430.586929092926,-576.0
19430.58699159016,-539.0
19430.5870540874,-462.0
19430.587116584637,-518.0
19430.587179081875,-708.0
19430.58724157911,-686.0
19430.587304076347,-507.0
19430.587366573585,-415.0
19430.587429070823,-569.0
19430.587491568058,-663.0
19430.587554065296,-547.0
19430.587616562534,-700.0
19430.587679059772,-770.0
19430.587741557007,-511.0
19430.587804054245,-529.0
19430.587866551483,-502.0
19430.58792904872,-343.0
19430.587991545955,-458.0
19430.588054043194,-422.0
19430.58811654043,-299.0
19430.588179037666,-204.0
19430.588241534904,-191.0
19430.588304032142,-284.0
19430.58836652938,-294.0
19430.588429026615,-391.0
19430.588491523853,-574.0
19430.58855402109,-678.0
19430.58861651833,-820.0
19430.588679015564,-908.0
19430.5887415128,-767.0
19430.58880401004,-734.0
19430.588866507278,-555.0
19430.588929004512,-389.0
19430.58899150175,-524.0
19430.58905399899,-484.0
19430.589116496227,-388.0
19430.58917899346,-392.0
19430.5892414907,-433.0
19430.589303987937,-563.0
19430.589366485176,-506.0
19430.58942898241,-490.0
19430.589491479648,-567.0
19430.589553976886,-614.0
19430.58961647412,-533.0
19430.58967897136,-462.0
19430.589741468597,-281.0
19430.589803965835,-139.0
19430.589866463073,-223.0
19430.589928960308,-230.0
19430.589991457546,-277.0
19430.590053954784,-343.0
19430.59011645202,-490.0
19430.590178949256,-565.0
19430.590241446494,-505.0
19430.590303943733,-480.0
19430.590366440967,-267.0
19430.590428938205,-245.0
19430.590491435443,-218.0
19430.59055393268,-68.0
19430.590616429916,-128.0
19430.590678927154,-17.0
19430.590741424392,-57.0
19430.59080392163,-159.0
19430.590866418865,-345.0
19430.590928916103,-542.0
19430.59099141334,-631.0
19430.59105391058,-715.0
19430.591116407813,-566.0
19430.59117890505,-393.0
19430.59124140229,-278.0
19430.591303899528,-237.0
19430.591366396762,-240.0
19430.591428894,-209.0
19430.59149139124,-199.0
19430.591553888473,-131.0
19430.59161638571,-283.0
19430.59167888295,-593.0
19430.591741380187,-677.0
19430.59180387742,-754.0
19430.59186637466,-939.0
19430.591928871898,-962.0
19430.591991369136,-922.0
19430.59205386637,-767.0
19430.59211636361,-433.0
19430.592178860847,-245.0
19430.592241358085,-236.0
19430.59230385532,-268.0
19430.592366352557,-273.0
19430.592428849795,-354.0
19430.592491347034,-475.0
19430.592553844268,-632.0
19430.592616341506,-595.0
19430.592678838744,-452.0
19430.592741335982,-406.0
19430.592803833217,-318.0
19430.592866330455,-232.0
19430.592928827693,-25.0
19430.59299132493,168.0
19430.593053822166,121.0
19430.593116319404,-31.0
19430.59317881664,-221.0
19430.59324131388,-465.0
19430.593303811114,-507.0
19430.593366308352,-388.0
19430.59342880559,-302.0
19430.593491302825,-404.0
19430.593553800063,-352.0
19430.5936162973,-240.0
19430.59367879454,-301.0
19430.593741291774,-214.0
19430.593803789012,-36.0
19430.59386628625,49.0
19430.593928783488,-152.0
19430.593991280723,-358.0
19430.59405377796,-243.0
19430.5941162752,-170.0
19430.594178772437,-220.0
19430.59424126967,-155.0
19430.59430376691,-88.0
19430.594366264148,-8.0
19430.594428761386,-9.0
19430.59449125862,-95.0
19430.59455375586,-113.0
19430.594616253096,-191.0
19430.594678750334,-250.0
19430.59474124757,-150.0
19430.594803744807,-181.0
19430.594866242045,-300.0
19430.59492873928,-275.0
19430.594991236518,-331.0
19430.595053733756,-512.0
19430.595116230994,-469.0
19430.595178728232,-459.0
19430.595241225466,-217.0
19430.595303722705,-15.0
19430.595366219943,-328.0
19430.595428717177,-374.0
19430.595491214415,-235.0
19430.595553711653,-350.0
19430.59561620889,-277.0
19430.595678706126,-208.0
19430.595741203364,-340.0
19430.595803700602,-200.0
19430.59586619784,-113.0
19430.595928695075,-2.0
19430.595991192313,70.0
19430.59605368955,59.0
19430.59611618679,148.0
19430.596178684023,230.0
19430.59624118126,51.0
19430.5963036785,-139.0
19430.596366175738,-183.0
19430.596428672972,-208.0
19430.59649117021,-345.0
19430.59655366745,-381.0
19430.596616164687,-171.0
19430.59667866192,-55.0
19430.59674115916,96.0
19430.596803656397,190.0
19430.59686615363,191.0
19430.59692865087,273.0
19430.596991148108,343.0
19430.597053645346,370.0
19430.597116142584,202.0
19430.59717863982,-13.0
19430.597241137057,-43.0
19430.597303634295,-57.0
19430.59736613153,-109.0
19430.597428628767,-91.0
19430.597491126005,27.0
19430.597553623244,97.0
19430.597616120478,73.0
19430.597678617716,20.0
19430.597741114954,-166.0
19430.597803612192,-247.0
19430.597866109427,-384.0
19430.597928606665,-530.0
19430.597991103903,-688.0
19430.59805360114,-499.0
19430.598116098376,-203.0
19430.598178595614,-86.0
19430.598241092852,72.0
19430.59830359009,54.0
19430.598366087324,25.0
19430.598428584562,62.0
19430.5984910818,-27.0
19430.59855357904,-237.0
19430.598616076273,-332.0
19430.59867857351,-295.0
19430.59874107075,-208.0
19430.598803567984,-140.0
19430.598866065222,-107.0
19430.59892856246,-122.0
19430.598991059698,-77.0
19430.599053556933,43.0
19430.59911605417,80.0
19430.59917855141,60.0
19430.599241048647,183.0
19430.59930354588,392.0
19430.59936604312,533.0
19430.599428540358,549.0
19430.599491037596,452.0
19430.59955353483,325.0
19430.59961603207,251.0
19430.599678529306,129.0
19430.599741026545,-94.0
19430.59980352378,-124.0
19430.599866021017,-87.0
19430.599928518255,-29.0
19430.599991015493,152.0
19430.600053512728,218.0
19430.600116009966,233.0
19430.600178507204,262.0
19430.600241004442,231.0
19430.600303501677,240.0
19430.600365998915,177.0
19430.600428496153,35.0
19430.60049099339,84.0
19430.600553490625,81.0
19430.600615987863,29.0
19430.6006784851,120.0
19430.600740982336,192.0
19430.600803479574,214.0
19430.600865976812,214.0
19430.60092847405,384.0
19430.600990971285,411.0
19430.601053468523,360.0
19430.60111596576,440.0
19430.601178463,446.0
19430.601240960234,542.0
19430.60130345747,412.0
19430.60136595471,133.0
19430.601428451948,149.0
19430.601490949182,202.0
19430.60155344642,158.0
19430.60161594366,123.0
19430.601678440897,22.0
19430.60174093813,70.0
19430.60180343537,231.0
19430.601865932607,188.0
19430.601928429845,169.0
19430.60199092708,108.0
19430.602053424318,109.0
19430.602115921556,72.0
19430.60217841879,-180.0
19430.60224091603,-234.0
19430.602303413267,-152.0
19430.602365910505,-87.0
19430.602428407743,29.0
19430.602490904977,31.0
19430.602553402216,9.0
19430.602615899454,57.0
19430.602678396688,-13.0
19430.602740893926,29.0
19430.602803391164,-9.0
19430.602865888402,-179.0
19430.602928385637,-261.0
19430.602990882875,-384.0
19430.603053380113,-463.0
19430.60311587735,-443.0
19430.603178374586,-379.0
19430.603240871824,-148.0
19430.603303369062,136.0
19430.6033658663,264.0
19430.603428363534,230.0
19430.603490860773,182.0
19430.60355335801,318.0
19430.60361585525,539.0
19430.603678352483,587.0
19430.60374084972,379.0
19430.60380334696,213.0
19430.603865844198,301.0
19430.603928341432,297.0
19430.60399083867,230.0
19430.60405333591,165.0
19430.604115833143,248.0
19430.60417833038,481.0
19430.60424082762,723.0
19430.604303324857,893.0
19430.60436582209,868.0
19430.60442831933,859.0
19430.604490816568,731.0
19430.604553313806,559.0
19430.60461581104,495.0
19430.60467830828,297.0
19430.604740805516,177.0
19430.604803302755,289.0
19430.60486579999,260.0
19430.604928297227,262.0
19430.604990794465,392.0
19430.605053291703,447.0
19430.605115788938,435.0
19430.605178286176,273.0
19430.605240783414,97.0
19430.605303280652,88.0
19430.605365777887,224.0
19430.605428275125,349.0
19430.605490772363,385.0
19430.6055532696,429.0
19430.605615766835,530.0
19430.605678264074,485.0
19430.60574076131,550.0
19430.60580325855,603.0
19430.605865755784,434.0
19430.605928253022,517.0
19430.60599075026,710.0
19430.606053247495,844.0
19430.606115744733,982.0
19430.60617824197,972.0
19430.60624073921,819.0
19430.606303236444,765.0
19430.60636573368,517.0
19430.60642823092,180.0
19430.606490728158,185.0
19430.606553225392,239.0
19430.60661572263,283.0
19430.60667821987,232.0
19430.606740717107,162.0
19430.60680321434,269.0
19430.60686571158,394.0
19430.606928208817,244.0
19430.606990706056,51.0
19430.60705320329,91.0
19430.607115700528,97.0
19430.607178197766,58.0
19430.607240695004,151.0
19430.60730319224,157.0
19430.607365689477,224.0
19430.607428186715,192.0
19430.60749068395,60.0
19430.607553181188,70.0
19430.607615678426,30.0
19430.607678175664,36.0
19430.607740672902,85.0
19430.607803170136,119.0
19430.607865667374,107.0
19430.607928164613,11.0
19430.607990661847,33.0
19430.608053159085,74.0
19430.608115656323,74.0
19430.60817815356,82.0
19430.608240650796,53.0
19430.608303148034,-61.0
19430.608365645272,-107.0
19430.60842814251,-36.0
19430.608490639745,-150.0
19430.608553136983,-194.0
19430.60861563422,-28.0
19430.60867813146,66.0
19430.608740628693,104.0
19430.60880312593,275.0
19430.60886562317,292.0
19430.608928120408,135.0
19430.608990617642,161.0
19430.60905311488,66.0
19430.60911561212,-184.0
19430.609178109356,-237.0
19430.60924060659,-231.0
19430.60930310383,-139.0
19430.609365601067,-71.0
19430.6094280983,-99.0
19430.60949059554,-74.0
19430.609553092778,167.0
19430.609615590016,249.0
19430.60967808725,-50.0
19430.60974058449,-270.0
19430.609803081727,-502.0
19430.609865578965,-569.0
19430.6099280762,-612.0
19430.609990573437,-857.0
19430.610053070675,-877.0
19430.610115567913,-708.0
19430.610178065148,-317.0
19430.610240562386,-55.0
19430.610303059624,22.0
19430.610365556862,160.0
19430.610428054097,269.0
19430.610490551335,289.0
19430.610553048573,129.0
19430.61061554581,-179.0
19430.610678043045,-344.0
19430.610740540284,-249.0
19430.61080303752,-237.0
19430.61086553476,-309.0
19430.610928031994,-210.0
19430.610990529232,-52.0
19430.61105302647,191.0
19430.61111552371,360.0
19430.611178020943,238.0
19430.61124051818,108.0
19430.61130301542,103.0
19430.611365512654,263.0
19430.611428009892,365.0
19430.61149050713,213.0
19430.611553004368,55.0
19430.611615501603,37.0
19430.61167799884,203.0
19430.61174049608,425.0
19430.611802993317,558.0
19430.61186549055,511.0
19430.61192798779,455.0
19430.611990485027,550.0
19430.612052982266,433.0
19430.6121154795,215.0
19430.612177976738,67.0
19430.612240473976,115.0
19430.612302971214,189.0
19430.61236546845,27.0
19430.612427965687,-14.0
19430.612490462925,134.0
19430.612552960163,59.0
19430.612615457398,107.0
19430.612677954636,304.0
19430.612740451874,243.0
19430.61280294911,275.0
19430.612865446346,418.0
19430.612927943585,200.0
19430.612990440823,74.0
19430.61305293806,89.0
19430.613115435295,-150.0
19430.613177932533,-225.0
19430.61324042977,-17.0
19430.613302927006,90.0
19430.613365424244,175.0
19430.613427921482,162.0
19430.61349041872,98.0
19430.613552915955,390.0
19430.613615413193,591.0
19430.61367791043,451.0
19430.61374040767,637.0
19430.613802904903,711.0
19430.61386540214,449.0
19430.61392789938,393.0
19430.613990396618,386.0
19430.614052893852,410.0
19430.61411539109,387.0
19430.61417788833,454.0
19430.614240385567,643.0
19430.6143028828,578.0
19430.61436538004,606.0
19430.614427877277,671.0
19430.614490374515,455.0
19430.61455287175,202.0
19430.614615368988,260.0
19430.614677866226,91.0
19430.61474036346,0.0
19430.6148028607,38.0
19430.614865357937,-68.0
19430.614927855175,53.0
19430.614990352413,216.0
19430.615052849647,353.0
19430.615115346885,441.0
19430.615177844124,372.0
19430.615240341358,151.0
19430.615302838596,54.0
19430.615365335834,98.0
19430.615427833072,172.0
19430.615490330307,179.0
19430.615552827545,28.0
19430.615615324783,15.0
19430.61567782202,102.0
19430.615740319256,78.0
19430.615802816494,102.0
19430.61586531373,210.0
19430.61592781097,324.0
19430.615990308204,318.0
19430.616052805442,524.0
19430.61611530268,501.0
19430.61617779992,129.0
19430.616240297153,146.0
19430.61630279439,180.0
19430.61636529163,117.0
19430.616427788867,-47.0
19430.616490286102,-84.0
19430.61655278334,106.0
19430.616615280578,88.0
19430.616677777813,-40.0
19430.61674027505,-8.0
19430.61680277229,111.0
19430.616865269527,279.0
19430.61692776676,354.0
19430.616990264,260.0
19430.617052761238,152.0
19430.617115258476,188.0
19430.61717775571,292.0
19430.61724025295,423.0
19430.617302750186,430.0
19430.617365247424,368.0
19430.61742774466,413.0
19430.617490241897,325.0
19430.617552739135,175.0
19430.617615236373,107.0
19430.617677733608,201.0
19430.617740230846,581.0
19430.617802728084,781.0
19430.617865225322,565.0
19430.617927722556,560.0
19430.617990219795,749.0
19430.618052717033,681.0
19430.61811521427,623.0
19430.618177711505,518.0
19430.618240208743,492.0
19430.61830270598,424.0
19430.61836520322,315.0
19430.618427700454,399.0
19430.618490197692,504.0
19430.61855269493,543.0
19430.618615192165,661.0
19430.618677689403,678.0
19430.61874018664,516.0
19430.61880268388,358.0
19430.618865181114,312.0
19430.61892767835,246.0
19430.61899017559,221.0
19430.619052672828,220.0
19430.619115170062,23.0
19430.6191776673,-20.0
19430.61924016454,28.0
19430.619302661777,155.0
19430.61936515901,385.0
19430.61942765625,406.0
19430.619490153487,311.0
19430.619552650725,370.0
19430.61961514796,470.0
19430.619677645198,427.0
19430.619740142436,172.0
19430.619802639674,294.0
19430.61986513691,411.0
19430.619927634147,318.0
19430.619990131385,405.0
19430.62005262862,260.0
19430.620115125857,327.0
19430.620177623096,416.0
19430.620240120334,208.0
19430.62030261757,270.0
19430.620365114806,482.0
19430.620427612044,410.0
19430.620490109282,283.0
19430.620552606517,129.0
19430.620615103755,-75.0
19430.620677600993,-152.0
19430.62074009823,-171.0
19430.620802595466,-173.0
19430.620865092704,-167.0
19430.620927589942,-173.0
19430.62099008718,-124.0
19430.621052584414,-31.0
19430.621115081653,-79.0
19430.62117757889,-55.0
19430.62124007613,-1.0
19430.621302573363,-66.0
19430.6213650706,-70.0
19430.62142756784,-146.0
19430.621490065078,-38.0
19430.621552562312,-41.0
19430.62161505955,-53.0
19430.62167755679,110.0
19430.621740054026,122.0
19430.62180255126,285.0
19430.6218650485,460.0
19430.621927545737,493.0
19430.62199004297,529.0
19430.62205254021,636.0
19430.622115037448,914.0
19430.622177534686,834.0
19430.62224003192,699.0
19430.62230252916,827.0
19430.622365026396,752.0
19430.622427523635,817.0
19430.62249002087,818.0
19430.622552518107,789.0
19430.622615015345,785.0
19430.622677512583,797.0
19430.622740009818,959.0
19430.622802507056,830.0
19430.622865004294,608.0
19430.622927501532,534.0
19430.622989998767,488.0
19430.623052496005,242.0
19430.623114993243,91.0
19430.62317749048,91.0
19430.623239987715,-95.0
19430.623302484953,-117.0
19430.62336498219,96.0
19430.62342747943,287.0
19430.623489976664,259.0
19430.623552473902,497.0
19430.62361497114,953.0
19430.62367746838,1073.0
19430.623739965613,965.0
19430.62380246285,996.0
19430.62386496009,954.0
19430.623927457324,940.0
19430.62398995456,943.0
19430.6240524518,607.0
19430.624114949038,620.0
19430.624177446272,883.0
19430.62423994351,740.0
19430.62430244075,722.0
19430.624364937987,680.0
19430.62442743522,467.0
19430.62448993246,654.0
19430.624552429697,763.0
19430.624614926935,452.0
19430.62467742417,229.0
19430.624739921408,338.0
19430.624802418646,325.0
19430.624864915884,172.0
19430.62492741312,172.0
19430.624989910357,132.0
19430.625052407595,176.0
19430.625114904833,246.0
19430.625177402067,164.0
19430.625239899306,29.0
19430.625302396544,72.0
19430.625364893778,147.0
19430.625427391016,75.0
19430.625489888254,113.0
19430.625552385492,-30.0
19430.62561488273,-125.0
19430.625677379965,-6.0
19430.625739877203,-73.0
19430.62580237444,-149.0
19430.625864871676,-30.0
19430.625927368914,137.0
19430.625989866152,204.0
19430.62605236339,256.0
19430.626114860625,224.0
19430.626177357863,169.0
19430.6262398551,96.0
19430.62630235234,128.0
19430.626364849573,257.0
19430.62642734681,100.0
19430.62648984405,-35.0
19430.626552341288,-112.0
19430.626614838522,-312.0
19430.62667733576,-295.0
19430.626739833,-345.0
19430.626802330236,-319.0
19430.62686482747,-101.0
19430.62692732471,-106.0
19430.626989821947,128.0
19430.627052319185,446.0
19430.62711481642,287.0
19430.627177313658,121.0
19430.627239810896,258.0
19430.62730230813,129.0
19430.62736480537,-22.0
19430.627427302607,52.0
19430.627489799845,-4.0
19430.62755229708,56.0
19430.627614794317,222.0
19430.627677291555,95.0
19430.627739788793,136.0
19430.627802286028,374.0
19430.627864783266,365.0
19430.627927280504,335.0
19430.627989777742,211.0
19430.628052274977,13.0
19430.628114772215,15.0
19430.628177269453,56.0
19430.62823976669,85.0
19430.628302263925,6.0
19430.628364761164,176.0
19430.6284272584,561.0
19430.62848975564,559.0
19430.628552252874,618.0
19430.628614750112,770.0
19430.62867724735,789.0
19430.62873974459,831.0
19430.628802241823,897.0
19430.62886473906,886.0
19430.6289272363,687.0
19430.628989733537,645.0
19430.62905223077,724.0
19430.62911472801,698.0
19430.629177225248,693.0
19430.629239722482,662.0
19430.62930221972,731.0
19430.62936471696,655.0
19430.629427214197,492.0
19430.62948971143,349.0
19430.62955220867,214.0
19430.629614705907,253.0
19430.629677203146,213.0
19430.62973970038,142.0
19430.629802197618,-74.0
19430.629864694856,-177.0
19430.629927192094,-49.0
19430.62998968933,-117.0
19430.630052186567,-52.0
19430.630114683805,126.0
19430.630177181043,154.0
19430.630239678278,253.0
19430.630302175516,269.0
19430.630364672754,164.0
19430.630427169992,232.0
19430.630489667226,273.0
19430.630552164464,251.0
19430.630614661703,212.0
19430.630677158937,78.0
19430.630739656175,20.0
19430.630802153413,184.0
19430.63086465065,192.0
19430.63092714789,94.0
19430.630989645124,272.0
19430.631052142362,473.0
19430.6311146396,467.0
19430.631177136835,651.0
19430.631239634073,659.0
19430.63130213131,462.0
19430.63136462855,456.0
19430.631427125783,271.0
19430.63148962302,169.0
19430.63155212026,226.0
19430.631614617498,154.0
19430.631677114732,161.0
19430.63173961197,433.0
19430.63180210921,489.0
19430.631864606446,331.0
19430.63192710368,321.0
19430.63198960092,284.0
19430.632052098157,263.0
19430.632114595395,182.0
19430.63217709263,223.0
19430.632239589868,155.0
19430.632302087106,141.0
19430.632364584344,156.0
19430.63242708158,12.0
19430.632489578817,158.0
19430.632552076055,211.0
19430.63261457329,271.0
19430.632677070527,328.0
19430.632739567765,298.0
19430.632802065003,410.0
19430.632864562238,393.0
19430.632927059476,475.0
19430.632989556714,605.0
19430.633052053952,574.0
19430.633114551187,485.0
19430.633177048425,406.0
19430.633239545663,301.0
19430.6333020429,279.0
19430.633364540136,332.0
19430.633427037374,317.0
19430.63348953461,332.0
19430.63355203185,481.0
19430.633614529084,570.0
19430.633677026322,514.0
19430.63373952356,511.0
19430.6338020208,549.0
19430.633864518033,631.0
19430.63392701527,615.0
19430.63398951251,578.0
19430.634052009747,703.0
19430.634114506982,770.0
19430.63417700422,841.0
19430.634239501458,1028.0
19430.634301998696,1164.0
19430.63436449593,1106.0
19430.63442699317,1065.0
19430.634489490407,934.0
19430.63455198764,841.0
19430.63461448488,848.0
19430.634676982118,612.0
19430.634739479356,418.0
19430.63480197659,556.0
19430.63486447383,507.0
19430.634926971066,303.0
19430.634989468304,320.0
19430.63505196554,390.0
19430.635114462777,390.0
19430.635176960015,397.0
19430.635239457253,394.0
19430.635301954488,371.0
19430.635364451726,393.0
19430.635426948964,204.0
19430.635489446202,32.0
19430.635551943436,17.0
19430.635614440675,-4.0
19430.635676937913,-34.0
19430.63573943515,24.0
19430.635801932385,158.0
19430.635864429623,114.0
19430.63592692686,6.0
19430.635989424096,-2.0
19430.636051921334,-141.0
19430.636114418572,-38.0
19430.63617691581,186.0
19430.63623941305,320.0
19430.636301910283,268.0
19430.63636440752,313.0
19430.63642690476,520.0
19430.636489401993,689.0
19430.63655189923,676.0
19430.63661439647,498.0
19430.636676893708,711.0
19430.636739390942,757.0
19430.63680188818,701.0
19430.63686438542,653.0
19430.636926882657,442.0
19430.63698937989,334.0
19430.63705187713,308.0
19430.637114374367,191.0
19430.637176871605,41.0
19430.63723936884,13.0
19430.637301866078,62.0
19430.637364363316,150.0
19430.637426860554,295.0
19430.63748935779,471.0
19430.637551855027,594.0
19430.637614352265,783.0
19430.637676849503,774.0
19430.637739346737,660.0
19430.637801843975,666.0
19430.637864341214,603.0
19430.637926838448,498.0
19430.637989335686,518.0
19430.638051832924,549.0
19430.638114330162,583.0
19430.6381768274,649.0
19430.638239324635,873.0
19430.638301821873,932.0
19430.63836431911,784.0
19430.638426816346,814.0
19430.638489313584,710.0
19430.63855181082,735.0
19430.63861430806,597.0
19430.638676805294,316.0
19430.638739302532,307.0
19430.63880179977,468.0
19430.63886429701,403.0
19430.638926794243,193.0
19430.63898929148,326.0
19430.63905178872,419.0
19430.639114285957,405.0
19430.639176783192,459.0
19430.63923928043,330.0
19430.639301777668,188.0
19430.639364274906,172.0
19430.63942677214,232.0
19430.63948926938,248.0
19430.639551766617,157.0
19430.639614263855,85.0
19430.63967676109,252.0
19430.639739258328,438.0
19430.639801755566,293.0
19430.6398642528,162.0
19430.63992675004,351.0
19430.639989247276,585.0
19430.640051744514,654.0
19430.64011424175,646.0
19430.640176738987,732.0
19430.640239236225,590.0
19430.640301733463,541.0
19430.640364230698,470.0
19430.640426727936,212.0
19430.640489225174,170.0
19430.640551722412,206.0
19430.640614219647,210.0
19430.640676716885,18.0
19430.640739214123,19.0
19430.64080171136,87.0
19430.640864208595,36.0
19430.640926705833,-136.0
19430.64098920307,-329.0
19430.64105170031,-250.0
19430.641114197544,-209.0
19430.641176694782,-204.0
19430.64123919202,-119.0
19430.64130168926,2.0
19430.641364186493,30.0
19430.64142668373,216.0
19430.64148918097,471.0
19430.641551678207,276.0
19430.64161417544,-14.0
19430.64167667268,-39.0
19430.641739169918,-43.0
19430.641801667152,154.0
19430.64186416439,7.0
19430.64192666163,-190.0
19430.641989158867,26.0
19430.6420516561,62.0
19430.64211415334,22.0
19430.642176650577,3.0
19430.642239147815,58.0
19430.64230164505,149.0
19430.642364142288,149.0
19430.642426639526,106.0
19430.642489136764,103.0
19430.642551634,16.0
19430.642614131237,-132.0
19430.642676628475,-28.0
19430.642739125713,-11.0
19430.642801622947,93.0
19430.642864120186,185.0
19430.642926617424,152.0
19430.64298911466,139.0
19430.643051611896,107.0
19430.643114109134,103.0
19430.643176606372,59.0
19430.643239103607,-1.0
19430.643301600845,114.0
19430.643364098083,256.0
19430.64342659532,44.0
19430.64348909256,-33.0
19430.643551589794,-20.0
19430.643614087032,-120.0
19430.64367658427,125.0
19430.643739081504,181.0
19430.643801578743,143.0
19430.64386407598,89.0
19430.64392657322,-24.0
19430.643989070453,164.0
19430.64405156769,61.0
19430.64411406493,-111.0
19430.644176562168,-51.0
19430.644239059402,63.0
19430.64430155664,215.0
19430.64436405388,232.0
19430.644426551116,356.0
19430.64448904835,481.0
19430.64455154559,534.0
19430.644614042827,452.0
19430.644676540065,648.0
19430.6447390373,619.0
19430.644801534538,526.0
19430.644864031776,596.0
19430.644926529014,404.0
19430.64498902625,408.0
19430.645051523486,411.0
19430.645114020725,402.0
19430.64517651796,350.0
19430.645239015197,274.0
19430.645301512435,299.0
19430.645364009673,161.0
19430.645426506908,204.0
19430.645489004146,435.0
19430.645551501384,464.0
19430.645613998622,539.0
19430.645676495857,518.0
19430.645738993095,391.0
19430.645801490333,265.0
19430.64586398757,110.0
19430.645926484805,-27.0
19430.645988982043,-309.0
19430.64605147928,-553.0
19430.64611397652,-391.0
19430.646176473754,-320.0
19430.646238970992,-346.0
19430.64630146823,-303.0
19430.64636396547,-134.0
19430.646426462703,185.0
19430.64648895994,272.0
19430.64655145718,234.0
19430.646613954417,132.0
19430.64667645165,-51.0
19430.64673894889,195.0
19430.646801446128,426.0
19430.646863943366,389.0
19430.6469264406,369.0
19430.64698893784,618.0
19430.647051435077,938.0
19430.64711393231,877.0
19430.64717642955,688.0
19430.647238926787,480.0
19430.647301424025,330.0
19430.64736392126,268.0
19430.647426418498,-16.0
19430.647488915736,-261.0
19430.647551412974,-238.0
19430.64761391021,-142.0
19430.647676407447,76.0
19430.647738904685,236.0
19430.647801401923,219.0
19430.647863899158,267.0
19430.647926396396,402.0
19430.647988893634,329.0
19430.648051390872,286.0
19430.648113888106,183.0
19430.648176385344,329.0
19430.648238882583,638.0
19430.64830137982,600.0
19430.648363877055,648.0
19430.648426374293,482.0
19430.64848887153,447.0
19430.648551368766,528.0
19430.648613866004,470.0
19430.648676363242,495.0
19430.64873886048,466.0
19430.64880135772,415.0
19430.648863854953,465.0
19430.64892635219,549.0
19430.64898884943,543.0
19430.649051346663,542.0
19430.6491138439,464.0
19430.64917634114,232.0
19430.649238838378,122.0
19430.649301335612,20.0
19430.64936383285,-82.0
19430.64942633009,-13.0
19430.649488827326,-46.0
19430.64955132456,-147.0
19430.6496138218,-383.0
19430.649676319037,-491.0
19430.649738816275,-296.0
19430.64980131351,-94.0
19430.649863810748,32.0
19430.649926307986,-163.0
19430.649988805224,-364.0
19430.65005130246,-150.0
19430.650113799697,-55.0
19430.650176296935,-98.0
19430.650238794173,-40.0
19430.650301291407,26.0
19430.650363788645,119.0
19430.650426285883,268.0
19430.650488783118,375.0
19430.650551280356,240.0
19430.650613777594,208.0
19430.650676274832,245.0
19430.650738772067,218.0
19430.650801269305,192.0
19430.650863766543,82.0
19430.65092626378,87.0
19430.650988761015,153.0
19430.651051258254,91.0
19430.65111375549,-87.0
19430.65117625273,-27.0
19430.651238749964,-26.0
19430.651301247202,-140.0
19430.65136374444,-150.0
19430.65142624168,-314.0
19430.651488738913,-318.0
19430.65155123615,-277.0
19430.65161373339,-66.0
19430.651676230627,19.0
19430.65173872786,98.0
19430.6518012251,168.0
19430.651863722338,-46.0
19430.651926219576,-48.0
19430.65198871681,27.0
19430.65205121405,126.0
19430.652113711287,158.0
19430.652176208525,342.0
19430.65223870576,588.0
19430.652301202997,530.0
19430.652363700236,535.0
19430.65242619747,493.0
19430.652488694708,432.0
19430.652551191946,476.0
19430.652613689184,387.0
19430.65267618642,212.0
19430.652738683657,28.0
19430.652801180895,234.0
19430.652863678133,324.0
19430.652926175368,214.0
19430.652988672606,340.0
19430.653051169844,354.0
19430.653113667082,329.0
19430.653176164316,503.0
19430.653238661554,724.0
19430.653301158793,948.0
19430.65336365603,1017.0
19430.653426153265,989.0
19430.653488650503,1030.0
19430.65355114774,962.0
19430.65361364498,750.0
19430.653676142214,403.0
19430.653738639452,230.0
19430.65380113669,330.0
19430.653863633925,211.0
19430.653926131163,67.0
19430.6539886284,127.0
19430.65405112564,154.0
19430.654113622877,253.0
19430.65417612011,355.0
19430.65423861735,433.0
19430.654301114588,630.0
19430.654363611822,685.0
19430.65442610906,696.0
19430.6544886063,883.0
19430.654551103537,1058.0
19430.65461360077,1071.0
19430.65467609801,817.0
19430.654738595247,754.0
19430.654801092485,834.0
19430.65486358972,802.0
19430.654926086958,707.0
19430.654988584196,527.0
19430.655051081434,756.0
19430.65511357867,951.0
19430.655176075907,762.0
19430.655238573145,573.0
19430.655301070383,366.0
19430.655363567617,331.0
19430.655426064855,362.0
19430.655488562094,220.0
19430.65555105933,43.0
19430.655613556566,14.0
19430.655676053804,156.0
19430.655738551042,351.0
19430.655801048277,681.0
19430.655863545515,843.0
19430.655926042753,778.0
19430.65598853999,965.0
19430.656051037226,1072.0
19430.656113534464,847.0
19430.6561760317,784.0
19430.65623852894,580.0
19430.656301026174,427.0
19430.656363523412,392.0
19430.65642602065,312.0
19430.65648851789,401.0
19430.656551015123,517.0
19430.65661351236,814.0
19430.6566760096,792.0
19430.656738506837,788.0
19430.656801004072,879.0
19430.65686350131,663.0
19430.656925998548,584.0
19430.656988495786,432.0
19430.65705099302,41.0
19430.65711349026,-213.0
19430.657175987497,-326.0
19430.657238484735,-236.0
19430.65730098197,-152.0
19430.657363479208,-175.0
19430.657425976446,53.0
19430.657488473684,35.0
19430.65755097092,29.0
19430.657613468156,58.0
19430.657675965394,-183.0
19430.65773846263,-321.0
19430.657800959867,-460.0
19430.657863457105,-596.0
19430.657925954343,-467.0
19430.657988451578,-326.0
19430.658050948816,-338.0
19430.658113446054,-155.0
19430.658175943292,136.0
19430.658238440526,56.0
19430.658300937765,109.0
19430.658363435003,253.0
19430.65842593224,177.0
19430.658488429475,238.0
19430.658550926713,263.0
19430.65861342395,78.0
19430.65867592119,-134.0
19430.658738418424,-102.0
19430.658800915662,-180.0
19430.6588634129,-299.0
19430.65892591014,-239.0
19430.658988407373,-189.0
19430.65905090461,72.0
19430.65911340185,153.0
19430.659175899083,181.0
19430.65923839632,395.0
19430.65930089356,300.0
19430.659363390798,-2.0
19430.659425888036,-209.0
19430.65948838527,-223.0
19430.65955088251,-224.0
19430.659613379747,-57.0
19430.65967587698,63.0
19430.65973837422,53.0
19430.659800871457,464.0
19430.659863368695,470.0
19430.65992586593,175.0
19430.659988363168,347.0
19430.660050860406,400.0
19430.660113357644,302.0
19430.66017585488,245.0
19430.660238352117,271.0
19430.660300849355,345.0
19430.660363346593,355.0
19430.660425843827,348.0
19430.660488341066,366.0
19430.660550838304,496.0
19430.66061333554,635.0
19430.660675832776,641.0
19430.660738330014,806.0
19430.660800827252,839.0
19430.66086332449,620.0
19430.660925821725,726.0
19430.660988318963,825.0
19430.6610508162,672.0
19430.661113313436,555.0
19430.661175810674,416.0
19430.661238307912,345.0
19430.66130080515,384.0
19430.661363302388,370.0
19430.661425799623,368.0
19430.66148829686,407.0
19430.6615507941,450.0
19430.661613291333,450.0
19430.66167578857,369.0
19430.66173828581,254.0
19430.661800783048,199.0
19430.661863280282,125.0
19430.66192577752,133.0
19430.66198827476,86.0
19430.662050771996,54.0
19430.66211326923,217.0
19430.66217576647,212.0
19430.662238263707,130.0
19430.662300760945,53.0
19430.66236325818,148.0
19430.662425755418,362.0
19430.662488252656,294.0
19430.662550749894,156.0
19430.66261324713,260.0
19430.662675744366,355.0
19430.662738241605,211.0
19430.662800738843,367.0
19430.662863236077,472.0
19430.662925733315,320.0
19430.662988230553,481.0
19430.663050727788,489.0
19430.663113225026,298.0
19430.663175722264,123.0
19430.663238219502,-150.0
19430.663300716737,-199.0
19430.663363213975,-235.0
19430.663425711213,-367.0
19430.66348820845,-251.0
19430.663550705685,-224.0
19430.663613202923,-54.0
19430.66367570016,-155.0
19430.6637381974,-259.0
19430.663800694634,46.0
19430.663863191872,128.0
19430.66392568911,46.0
19430.66398818635,11.0
19430.664050683583,8.0
19430.66411318082,-91.0
19430.66417567806,-273.0
19430.664238175297,-357.0
19430.66430067253,-197.0
19430.66436316977,-54.0
19430.664425667008,36.0
19430.664488164246,41.0
19430.66455066148,26.0
19430.66461315872,-70.0
19430.664675655957,-268.0
19430.664738153195,-162.0
19430.66480065043,-43.0
19430.664863147667,-112.0
19430.664925644905,134.0
19430.66498814214,315.0
19430.665050639378,349.0
19430.665113136616,272.0
19430.665175633854,116.0
19430.66523813109,43.0
19430.665300628327,93.0
19430.665363125565,253.0
19430.665425622803,131.0
19430.665488120037,6.0
19430.665550617276,-99.0
19430.665613114514,-212.0
19430.66567561175,-229.0
19430.665738108986,-230.0
19430.665800606224,-258.0
19430.665863103462,-330.0
19430.6659256007,-298.0
19430.665988097935,-238.0
19430.666050595173,-355.0
19430.66611309241,-254.0
19430.66617558965,-126.0
19430.666238086884,-335.0
19430.666300584122,-386.0
19430.66636308136,-386.0
19430.666425578594,-412.0
19430.666488075833,-545.0
19430.66655057307,-582.0
19430.66661307031,-476.0
19430.666675567547,-288.0
19430.66673806478,-98.0
19430.66680056202,76.0
19430.666863059258,221.0
19430.666925556492,286.0
19430.66698805373,244.0
19430.66705055097,3.0
19430.667113048206,-294.0
19430.66717554544,-430.0
19430.66723804268,-140.0
19430.667300539917,122.0
19430.667363037155,95.0
19430.66742553439,95.0
19430.667488031628,402.0
19430.667550528866,698.0
19430.667613026104,746.0
19430.66767552334,717.0
19430.667738020577,492.0
19430.667800517815,601.0
19430.667863015053,620.0
19430.667925512287,310.0
19430.667988009525,187.0
19430.668050506763,207.0
19430.668113004,330.0
19430.668175501236,299.0
19430.668237998474,227.0
19430.668300495712,218.0
19430.668362992947,172.0
19430.668425490185,207.0
19430.668487987423,204.0
19430.66855048466,166.0
19430.668612981895,292.0
19430.668675479134,506.0
19430.66873797637,540.0
19430.66880047361,465.0
19430.668862970844,301.0
19430.668925468082,370.0
19430.66898796532,448.0
19430.66905046256,351.0
19430.669112959793,379.0
19430.66917545703,378.0
19430.66923795427,599.0
19430.669300451507,700.0
19430.66936294874,506.0
19430.66942544598,419.0
19430.669487943218,360.0
19430.669550440456,376.0
19430.66961293769,656.0
19430.66967543493,718.0
19430.669737932167,314.0
19430.669800429405,128.0
19430.66986292664,160.0
19430.669925423877,111.0
19430.669987921116,115.0
19430.670050418354,141.0
19430.670112915588,168.0
19430.670175412826,114.0
19430.670237910064,-131.0
19430.6703004073,-314.0
19430.670362904537,-386.0
19430.670425401775,-314.0
19430.670487899013,-296.0
19430.670550396248,-330.0
19430.670612893486,-183.0
19430.670675390724,-190.0
19430.670737887962,-117.0
19430.670800385196,61.0
19430.670862882434,33.0
19430.670925379673,254.0
19430.67098787691,422.0
19430.671050374145,269.0
19430.671112871383,330.0
19430.67117536862,420.0
19430.67123786586,300.0
19430.671300363094,208.0
19430.671362860332,-21.0
19430.67142535757,-55.0
19430.67148785481,-20.0
19430.671550352043,-192.0
19430.67161284928,-172.0
19430.67167534652,-81.0
19430.671737843753,140.0
19430.67180034099,433.0
19430.67186283823,520.0
19430.671925335468,366.0
19430.671987832706,476.0
19430.67205032994,468.0
19430.67211282718,325.0
19430.672175324416,401.0
19430.67223782165,289.0
19430.67230031889,429.0
19430.672362816127,541.0
19430.672425313365,435.0
19430.6724878106,375.0
19430.672550307838,208.0
19430.672612805076,80.0
19430.672675302314,163.0
19430.67273779955,387.0
19430.672800296787,452.0
19430.672862794025,365.0
19430.672925291263,459.0
19430.672987788497,342.0
19430.673050285735,389.0
19430.673112782973,653.0
19430.67317528021,667.0
19430.673237777446,868.0
19430.673300274684,942.0
19430.673362771922,855.0
19430.67342526916,685.0
19430.673487766395,445.0
19430.673550263633,398.0
19430.67361276087,386.0
19430.673675258106,356.0
19430.673737755344,354.0
19430.67380025258,310.0
19430.67386274982,197.0
19430.673925247054,155.0
19430.673987744292,-36.0
19430.67405024153,-192.0
19430.67411273877,-60.0
19430.674175236003,-14.0
19430.67423773324,13.0
19430.67430023048,1.0
19430.674362727717,-18.0
19430.674425224952,59.0
19430.67448772219,136.0
19430.674550219428,295.0
19430.674612716666,489.0
19430.6746752139,441.0
19430.67473771114,441.0
19430.674800208377,710.0
19430.674862705615,844.0
19430.67492520285,570.0
19430.674987700088,534.0
19430.675050197326,574.0
19430.675112694564,497.0
19430.6751751918,661.0
19430.675237689036,658.0
19430.675300186274,715.0
19430.675362683513,677.0
19430.675425180747,641.0
19430.675487677985,624.0
19430.675550175223,547.0
19430.675612672458,510.0
19430.675675169696,681.0
19430.675737666934,778.0
19430.675800164172,655.0
19430.675862661406,632.0
19430.675925158645,577.0
19430.675987655883,455.0
19430.67605015312,344.0
19430.676112650355,258.0
19430.676175147593,237.0
19430.67623764483,225.0
19430.67630014207,263.0
19430.676362639304,422.0
19430.676425136542,498.0
19430.67648763378,509.0
19430.67655013102,496.0
19430.676612628253,437.0
19430.67667512549,226.0
19430.67673762273,178.0
19430.676800119967,215.0
19430.6768626172,-16.0
19430.67692511444,-95.0
19430.676987611678,139.0
19430.677050108912,304.0
19430.67711260615,287.0
19430.67717510339,486.0
19430.677237600627,662.0
19430.677300097865,946.0
19430.6773625951,910.0
19430.677425092337,571.0
19430.677487589575,298.0
19430.67755008681,193.0
19430.677612584048,184.0
19430.677675081286,-18.0
19430.677737578524,-156.0
19430.67780007576,-224.0
19430.677862572997,-191.0
19430.677925070235,88.0
19430.677987567473,91.0
19430.678050064707,61.0
19430.678112561945,344.0
19430.678175059184,447.0
19430.67823755642,404.0
19430.678300053656,255.0
19430.678362550894,-34.0
19430.678425048132,-183.0
19430.67848754537,-98.0
19430.678550042605,14.0
19430.678612539843,40.0
19430.67867503708,1.0
19430.67873753432,161.0
19430.678800031554,212.0
19430.67886252879,121.0
19430.67892502603,180.0
19430.678987523264,-88.0
19430.679050020502,-341.0
19430.67911251774,-245.0
19430.67917501498,-169.0
19430.679237512213,-223.0
19430.67930000945,-189.0
19430.67936250669,-28.0
19430.679425003927,-19.0
19430.679487501162,45.0
19430.6795499984,-101.0
19430.679612495638,-69.0
19430.679674992876,219.0
19430.67973749011,290.0
19430.67979998735,215.0
19430.679862484587,-40.0
19430.679924981825,-185.0
19430.67998747906,-215.0
19430.680049976298,-346.0
19430.680112473536,-463.0
19430.680174970774,-560.0
19430.68023746801,-558.0
19430.680299965246,-272.0
19430.680362462484,102.0
19430.680424959723,-58.0
19430.680487456957,-56.0
19430.680549954195,153.0
19430.680612451433,158.0
19430.68067494867,183.0
19430.680737445906,-7.0
19430.680799943144,-24.0
19430.680862440382,-96.0
19430.680924937617,-198.0
19430.680987434855,-106.0
19430.681049932093,-126.0
19430.68111242933,-48.0
19430.681174926565,84.0
19430.681237423803,253.0
19430.68129992104,186.0
19430.68136241828,41.0
19430.681424915514,58.0
19430.681487412752,7.0
19430.68154990999,37.0
19430.68161240723,142.0
19430.681674904463,-70.0
19430.6817374017,-69.0
19430.68179989894,13.0
19430.681862396177,-96.0
19430.68192489341,-107.0
19430.68198739065,40.0
19430.682049887888,147.0
19430.682112385126,18.0
19430.68217488236,66.0
19430.6822373796,189.0
19430.682299876837,91.0
19430.68236237407,-48.0
19430.68242487131,-93.0
19430.682487368547,-133.0
19430.682549865785,33.0
19430.682612363024,-70.0
19430.682674860258,-193.0
19430.682737357496,-121.0
19430.682799854734,-32.0
19430.68286235197,242.0
19430.682924849207,515.0
19430.682987346445,718.0
19430.683049843683,821.0
19430.683112340917,844.0
19430.683174838156,682.0
19430.683237335394,435.0
19430.68329983263,331.0
19430.683362329866,214.0
19430.683424827104,135.0
19430.683487324342,186.0
19430.68354982158,276.0
19430.683612318815,204.0
19430.683674816053,346.0
19430.68373731329,666.0
19430.68379981053,643.0
19430.683862307764,508.0
19430.683924805002,463.0
19430.68398730224,352.0
19430.684049799478,371.0
19430.684112296713,387.0
19430.68417479395,421.0
19430.68423729119,516.0
19430.684299788423,581.0
19430.68436228566,492.0
19430.6844247829,515.0
19430.684487280138,447.0
19430.684549777376,316.0
19430.68461227461,441.0
19430.68467477185,305.0
19430.684737269086,96.0
19430.68479976632,212.0
19430.68486226356,135.0
19430.684924760797,-39.0
19430.684987258035,-179.0
19430.68504975527,-301.0
19430.685112252508,-333.0
19430.685174749746,-116.0
19430.685237246984,43.0
19430.68529974422,102.0
19430.685362241456,126.0
19430.685424738695,329.0
19430.685487235933,568.0
19430.685549733167,332.0
19430.685612230405,-14.0
19430.685674727643,-224.0
19430.68573722488,-341.0
19430.685799722116,-415.0
19430.685862219354,-554.0
19430.685924716592,-580.0
19430.68598721383,-255.0
19430.686049711065,89.0
19430.686112208303,-148.0
19430.68617470554,-376.0
19430.686237202775,-330.0
19430.686299700013,-331.0
19430.68636219725,-237.0
19430.68642469449,-178.0
19430.686487191724,-141.0
19430.686549688962,-86.0
19430.6866121862,-18.0
19430.68667468344,141.0
19430.686737180673,480.0
19430.68679967791,479.0
19430.68686217515,183.0
19430.686924672387,136.0
19430.68698716962,117.0
19430.68704966686,-73.0
19430.687112164098,-221.0
19430.687174661336,-168.0
19430.68723715857,-7.0
19430.68729965581,265.0
19430.687362153047,292.0
19430.687424650285,299.0
19430.68748714752,579.0
19430.687549644757,620.0
19430.687612141995,463.0
19430.687674639234,340.0
19430.687737136468,402.0
19430.687799633706,594.0
19430.687862130944,633.0
19430.687924628182,528.0
19430.687987125417,352.0
19430.688049622655,234.0
19430.688112119893,122.0
19430.688174617128,-1.0
19430.688237114366,-154.0
19430.688299611604,-250.0
19430.688362108842,-41.0
19430.688424606076,137.0
19430.688487103314,157.0
19430.688549600553,422.0
19430.68861209779,751.0
19430.688674595025,776.0
19430.688737092263,867.0
19430.6887995895,646.0
19430.68886208674,334.0
19430.688924583974,421.0
19430.688987081212,357.0
19430.68904957845,335.0
19430.689112075688,331.0
19430.689174572923,433.0
19430.68923707016,543.0
19430.6892995674,471.0
19430.689362064637,296.0
19430.68942456187,79.0
19430.68948705911,-22.0
19430.689549556348,13.0
19430.689612053582,-44.0
19430.68967455082,-392.0
19430.68973704806,-320.0
19430.689799545296,-43.0
19430.689862042535,-79.0
19430.68992453977,-125.0
19430.689987037007,-50.0
19430.690049534245,-20.0
19430.69011203148,-6.0
19430.690174528718,154.0
19430.690237025956,-41.0
19430.690299523194,-111.0
19430.69036202043,-14.0
19430.690424517667,-186.0
19430.690487014905,-413.0
19430.690549512143,-609.0
19430.690612009377,-475.0
19430.690674506615,-413.0
19430.690737003853,-325.0
19430.69079950109,-177.0
19430.690861998326,-171.0
19430.690924495564,73.0
19430.690986992802,136.0
19430.69104949004,271.0
19430.691111987275,180.0
19430.691174484513,-73.0
19430.69123698175,-119.0
19430.69129947899,-203.0
19430.691361976224,-168.0
19430.69142447346,-177.0
19430.6914869707,-222.0
19430.691549467934,-150.0
19430.691611965172,-60.0
19430.69167446241,1.0
19430.69173695965,-68.0
19430.691799456883,-130.0
19430.69186195412,-85.0
19430.69192445136,-178.0
19430.691986948597,-289.0
19430.69204944583,-440.0
19430.69211194307,-368.0
19430.692174440308,-137.0
19430.692236937546,67.0
19430.69229943478,185.0
19430.69236193202,182.0
19430.692424429257,31.0
19430.692486926495,5.0
19430.69254942373,173.0
19430.692611920967,191.0
19430.692674418206,-187.0
19430.692736915444,-188.0
19430.692799412678,-205.0
19430.692861909916,-450.0
19430.692924407154,-358.0
19430.692986904392,-386.0
19430.693049401627,-407.0
19430.693111898865,-245.0
19430.693174396103,-195.0
19430.69323689334,-232.0
19430.693299390576,-205.0
19430.693361887814,-108.0
19430.693424385052,-42.0
19430.693486882286,-146.0
19430.693549379524,-142.0
19430.693611876763,-41.0
19430.693674374,218.0
19430.693736871235,483.0
19430.693799368473,543.0
19430.69386186571,518.0
19430.69392436295,627.0
19430.693986860184,747.0
19430.694049357422,578.0
19430.69411185466,363.0
19430.6941743519,251.0
19430.694236849133,73.0
19430.69429934637,196.0
19430.69436184361,470.0
19430.694424340847,414.0
19430.69448683808,264.0
19430.69454933532,282.0
19430.694611832558,280.0
19430.694674329796,338.0
19430.69473682703,307.0
19430.69479932427,125.0
19430.694861821506,200.0
19430.69492431874,266.0
19430.69498681598,126.0
19430.695049313217,174.0
19430.695111810455,196.0
19430.695174307693,168.0
19430.695236804928,253.0
19430.695299302166,76.0
19430.695361799404,40.0
19430.69542429664,113.0
19430.695486793877,141.0
19430.695549291115,188.0
19430.695611788353,128.0
19430.695674285587,28.0
19430.695736782825,111.0
19430.695799280064,227.0
19430.6958617773,-17.0
19430.695924274536,-16.0
19430.695986771774,224.0
19430.696049269012,157.0
19430.69611176625,133.0
19430.696174263485,261.0
19430.696236760723,321.0
19430.69629925796,492.0
19430.6963617552,655.0
19430.696424252434,433.0
19430.69648674967,117.0
19430.69654924691,170.0
19430.696611744148,235.0
19430.696674241382,51.0
19430.69673673862,-95.0
19430.69679923586,199.0
19430.696861733093,470.0
19430.69692423033,545.0
19430.69698672757,502.0
19430.697049224807,384.0
19430.697111722042,407.0
19430.69717421928,456.0
19430.697236716518,386.0
19430.697299213756,480.0
19430.69736171099,494.0
19430.69742420823,565.0
19430.697486705467,766.0
19430.697549202705,750.0
19430.69761169994,732.0
19430.697674197178,785.0
19430.697736694416,704.0
19430.697799191654,488.0
19430.69786168889,244.0
19430.697924186126,118.0
19430.697986683364,348.0
19430.698049180603,297.0
19430.698111677837,-4.0
19430.698174175075,74.0
19430.698236672313,124.0
19430.69829916955,-61.0
19430.698361666786,-37.0
19430.698424164024,-20.0
19430.698486661262,-69.0
19430.6985491585,50.0
19430.698611655735,75.0
19430.698674152973,170.0
19430.69873665021,359.0
19430.698799147445,512.0
19430.698861644683,597.0
19430.69892414192,401.0
19430.69898663916,200.0
19430.699049136394,143.0
19430.699111633632,-141.0
19430.69917413087,-135.0
19430.69923662811,-10.0
19430.699299125343,-19.0
19430.69936162258,124.0
19430.69942411982,175.0
19430.699486617057,382.0
19430.69954911429,388.0
19430.69961161153,395.0
19430.699674108768,326.0
19430.699736606006,88.0
19430.69979910324,289.0
19430.69986160048,262.0
19430.699924097717,196.0
19430.699986594955,237.0
19430.70004909219,93.0
19430.700111589427,130.0
19430.700174086665,279.0
19430.7002365839,268.0
19430.700299081138,185.0
19430.700361578376,116.0
19430.700424075614,45.0
19430.700486572852,-6.0
19430.700549070087,-196.0
19430.700611567325,-433.0
19430.700674064563,-373.0
19430.700736561797,-279.0
19430.700799059035,-314.0
19430.700861556274,-245.0
19430.70092405351,-94.0
19430.700986550746,-187.0
19430.701049047984,-233.0
19430.701111545222,-308.0
19430.70117404246,-321.0
19430.701236539695,-281.0
19430.701299036933,-252.0
19430.70136153417,-275.0
19430.70142403141,-377.0
19430.701486528644,-358.0
19430.701549025882,-303.0
19430.70161152312,-264.0
19430.701674020358,-210.0
19430.701736517593,8.0
19430.70179901483,65.0
19430.70186151207,170.0
19430.701924009307,120.0
19430.70198650654,108.0
19430.70204900378,206.0
19430.702111501017,134.0
19430.702173998252,349.0
19430.70223649549,395.0
19430.702298992728,250.0
19430.702361489966,304.0
19430.7024239872,349.0
19430.70248648444,305.0
19430.702548981677,170.0
19430.702611478915,258.0
19430.70267397615,489.0
19430.702736473388,332.0
19430.702798970626,109.0
19430.702861467864,9.0
19430.7029239651,-82.0
19430.702986462336,39.0
19430.703048959575,219.0
19430.703111456813,220.0
19430.703173954047,297.0
19430.703236451285,367.0
19430.703298948523,424.0
19430.70336144576,538.0
19430.703423942996,500.0
19430.703486440234,467.0
19430.703548937472,462.0
19430.70361143471,518.0
19430.703673931945,351.0
19430.703736429183,195.0
19430.70379892642,205.0
19430.70386142366,82.0
19430.703923920893,171.0
19430.70398641813,373.0
19430.70404891537,517.0
19430.704111412604,365.0
19430.704173909842,179.0
19430.70423640708,167.0
19430.70429890432,49.0
19430.704361401553,-79.0
19430.70442389879,-134.0
19430.70448639603,63.0
19430.704548893267,144.0
19430.7046113905,-22.0
19430.70467388774,-110.0
19430.704736384978,74.0
19430.704798882216,192.0
19430.70486137945,-29.0
19430.70492387669,-15.0
19430.704986373927,10.0
19430.705048871165,-153.0
19430.7051113684,-129.0
19430.705173865637,-276.0
19430.705236362875,-502.0
19430.705298860114,-491.0
19430.705361357348,-67.0
19430.705423854586,234.0
19430.705486351824,62.0
19430.70554884906,111.0
19430.705611346297,174.0
19430.705673843535,247.0
19430.705736340773,238.0
19430.70579883801,-168.0
19430.705861335246,-280.0
19430.705923832484,-208.0
19430.70598632972,-238.0
19430.706048826956,-100.0
19430.706111324194,-51.0
19430.706173821432,-39.0
19430.70623631867,290.0
19430.706298815905,447.0
19430.706361313143,356.0
19430.70642381038,225.0
19430.70648630762,-88.0
19430.706548804854,-303.0
19430.706611302092,-349.0
19430.70667379933,-393.0
19430.706736296568,-85.0
19430.706798793803,63.0
19430.70686129104,83.0
19430.70692378828,123.0
19430.706986285517,86.0
19430.70704878275,11.0
19430.70711127999,-110.0
19430.707173777228,-60.0
19430.707236274466,-77.0
19430.7072987717,-159.0
19430.70736126894,-122.0
19430.707423766176,-206.0
19430.70748626341,-325.0
19430.70754876065,-405.0
19430.707611257887,-452.0
19430.707673755125,-366.0
19430.707736252363,-197.0
19430.707798749598,-125.0
19430.707861246836,-220.0
19430.707923744074,-141.0
19430.70798624131,-84.0
19430.708048738546,-57.0
19430.708111235785,61.0
19430.708173733023,25.0
19430.708236230257,-135.0
19430.708298727495,-264.0
19430.708361224733,-206.0
19430.70842372197,-148.0
19430.708486219206,-266.0
19430.708548716444,-261.0
19430.708611213682,-16.0
19430.70867371092,48.0
19430.708736208155,106.0
19430.708798705393,290.0
19430.70886120263,177.0
19430.70892369987,26.0
19430.708986197104,37.0
19430.70904869434,-161.0
19430.70911119158,-234.0
19430.709173688818,-270.0
19430.709236186052,-364.0
19430.70929868329,-272.0
19430.70936118053,-347.0
19430.709423677763,-460.0
19430.709486175,-397.0
19430.70954867224,-426.0
19430.709611169477,-402.0
19430.70967366671,-366.0
19430.70973616395,-422.0
19430.709798661188,-451.0
19430.709861158426,-563.0
19430.70992365566,-610.0
19430.7099861529,-561.0
19430.710048650137,-500.0
19430.710111147375,-123.0
19430.71017364461,120.0
19430.710236141847,182.0
19430.710298639086,457.0
19430.710361136324,487.0
19430.710423633558,433.0
19430.710486130796,380.0
19430.710548628034,160.0
19430.710611125272,64.0
19430.710673622507,-21.0
19430.710736119745,-101.0
19430.710798616983,-75.0
19430.71086111422,-62.0
19430.710923611456,-44.0
19430.710986108694,28.0
19430.711048605932,-91.0
19430.71111110317,-181.0
19430.711173600404,-50.0
19430.711236097643,-56.0
19430.71129859488,-216.0
19430.711361092115,-243.0
19430.711423589353,-351.0
19430.71148608659,-455.0
19430.71154858383,-261.0
19430.711611081064,-69.0
19430.711673578302,138.0
19430.71173607554,422.0
19430.71179857278,609.0
19430.711861070013,487.0
19430.71192356725,503.0
19430.71198606449,561.0
19430.712048561727,295.0
19430.71211105896,176.0
19430.7121735562,43.0
19430.712236053438,-23.0
19430.712298550676,-39.0
19430.71236104791,1.0
19430.71242354515,142.0
19430.712486042386,131.0
19430.712548539625,148.0
19430.71261103686,108.0
19430.712673534097,-144.0
19430.712736031335,-144.0
19430.71279852857,-29.0
19430.712861025808,-120.0
19430.712923523046,-259.0
19430.712986020284,-282.0
19430.713048517522,-422.0
19430.713111014757,-466.0
19430.713173511995,-312.0
19430.713236009233,-203.0
19430.713298506467,-109.0
19430.713361003705,-123.0
19430.713423500943,-167.0
19430.71348599818,-45.0
19430.713548495416,-9.0
19430.713610992654,-13.0
19430.713673489892,48.0
19430.71373598713,-86.0
19430.713798484365,-136.0
19430.713860981603,-12.0
19430.71392347884,91.0
19430.71398597608,142.0
19430.714048473314,307.0
19430.71411097055,437.0
19430.71417346779,386.0
19430.714235965028,429.0
19430.714298462262,407.0
19430.7143609595,465.0
19430.71442345674,382.0
19430.714485953977,237.0
19430.71454845121,291.0
19430.71461094845,330.0
19430.714673445687,309.0
19430.714735942922,175.0
19430.71479844016,161.0
19430.714860937398,161.0
19430.714923434636,187.0
19430.71498593187,-48.0
19430.71504842911,-250.0
19430.715110926347,-21.0
19430.715173423585,-54.0
19430.71523592082,-230.0
19430.715298418058,-145.0
19430.715360915296,-152.0
19430.715423412534,-26.0
19430.715485909768,153.0
19430.715548407006,73.0
19430.715610904244,192.0
19430.715673401482,215.0
19430.715735898717,292.0
19430.715798395955,528.0
19430.715860893193,353.0
19430.71592339043,129.0
19430.715985887666,203.0
19430.716048384904,406.0
19430.716110882142,478.0
19430.71617337938,593.0
19430.716235876615,679.0
19430.716298373853,798.0
19430.71636087109,1056.0
19430.71642336833,809.0
19430.716485865563,570.0
19430.7165483628,374.0
19430.71661086004,256.0
19430.716673357274,203.0
19430.716735854512,77.0
19430.71679835175,112.0
19430.71686084899,58.0
19430.716923346223,155.0
19430.71698584346,292.0
19430.7170483407,217.0
19430.717110837937,190.0
19430.71717333517,186.0
19430.71723583241,168.0
19430.717298329648,66.0
19430.717360826886,-129.0
19430.71742332412,-239.0
19430.71748582136,-122.0
19430.717548318597,69.0
19430.717610815835,58.0
19430.71767331307,153.0
19430.717735810307,178.0
19430.717798307545,-44.0
19430.717860804783,118.0
19430.717923302018,406.0
19430.717985799256,270.0
19430.718048296494,78.0
19430.71811079373,65.0
19430.718173290967,123.0
19430.718235788205,139.0
19430.718298285443,51.0
19430.71836078268,35.0
19430.718423279915,64.0
19430.718485777154,221.0
19430.71854827439,264.0
19430.718610771626,217.0
19430.718673268864,145.0
19430.718735766102,188.0
19430.71879826334,402.0
19430.718860760575,220.0
19430.718923257813,219.0
19430.71898575505,349.0
19430.71904825229,283.0
19430.719110749524,474.0
19430.71917324676,441.0
19430.719235744,362.0
19430.719298241238,376.0
19430.719360738472,566.0
19430.71942323571,790.0
19430.71948573295,562.0
19430.719548230187,622.0
19430.71961072742,601.0
19430.71967322466,490.0
19430.719735721897,663.0
19430.719798219136,548.0
19430.71986071637,392.0
19430.719923213608,255.0
19430.719985710846,372.0
19430.72004820808,454.0
19430.72011070532,126.0
19430.720173202557,62.0
19430.720235699795,-67.0
19430.72029819703,16.0
19430.720360694268,80.0
19430.720423191506,-248.0
19430.720485688744,-231.0
19430.72054818598,-9.0
19430.720610683216,186.0
19430.720673180454,214.0
19430.720735677693,193.0
19430.720798174927,225.0
19430.720860672165,168.0
19430.720923169403,240.0
19430.72098566664,252.0
19430.721048163876,251.0
19430.721110661114,296.0
19430.721173158352,136.0
19430.72123565559,115.0
19430.721298152825,168.0
19430.721360650063,28.0
19430.7214231473,375.0
19430.72148564454,642.0
19430.721548141773,663.0
19430.72161063901,923.0
19430.72167313625,1090.0
19430.721735633488,931.0
19430.721798130722,558.0
19430.72186062796,508.0
19430.7219231252,273.0
19430.721985622433,-169.0
19430.72204811967,-250.0
19430.72211061691,-355.0
19430.722173114147,-398.0
19430.72223561138,-367.0
19430.72229810862,-324.0
19430.722360605858,-185.0
19430.722423103096,-311.0
19430.72248560033,-412.0
19430.72254809757,-339.0
19430.722610594807,-420.0
19430.722673092045,-609.0
19430.72273558928,-441.0
19430.722798086517,-188.0
19430.722860583755,-173.0
19430.722923080993,-204.0
19430.722985578228,-62.0
19430.723048075466,189.0
19430.723110572704,211.0
19430.723173069942,175.0
19430.723235567177,231.0
19430.723298064415,169.0
19430.723360561653,116.0
19430.723423058887,188.0
19430.723485556126,96.0
19430.723548053364,201.0
19430.7236105506,200.0
19430.72367304784,86.0
19430.723735545074,110.0
19430.723798042312,50.0
19430.72386053955,249.0
19430.723923036785,398.0
19430.723985534023,279.0
19430.72404803126,160.0
19430.7241105285,-26.0
19430.724173025734,-117.0
19430.724235522972,-287.0
19430.72429802021,-538.0
19430.724360517448,-609.0
19430.724423014683,-560.0
19430.72448551192,-455.0
19430.72454800916,-286.0
19430.724610506397,-308.0
19430.72467300363,-362.0
19430.72473550087,36.0
19430.724797998108,241.0
19430.724860495346,39.0
19430.72492299258,-171.0
19430.72498548982,-261.0
19430.725047987056,-250.0
19430.725110484294,-360.0
19430.72517298153,-438.0
19430.725235478767,-260.0
19430.725297976005,-75.0
19430.72536047324,154.0
19430.725422970478,306.0
19430.725485467716,88.0
19430.725547964954,88.0
19430.725610462192,83.0
19430.725672959426,-155.0
19430.725735456665,-268.0
19430.725797953903,-417.0
19430.725860451137,-454.0
19430.725922948375,-400.0
19430.725985445613,-423.0
19430.72604794285,-467.0
19430.726110440086,-369.0
19430.726172937324,-311.0
19430.726235434562,-331.0
19430.7262979318,-369.0
19430.726360429035,-670.0
19430.726422926273,-810.0
19430.72648542351,-769.0
19430.72654792075,-625.0
19430.726610417983,-691.0
19430.72667291522,-710.0
19430.72673541246,-491.0
19430.726797909698,-320.0
19430.726860406932,-170.0
19430.72692290417,-309.0
19430.72698540141,-433.0
19430.727047898647,-284.0
19430.72711039588,-160.0
19430.72717289312,-90.0
19430.727235390357,4.0
19430.72729788759,-150.0
19430.72736038483,-67.0
19430.727422882068,88.0
19430.727485379306,-4.0
19430.72754787654,-74.0
19430.72761037378,-140.0
19430.727672871017,-103.0
19430.727735368255,-21.0
19430.72779786549,34.0
19430.727860362727,-77.0
19430.727922859965,127.0
19430.727985357204,417.0
19430.728047854438,225.0
19430.728110351676,95.0
19430.728172848914,-79.0
19430.728235346152,-194.0
19430.728297843387,-215.0
19430.728360340625,-282.0
19430.728422837863,-306.0
19430.7284853351,-181.0
19430.728547832336,55.0
19430.728610329574,251.0
19430.72867282681,141.0
19430.728735324046,12.0
19430.728797821284,-119.0
19430.728860318522,-183.0
19430.72892281576,-83.0
19430.728985313,-200.0
19430.729047810233,-188.0
19430.72911030747,-116.0
19430.72917280471,-81.0
19430.729235301944,-77.0
19430.729297799182,-98.0
19430.72936029642,-108.0
19430.729422793658,-119.0
19430.729485290893,15.0
19430.72954778813,-88.0
19430.72961028537,-196.0
19430.729672782607,-259.0
19430.72973527984,-462.0
19430.72979777708,-589.0
19430.729860274318,-490.0
19430.729922771556,-217.0
19430.72998526879,-143.0
19430.73004776603,-240.0
19430.730110263266,-247.0
19430.730172760505,-212.0
19430.73023525774,-277.0
19430.730297754977,-219.0
19430.730360252215,-326.0
19430.730422749453,-279.0
19430.730485246688,-2.0
19430.730547743926,-16.0
19430.730610241164,1.0
19430.7306727384,59.0
19430.730735235637,217.0
19430.730797732875,172.0
19430.730860230113,-67.0
19430.73092272735,-137.0
19430.730985224585,-367.0
19430.731047721823,-431.0
19430.73111021906,-414.0
19430.731172716296,-519.0
19430.731235213534,-503.0
19430.731297710772,-84.0
19430.73136020801,156.0
19430.731422705245,71.0
19430.731485202483,105.0
19430.73154769972,-50.0
19430.73161019696,-100.0
19430.731672694194,-149.0
19430.73173519143,-389.0
19430.73179768867,-435.0
19430.731860185908,-378.0
19430.731922683142,-246.0
19430.73198518038,-48.0
19430.73204767762,-13.0
19430.732110174857,-165.0
19430.73217267209,-95.0
19430.73223516933,225.0
19430.732297666567,229.0
19430.732360163805,215.0
19430.73242266104,317.0
19430.732485158278,332.0
19430.732547655516,312.0
19430.73261015275,204.0
19430.73267264999,336.0
19430.732735147227,559.0
19430.732797644465,626.0
19430.7328601417,487.0
19430.732922638937,353.0
19430.732985136176,445.0
19430.733047633414,521.0
19430.733110130648,522.0
19430.733172627886,412.0
19430.733235125124,288.0
19430.733297622362,171.0
19430.733360119597,151.0
19430.733422616835,157.0
19430.733485114073,-11.0
19430.73354761131,-57.0
19430.733610108546,74.0
19430.733672605784,-83.0
19430.733735103022,-74.0
19430.73379760026,127.0
19430.733860097494,81.0
19430.733922594733,137.0
19430.73398509197,260.0
19430.73404758921,275.0
19430.734110086443,352.0
19430.73417258368,361.0
19430.73423508092,284.0
19430.734297578158,238.0
19430.734360075392,225.0
19430.73442257263,271.0
19430.73448506987,328.0
19430.734547567103,425.0
19430.73461006434,612.0
19430.73467256158,596.0
19430.734735058817,605.0
19430.73479755605,748.0
19430.73486005329,591.0
19430.734922550528,305.0
19430.734985047766,298.0
19430.735047545,172.0
19430.73511004224,107.0
19430.735172539476,317.0
19430.735235036715,374.0
19430.73529753395,395.0
19430.735360031187,408.0
19430.735422528425,440.0
19430.735485025663,455.0
19430.735547522898,366.0
19430.735610020136,230.0
19430.735672517374,98.0
19430.735735014612,-84.0
19430.735797511847,-129.0
19430.735860009085,-70.0
19430.735922506323,-121.0
19430.735985003557,-133.0
19430.736047500795,-90.0
19430.736109998033,83.0
19430.73617249527,182.0
19430.73623499251,160.0
19430.736297489744,154.0
19430.736359986982,128.0
19430.73642248422,-15.0
19430.736484981455,-59.0
19430.736547478693,12.0
19430.73660997593,-71.0
19430.73667247317,-29.0
19430.736734970404,253.0
19430.73679746764,301.0
19430.73685996488,197.0
19430.736922462118,65.0
19430.736984959352,50.0
19430.73704745659,2.0
19430.73710995383,-44.0
19430.737172451067,61.0
19430.7372349483,143.0
19430.73729744554,185.0
19430.737359942777,147.0
19430.737422440016,219.0
19430.73748493725,253.0
19430.737547434488,355.0
19430.737609931726,513.0
19430.737672428964,275.0
19430.7377349262,89.0
19430.737797423437,239.0
19430.737859920675,261.0
19430.73792241791,132.0
19430.737984915148,-111.0
19430.738047412386,-292.0
19430.738109909624,-365.0
19430.73817240686,-440.0
19430.738234904096,-359.0
19430.738297401334,-325.0
19430.738359898573,-114.0
19430.738422395807,27.0
19430.738484893045,-33.0
19430.738547390283,-127.0
19430.73860988752,-236.0
19430.738672384756,-160.0
19430.738734881994,-118.0
19430.738797379232,-56.0
19430.73885987647,-140.0
19430.738922373705,-136.0
19430.738984870943,17.0
19430.73904736818,131.0
19430.73910986542,19.0
19430.739172362653,-148.0
19430.73923485989,6.0
19430.73929735713,203.0
19430.739359854368,385.0
19430.739422351602,270.0
19430.73948484884,156.0
19430.73954734608,389.0
19430.739609843316,418.0
19430.73967234055,345.0
19430.73973483779,258.0
19430.739797335027,283.0
19430.73985983226,415.0
19430.7399223295,650.0
19430.739984826738,592.0
19430.740047323976,297.0
19430.74010982121,423.0
19430.74017231845,506.0
19430.740234815687,463.0
19430.740297312925,249.0
19430.74035981016,-199.0
19430.740422307397,-198.0
19430.740484804635,-50.0
19430.740547301873,-132.0
19430.740609799108,-320.0
19430.740672296346,-405.0
19430.740734793584,-130.0
19430.740797290822,36.0
19430.740859788057,-46.0
19430.740922285295,-195.0
19430.740984782533,-108.0
19430.74104727977,87.0
19430.741109777005,82.0
19430.741172274244,4.0
19430.74123477148,-87.0
19430.741297268716,-126.0
19430.741359765954,-158.0
19430.741422263192,-370.0
19430.74148476043,-453.0
19430.74154725767,-335.0
19430.741609754903,-148.0
19430.74167225214,-138.0
19430.74173474938,-246.0
19430.741797246614,-86.0
19430.741859743852,32.0
19430.74192224109,70.0
19430.741984738328,-19.0
19430.742047235562,-201.0
19430.7421097328,-158.0
19430.74217223004,-29.0
19430.742234727277,74.0
19430.74229722451,265.0
19430.74235972175,483.0
19430.742422218987,407.0
19430.742484716226,283.0
19430.74254721346,122.0
19430.742609710698,151.0
19430.742672207936,86.0
19430.742734705174,-168.0
19430.74279720241,-212.0
19430.742859699647,-151.0
19430.742922196885,-44.0
19430.742984694123,-177.0
19430.743047191358,-267.0
19430.743109688596,-196.0
19430.743172185834,-136.0
19430.74323468307,-19.0
19430.743297180306,-111.0
19430.743359677545,-305.0
19430.743422174783,-239.0
19430.743484672017,-86.0
19430.743547169255,107.0
19430.743609666493,190.0
19430.74367216373,177.0
19430.743734660966,156.0
19430.743797158204,-14.0
19430.743859655442,-110.0
19430.74392215268,-94.0
19430.743984649915,-225.0
19430.744047147153,-71.0
19430.74410964439,286.0
19430.74417214163,214.0
19430.744234638863,76.0
19430.7442971361,-90.0
19430.74435963334,-185.0
19430.744422130578,56.0
19430.744484627812,90.0
19430.74454712505,-135.0
19430.74460962229,-136.0
19430.744672119527,75.0
19430.74473461676,145.0
19430.744797114,-57.0
19430.744859611237,-198.0
19430.744922108475,-61.0
19430.74498460571,228.0
19430.745047102948,103.0
19430.745109600186,-128.0
19430.74517209742,-182.0
19430.74523459466,-181.0
19430.745297091897,-120.0
19430.745359589135,35.0
19430.74542208637,120.0
19430.745484583607,126.0
19430.745547080845,303.0
19430.745609578084,211.0
19430.745672075318,-15.0
19430.745734572556,-164.0
19430.745797069794,-237.0
19430.745859567032,-305.0
19430.745922064267,-268.0
19430.745984561505,-228.0
19430.746047058743,-200.0
19430.74610955598,-105.0
19430.746172053216,76.0
19430.746234550454,68.0
19430.74629704769,-93.0
19430.74635954493,-197.0
19430.746422042164,-327.0
19430.746484539402,-322.0
19430.74654703664,-329.0
19430.746609533875,-197.0
19430.746672031113,-87.0
19430.74673452835,-63.0
19430.74679702559,62.0
19430.746859522827,199.0
19430.746922020062,289.0
19430.7469845173,286.0
19430.747047014538,428.0
19430.747109511773,539.0
19430.74717200901,460.0
19430.74723450625,361.0
19430.747297003487,215.0
19430.74735950072,280.0
19430.74742199796,267.0
19430.747484495198,233.0
19430.747546992436,194.0
19430.74760948967,169.0
19430.74767198691,327.0
19430.747734484146,268.0
19430.747796981384,190.0
19430.74785947862,110.0
19430.747921975857,134.0
19430.747984473095,249.0
19430.748046970333,252.0
19430.748109467568,110.0
19430.748171964806,135.0
19430.748234462044,197.0
19430.748296959282,173.0
19430.748359456516,-41.0
19430.748421953755,-224.0
19430.748484450993,-95.0
19430.748546948227,64.0
19430.748609445465,151.0
19430.748671942703,-19.0
19430.74873443994,-54.0
19430.74879693718,157.0
19430.748859434414,139.0
19430.748921931652,56.0
19430.74898442889,-85.0
19430.749046926125,-110.0
19430.749109423363,-11.0
19430.7491719206,-16.0
19430.74923441784,-33.0
19430.749296915074,-153.0
19430.74935941231,-171.0
19430.74942190955,-2.0
19430.749484406788,62.0
19430.749546904022,148.0
19430.74960940126,237.0
19430.7496718985,295.0
19430.749734395737,255.0
19430.74979689297,-37.0
19430.74985939021,-311.0
19430.749921887447,-276.0
19430.749984384685,-195.0
19430.75004688192,-185.0
19430.750109379158,-113.0
19430.750171876396,46.0
19430.750234373634,113.0
19430.75029687087,91.0
19430.750359368107,34.0
19430.750421865345,36.0
19430.75048436258,155.0
19430.750546859817,82.0
19430.750609357056,-104.0
19430.750671854294,-485.0
19430.750734351528,-723.0
19430.750796848766,-831.0
19430.750859346004,-928.0
19430.750921843242,-875.0
19430.750984340477,-789.0
19430.751046837715,-504.0
19430.751109334953,-248.0
19430.75117183219,-114.0
19430.751234329426,-108.0
19430.751296826664,-430.0
19430.751359323902,-395.0
19430.75142182114,-184.0
19430.751484318374,-322.0
19430.751546815613,-172.0
19430.75160931285,117.0
19430.75167181009,30.0
19430.751734307323,39.0
19430.75179680456,85.0
19430.7518593018,30.0
19430.751921799038,-32.0
19430.751984296272,-55.0
19430.75204679351,-27.0
19430.75210929075,-53.0
19430.752171787986,61.0
19430.75223428522,75.0
19430.75229678246,1.0
19430.752359279697,-87.0
19430.75242177693,-187.0
19430.75248427417,-184.0
19430.752546771408,-277.0
19430.752609268646,-160.0
19430.75267176588,-43.0
19430.75273426312,-14.0
19430.752796760356,4.0
19430.752859257595,-100.0
19430.75292175483,-43.0
19430.752984252067,24.0
19430.753046749305,16.0
19430.753109246543,63.0
19430.753171743778,49.0
19430.753234241016,54.0
19430.753296738254,-183.0
19430.753359235492,-437.0
19430.753421732727,-419.0
19430.753484229965,-210.0
19430.753546727203,-241.0
19430.75360922444,-252.0
19430.753671721675,76.0
19430.753734218913,368.0
19430.75379671615,458.0
19430.753859213386,275.0
19430.753921710624,111.0
19430.753984207862,-27.0
19430.7540467051,-150.0
19430.75410920234,-163.0
19430.754171699573,-137.0
19430.75423419681,4.0
19430.75429669405,-11.0
19430.754359191284,-128.0
19430.75442168852,-69.0
19430.75448418576,-110.0
19430.754546682998,-114.0
19430.754609180232,-75.0
19430.75467167747,-189.0
19430.75473417471,-254.0
19430.754796671947,-379.0
19430.75485916918,-424.0
19430.75492166642,-445.0
19430.754984163657,-381.0
19430.755046660895,-82.0
19430.75510915813,-4.0
19430.755171655368,67.0
19430.755234152606,-33.0
19430.755296649844,-165.0
19430.75535914708,61.0
19430.755421644317,217.0
19430.755484141555,202.0
19430.755546638793,262.0
19430.755609136027,195.0
19430.755671633266,112.0
19430.755734130504,59.0
19430.755796627738,105.0
19430.755859124976,81.0
19430.755921622214,123.0
19430.755984119452,462.0
19430.756046616687,503.0
19430.756109113925,329.0
19430.756171611163,236.0
19430.7562341084,259.0
19430.756296605636,347.0
19430.756359102874,411.0
19430.756421600112,386.0
19430.75648409735,198.0
19430.756546594585,249.0
19430.756609091823,318.0
19430.75667158906,53.0
19430.7567340863,-70.0
19430.756796583533,42.0
19430.75685908077,151.0
19430.75692157801,274.0
19430.756984075248,451.0
19430.757046572482,515.0
19430.75710906972,317.0
19430.75717156696,331.0
19430.757234064196,351.0
19430.75729656143,228.0
19430.75735905867,75.0
19430.757421555907,233.0
19430.757484053145,534.0
19430.75754655038,539.0
19430.757609047618,360.0
19430.757671544856,249.0
19430.75773404209,390.0
19430.75779653933,616.0
19430.757859036567,487.0
19430.757921533805,421.0
19430.75798403104,480.0
19430.758046528277,184.0
19430.758109025515,-27.0
19430.758171522753,-12.0
19430.758234019988,13.0
19430.758296517226,183.0
19430.758359014464,284.0
19430.758421511702,381.0
19430.758484008937,567.0
19430.758546506175,577.0
19430.758609003413,516.0
19430.75867150065,462.0
19430.758733997885,321.0
19430.758796495124,314.0
19430.75885899236,85.0
19430.7589214896,-200.0
19430.758983986834,-284.0
19430.759046484072,-222.0
19430.75910898131,26.0
19430.759171478545,105.0
19430.759233975783,199.0
19430.75929647302,411.0
19430.75935897026,440.0
19430.759421467497,238.0
19430.75948396473,-11.0
19430.75954646197,62.0
19430.759608959208,-50.0
19430.759671456442,-295.0
19430.75973395368,-84.0
19430.75979645092,104.0
19430.759858948157,66.0
19430.75992144539,164.0
19430.75998394263,322.0
19430.760046439867,447.0
19430.760108937106,512.0
19430.76017143434,428.0
19430.760233931578,324.0
19430.760296428816,162.0
19430.760358926054,105.0
19430.76042142329,-105.0
19430.760483920527,-259.0
19430.760546417765,-276.0
19430.760608915003,-285.0
19430.760671412238,-187.0
19430.760733909476,-127.0
19430.760796406714,-139.0
19430.760858903952,-53.0
19430.760921401186,100.0
19430.760983898424,59.0
19430.761046395663,-134.0
19430.761108892897,-163.0
19430.761171390135,-89.0
19430.761233887373,-80.0
19430.76129638461,28.0
19430.761358881846,12.0
19430.761421379084,-66.0
19430.761483876322,106.0
19430.76154637356,153.0
19430.761608870795,22.0
19430.761671368033,86.0
19430.76173386527,97.0
19430.76179636251,92.0
19430.761858859743,58.0
19430.76192135698,-163.0
19430.76198385422,-222.0
19430.762046351458,-210.0
19430.762108848692,-236.0
19430.76217134593,-331.0
19430.76223384317,-316.0
19430.762296340406,-171.0
19430.76235883764,-40.0
19430.76242133488,131.0
19430.762483832117,136.0
19430.762546329355,-16.0
19430.76260882659,-116.0
19430.762671323828,-283.0
19430.762733821066,-409.0
19430.762796318304,-351.0
19430.76285881554,-385.0
19430.762921312777,-491.0
19430.762983810015,-415.0
19430.76304630725,-317.0
19430.763108804487,-227.0
19430.763171301725,-92.0
19430.763233798963,-121.0
19430.763296296198,-124.0
19430.763358793436,-113.0
19430.763421290674,-119.0
19430.763483787912,-111.0
19430.763546285147,-152.0
19430.763608782385,-142.0
19430.763671279623,32.0
19430.76373377686,71.0
19430.763796274096,-23.0
19430.763858771334,27.0
19430.76392126857,51.0
19430.76398376581,-31.0
19430.764046263044,-69.0
19430.764108760282,-172.0
19430.76417125752,-285.0
19430.76423375476,-97.0
19430.764296251993,-26.0
19430.76435874923,-48.0
19430.76442124647,170.0
19430.764483743704,292.0
19430.764546240942,374.0
19430.76460873818,489.0
19430.764671235418,414.0
19430.764733732656,286.0
19430.76479622989,298.0
19430.76485872713,361.0
19430.764921224367,317.0
19430.7649837216,27.0
19430.76504621884,83.0
19430.765108716078,329.0
19430.765171213316,339.0
19430.76523371055,453.0
19430.76529620779,413.0
19430.765358705026,251.0
19430.765421202264,269.0
19430.7654836995,184.0
19430.765546196737,21.0
19430.765608693975,132.0
19430.765671191213,356.0
19430.765733688448,427.0
19430.765796185686,361.0
19430.765858682924,254.0
19430.765921180162,199.0
19430.765983677396,299.0
19430.766046174635,493.0
19430.766108671873,369.0
19430.76617116911,279.0
19430.766233666345,185.0
19430.766296163583,92.0
19430.76635866082,69.0
19430.766421158056,137.0
19430.766483655294,195.0
19430.766546152532,211.0
19430.76660864977,303.0
19430.766671147005,147.0
19430.766733644243,132.0
19430.76679614148,182.0
19430.76685863872,-51.0
19430.766921135953,-34.0
19430.76698363319,114.0
19430.76704613043,238.0
19430.767108627668,230.0
19430.767171124902,26.0
19430.76723362214,-41.0
19430.76729611938,-158.0
19430.767358616617,-277.0
19430.76742111385,-407.0
19430.76748361109,-303.0
19430.767546108327,-232.0
19430.767608605565,-355.0
19430.7676711028,-522.0
19430.767733600038,-652.0
19430.767796097276,-567.0
19430.767858594514,-434.0
19430.76792109175,-383.0
19430.767983588987,-430.0
19430.768046086225,-308.0
19430.768108583463,-220.0
19430.768171080697,-321.0
19430.768233577935,-173.0
19430.768296075174,79.0
19430.768358572408,78.0
19430.768421069646,144.0
19430.768483566884,177.0
19430.768546064122,185.0
19430.768608561357,114.0
19430.768671058595,-133.0
19430.768733555833,-86.0
19430.76879605307,73.0
19430.768858550306,-57.0
19430.768921047544,-186.0
19430.76898354478,-250.0
19430.76904604202,-296.0
19430.769108539254,-185.0
19430.769171036492,-123.0
19430.76923353373,-191.0
19430.76929603097,-61.0
19430.769358528203,1.0
19430.76942102544,-129.0
19430.76948352268,-238.0
19430.769546019917,-272.0
19430.769608517152,-234.0
19430.76967101439,-137.0
19430.769733511628,14.0
19430.769796008863,98.0
19430.7698585061,78.0
19430.76992100334,138.0
19430.769983500577,160.0
19430.770045997815,-61.0
19430.77010849505,-179.0
19430.770170992288,-190.0
19430.770233489526,-197.0
19430.77029598676,-176.0
19430.770358484,-341.0
19430.770420981236,-453.0
19430.770483478474,-412.0
19430.77054597571,-357.0
19430.770608472947,-190.0
19430.770670970185,-192.0
19430.770733467423,-290.0
19430.770795964658,-172.0
19430.770858461896,-93.0
19430.770920959134,9.0
19430.770983456372,85.0
19430.771045953607,74.0
19430.771108450845,202.0
19430.771170948083,295.0
19430.77123344532,454.0
19430.771295942555,416.0
19430.771358439793,217.0
19430.77142093703,119.0
19430.77148343427,226.0
19430.771545931504,333.0
19430.771608428742,150.0
19430.77167092598,15.0
19430.771733423215,44.0
19430.771795920453,204.0
19430.77185841769,241.0
19430.77192091493,160.0
19430.771983412167,74.0
19430.7720459094,116.0
19430.77210840664,262.0
19430.772170903878,202.0
19430.772233401112,308.0
19430.77229589835,358.0
19430.77235839559,425.0
19430.772420892827,527.0
19430.77248339006,449.0
19430.7725458873,419.0
19430.772608384537,323.0
19430.772670881775,201.0
19430.77273337901,166.0
19430.772795876248,127.0
19430.772858373486,0.0
19430.772920870724,128.0
19430.77298336796,316.0
19430.773045865197,385.0
19430.773108362435,500.0
19430.773170859673,533.0
19430.773233356907,609.0
19430.773295854146,777.0
19430.773358351384,795.0
19430.77342084862,795.0
19430.773483345856,638.0
19430.773545843094,603.0
19430.773608340332,887.0
19430.773670837567,822.0
19430.773733334805,658.0
19430.773795832043,545.0
19430.77385832928,603.0
19430.773920826516,503.0
19430.773983323754,190.0
19430.774045820992,102.0
19430.77410831823,191.0
19430.774170815464,222.0
19430.774233312703,80.0
19430.77429580994,73.0
19430.77435830718,12.0
19430.774420804413,46.0
19430.77448330165,204.0
19430.77454579889,430.0
19430.774608296128,592.0
19430.774670793362,522.0
19430.7747332906,499.0
19430.77479578784,475.0
19430.774858285076,423.0
19430.77492078231,183.0
19430.77498327955,-77.0
19430.775045776787,62.0
19430.775108274025,116.0
19430.77517077126,58.0
19430.775233268498,160.0
19430.775295765736,279.0
19430.775358262974,365.0
19430.77542076021,377.0
19430.775483257446,191.0
19430.775545754685,26.0
19430.77560825192,136.0
19430.775670749157,94.0
19430.775733246395,-54.0
19430.775795743633,-133.0
19430.775858240868,-177.0
19430.775920738106,-77.0
19430.775983235344,13.0
19430.776045732582,102.0
19430.776108229817,94.0
19430.776170727055,-58.0
19430.776233224293,128.0
19430.77629572153,227.0
19430.776358218765,-106.0
19430.776420716003,-118.0
19430.77648321324,-26.0
19430.77654571048,-91.0
19430.776608207714,-104.0
19430.776670704952,-223.0
19430.77673320219,-152.0
19430.77679569943,141.0
19430.776858196663,245.0
19430.7769206939,214.0
19430.77698319114,107.0
19430.777045688374,100.0
19430.77710818561,212.0
19430.77717068285,177.0
19430.777233180088,-85.0
19430.777295677326,-248.0
19430.77735817456,-241.0
19430.7774206718,-382.0
19430.777483169037,-362.0
19430.77754566627,-149.0
