time,X_NOSE,Y_NOSE,Z_NOSE,visibility_NOSE,X_LEFT_EYE_INNER,Y_LEFT_EYE_INNER,Z_LEFT_EYE_INNER,visibility_LEFT_EYE_INNER,X_LEFT_EYE,Y_LEFT_EYE,Z_LEFT_EYE,visibility_LEFT_EYE,X_LEFT_EYE_OUTER,Y_LEFT_EYE_OUTER,Z_LEFT_EYE_OUTER,visibility_LEFT_EYE_OUTER,X_RIGHT_EYE_OUTER,Y_RIGHT_EYE_OUTER,Z_RIGHT_EYE_OUTER,visibility_RIGHT_EYE_OUTER,X_RIGHT_EYE,Y_RIGHT_EYE,Z_RIGHT_EYE,visibility_RIGHT_EYE,X_RIGHT_EYE_OUTER,Y_RIGHT_EYE_OUTER,Z_RIGHT_EYE_OUTER,visibility_RIGHT_EYE_OUTER,X_LEFT_EAR,Y_LEFT_EAR,Z_LEFT_EAR,visibility_LEFT_EAR,X_RIGHT_EAR,Y_RIGHT_EAR,Z_RIGHT_EAR,visibility_RIGHT_EAR,X_MOUTH_LEFT,Y_MOUTH_LEFT,Z_MOUTH_LEFT,visibility_MOUTH_LEFT,X_MOUTH_RIGHT,Y_MOUTH_RIGHT,Z_MOUTH_RIGHT,visibility_MOUTH_RIGHT,X_LEFT_SHOULDER,Y_LEFT_SHOULDER,Z_LEFT_SHOULDER,visibility_LEFT_SHOULDER,X_RIGHT_SHOULDER,Y_RIGHT_SHOULDER,Z_RIGHT_SHOULDER,visibility_RIGHT_SHOULDER,X_LEFT_ELBOW,Y_LEFT_ELBOW,Z_LEFT_ELBOW,visibility_LEFT_ELBOW,X_RIGHT_ELBOW,Y_RIGHT_ELBOW,Z_RIGHT_ELBOW,visibility_RIGHT_ELBOW,X_LEFT_WRIST,Y_LEFT_WRIST,Z_LEFT_WRIST,visibility_LEFT_WRIST,X_RIGHT_WRIST,Y_RIGHT_WRIST,Z_RIGHT_WRIST,visibility_RIGHT_WRIST,X_LEFT_PINKY,Y_LEFT_PINKY,Z_LEFT_PINKY,visibility_LEFT_PINKY,X_RIGHT_PINKY,Y_RIGHT_PINKY,Z_RIGHT_PINKY,visibility_RIGHT_PINKY,X_LEFT_INDEX,Y_LEFT_INDEX,Z_LEFT_INDEX,visibility_LEFT_INDEX,X_RIGHT_INDEX,Y_RIGHT_INDEX,Z_RIGHT_INDEX,visibility_RIGHT_INDEX,X_LEFT_THUMB,Y_LEFT_THUMB,Z_LEFT_THUMB,visibility_LEFT_THUMB,X_RIGHT_THUMB,Y_RIGHT_THUMB,Z_RIGHT_THUMB,visibility_RIGHT_THUMB,X_LEFT_HIP,Y_LEFT_HIP,Z_LEFT_HIP,visibility_LEFT_HIP,X_RIGHT_HIP,Y_RIGHT_HIP,Z_RIGHT_HIP,visibility_RIGHT_HIP,X_LEFT_KNEE,Y_LEFT_KNEE,Z_LEFT_KNEE,visibility_LEFT_KNEE,X_RIGHT_KNEE,Y_RIGHT_KNEE,Z_RIGHT_KNEE,visibility_RIGHT_KNEE,X_LEFT_ANKLE,Y_LEFT_ANKLE,Z_LEFT_ANKLE,visibility_LEFT_ANKLE,X_RIGHT_ANKLE,Y_RIGHT_ANKLE,Z_RIGHT_ANKLE,visibility_RIGHT_ANKLE,X_LEFT_HEEL,Y_LEFT_HEEL,Z_LEFT_HEEL,visibility_LEFT_HEEL,X_RIGHT_HEEL,Y_RIGHT_HEEL,Z_RIGHT_HEEL,visibility_RIGHT_HEEL,X_LEFT_FOOT_INDEX,Y_LEFT_FOOT_INDEX,Z_LEFT_FOOT_INDEX,visibility_LEFT_FOOT_INDEX,X_RIGHT_FOOT_INDEX,Y_RIGHT_FOOT_INDEX,Z_RIGHT_FOOT_INDEX,visibility_RIGHT_FOOT_INDEX
19203.01811430505,0.4639589488506317,0.23362967371940613,-1.204785943031311,0.9999783039093018,0.4675549864768982,0.20914620161056519,-1.1547881364822388,0.9999393224716187,0.4750520884990692,0.20822134613990784,-1.1548676490783691,0.9999227523803711,0.48179948329925537,0.20738935470581055,-1.1549324989318848,0.9999167919158936,0.4352204203605652,0.2099229097366333,-1.190677285194397,0.9999560117721558,0.4180734157562256,0.20966535806655884,-1.1909762620925903,0.9999557733535767,0.39809420704841614,0.20973461866378784,-1.1911389827728271,0.999956488609314,0.47005704045295715,0.2133426070213318,-0.7991674542427063,0.9998452663421631,0.3445759415626526,0.2194734811782837,-0.97809237241745,0.9999630451202393,0.47109171748161316,0.2540189027786255,-1.0655771493911743,0.9999873638153076,0.4369701147079468,0.25581279397010803,-1.1159768104553223,0.9999938011169434,0.5478067398071289,0.3490038216114044,-0.5083008408546448,0.9999312162399292,0.17792460322380066,0.36964109539985657,-0.810451090335846,0.9999321699142456,0.5834776163101196,0.5158429145812988,-0.2907337248325348,0.9819068312644958,0.18564267456531525,0.5588088631629944,-0.7764017581939697,0.9948510527610779,0.6307553052902222,0.6576497554779053,-0.5416017770767212,0.98334139585495,0.25183090567588806,0.7147267460823059,-0.9481987357139587,0.9636017680168152,0.6531016230583191,0.6970309019088745,-0.637325644493103,0.9643508195877075,0.26354044675827026,0.7594694495201111,-1.0484673976898193,0.9288530945777893,0.6288950443267822,0.6969231367111206,-0.7356459498405457,0.9675065875053406,0.2999790608882904,0.7512865662574768,-1.120872974395752,0.9335362315177917,0.6121621131896973,0.6888155341148376,-0.5860978960990906,0.9661254286766052,0.30422213673591614,0.7373917698860168,-0.977786123752594,0.9354205131530762,0.5010379552841187,0.6428244113922119,0.10017386078834534,0.9980534315109253,0.3230900168418884,0.6573869585990906,-0.09997452050447464,0.998738706111908,0.4860723316669464,0.8525044918060303,0.2989334166049957,0.9432297348976135,0.3387354910373688,0.8749565482139587,0.027074163779616356,0.9668175578117371,0.4786384105682373,0.9599170684814453,1.11650812625885,0.8243412375450134,0.35431382060050964,0.9930206537246704,0.6259303092956543,0.8967090249061584,0.4539061486721039,0.9740375876426697,1.1822924613952637,0.7516099214553833,0.3336792588233948,1.0306131839752197,0.6702281832695007,0.5972455739974976,0.540447473526001,1.0251474380493164,0.9472758769989014,0.7907543182373047,0.39244598150253296,1.1109564304351807,0.29183095693588257,0.7942586541175842
19219.68478097172,0.46408045291900635,0.2358100414276123,-1.1639518737792969,0.9999828338623047,0.46796151995658875,0.21010157465934753,-1.1160966157913208,0.9999523162841797,0.4756120443344116,0.20900332927703857,-1.1161754131317139,0.9999393224716187,0.4826815724372864,0.2079504430294037,-1.1162331104278564,0.999934196472168,0.43597039580345154,0.2118557095527649,-1.1521693468093872,0.9999654293060303,0.4194217324256897,0.21177101135253906,-1.1524596214294434,0.9999651908874512,0.3998700976371765,0.21172666549682617,-1.152616262435913,0.9999656677246094,0.47225579619407654,0.21391499042510986,-0.7720770835876465,0.9998832941055298,0.3468049168586731,0.2214047610759735,-0.9515592455863953,0.9999722242355347,0.4726126790046692,0.25612321496009827,-1.0288827419281006,0.9999904632568359,0.4387768805027008,0.2580094039440155,-1.0793325901031494,0.9999953508377075,0.5475404262542725,0.34806594252586365,-0.4896846115589142,0.9999444484710693,0.1832791417837143,0.37066376209259033,-0.799203097820282,0.9999467134475708,0.5822563171386719,0.5147672891616821,-0.28215834498405457,0.9829603433609009,0.1863354593515396,0.5583770871162415,-0.7744529247283936,0.995209276676178,0.6286883354187012,0.6571424007415771,-0.5266759395599365,0.9842056035995483,0.25373077392578125,0.7142197489738464,-0.9384954571723938,0.9649991989135742,0.650168240070343,0.6971632242202759,-0.6212065815925598,0.9661770462989807,0.2640928030014038,0.7598522305488586,-1.0371747016906738,0.9316163659095764,0.6263595223426819,0.6973288059234619,-0.7162511944770813,0.9691380262374878,0.30209046602249146,0.7513105273246765,-1.1092592477798462,0.9361338019371033,0.609998345375061,0.6888603568077087,-0.5696631669998169,0.9681784510612488,0.30696406960487366,0.7375615239143372,-0.9677978157997131,0.9385229349136353,0.4998292326927185,0.6434177160263062,0.10430373251438141,0.9981532692909241,0.3242783844470978,0.6576952934265137,-0.10413406044244766,0.9988011121749878,0.48467203974723816,0.8560795783996582,0.30792176723480225,0.9376945495605469,0.3366353213787079,0.878080427646637,0.022635309025645256,0.9649804830551147,0.47883597016334534,0.964531660079956,1.0935118198394775,0.8169931769371033,0.3547830581665039,0.9989283680915833,0.5929076671600342,0.889742910861969,0.45465660095214844,0.9782998561859131,1.1566948890686035,0.7547553777694702,0.3314763605594635,1.0338631868362427,0.6347841620445251,0.6018005609512329,0.5425220131874084,1.0273635387420654,0.9322800040245056,0.7839823961257935,0.39594653248786926,1.1126302480697632,0.2670040428638458,0.7835500240325928
19236.351447638386,0.46070951223373413,0.23572605848312378,-1.1789298057556152,0.9999804496765137,0.46567049622535706,0.21076297760009766,-1.1330171823501587,0.9999445676803589,0.47338998317718506,0.20974305272102356,-1.1330820322036743,0.9999300241470337,0.48061907291412354,0.20877301692962646,-1.1331571340560913,0.9999239444732666,0.4332443177700043,0.21194911003112793,-1.1683241128921509,0.9999599456787109,0.4163656234741211,0.21176061034202576,-1.168614149093628,0.9999597072601318,0.39687585830688477,0.2116762101650238,-1.168779730796814,0.9999594688415527,0.47134003043174744,0.21430560946464539,-0.791771411895752,0.9998654127120972,0.3444235622882843,0.22027498483657837,-0.9684169292449951,0.9999673366546631,0.4683169722557068,0.2565288245677948,-1.0441665649414062,0.9999889135360718,0.43365979194641113,0.25820422172546387,-1.093782901763916,0.9999946355819702,0.5464304685592651,0.34849390387535095,-0.5081232786178589,0.9999408721923828,0.18111473321914673,0.3675176203250885,-0.8062488436698914,0.9999451637268066,0.5802697539329529,0.5133165121078491,-0.2969076931476593,0.9835455417633057,0.1849144548177719,0.5544713735580444,-0.7792106866836548,0.9950360655784607,0.6237190961837769,0.6553121209144592,-0.5315573811531067,0.9855278134346008,0.2506301999092102,0.7134702205657959,-0.9388222694396973,0.9642730951309204,0.6475008726119995,0.6953838467597961,-0.6249614953994751,0.968703031539917,0.26164811849594116,0.7587127089500427,-1.035549283027649,0.9302995800971985,0.6251852512359619,0.6964128613471985,-0.7223649024963379,0.9715384840965271,0.30048030614852905,0.7507790923118591,-1.1100212335586548,0.9350389242172241,0.6084165573120117,0.6884258985519409,-0.5753223299980164,0.9704227447509766,0.3046744465827942,0.7369682192802429,-0.9691316485404968,0.9380152225494385,0.49961113929748535,0.6376992464065552,0.10004396736621857,0.9980610013008118,0.32275328040122986,0.6519730091094971,-0.09985649585723877,0.9988306164741516,0.4852621257305145,0.8505390882492065,0.30239424109458923,0.9433655142784119,0.33368557691574097,0.8743040561676025,0.022826693952083588,0.9659349322319031,0.47801679372787476,0.9587662220001221,1.0721721649169922,0.8194271922111511,0.35518524050712585,0.9937974810600281,0.5665276646614075,0.8954371213912964,0.4530501663684845,0.9739232063293457,1.1336442232131958,0.7553985118865967,0.33357352018356323,1.0314111709594727,0.6052055954933167,0.6101566553115845,0.5439162254333496,1.022397518157959,0.9115267395973206,0.7814942598342896,0.3889094591140747,1.1080247163772583,0.23743323981761932,0.7891165018081665
19253.018114305054,0.46377620100975037,0.23457521200180054,-1.1032788753509521,0.9999748468399048,0.46767961978912354,0.211541086435318,-1.056631326675415,0.9999290704727173,0.4750324487686157,0.21065816283226013,-1.0567286014556885,0.999911904335022,0.4818094074726105,0.2098255455493927,-1.0567816495895386,0.999903678894043,0.4363623559474945,0.21181005239486694,-1.0934728384017944,0.9999463558197021,0.41991764307022095,0.21123415231704712,-1.0937379598617554,0.9999459981918335,0.39984819293022156,0.21083536744117737,-1.0938971042633057,0.9999444484710693,0.4701105058193207,0.2143651247024536,-0.7194966077804565,0.9998329877853394,0.3475346863269806,0.21929949522018433,-0.9021980166435242,0.9999549388885498,0.47010812163352966,0.25526124238967896,-0.9705647826194763,0.9999855756759644,0.4372596740722656,0.25754526257514954,-1.0220022201538086,0.9999923706054688,0.5455501079559326,0.34760400652885437,-0.4437318742275238,0.9999421834945679,0.18273110687732697,0.36640647053718567,-0.7545448541641235,0.9999375343322754,0.5799955129623413,0.5112080574035645,-0.2291237711906433,0.9828740358352661,0.18408173322677612,0.5529989004135132,-0.722205400466919,0.9946891069412231,0.6237751245498657,0.6540858745574951,-0.4617645740509033,0.985479474067688,0.24880772829055786,0.7127413749694824,-0.8805050849914551,0.9650459885597229,0.6461393237113953,0.6950932741165161,-0.5520282983779907,0.9684332013130188,0.26255494356155396,0.7580058574676514,-0.9764291048049927,0.932654619216919,0.6242771744728088,0.6956494450569153,-0.6499667763710022,0.9713168740272522,0.29919934272766113,0.750781238079071,-1.0511608123779297,0.9371654391288757,0.6080737113952637,0.686987042427063,-0.5054911971092224,0.9700809121131897,0.302411288022995,0.7368211150169373,-0.9110608100891113,0.9393436908721924,0.5009095072746277,0.6401523947715759,0.10132858157157898,0.9982311129570007,0.32199713587760925,0.653690755367279,-0.10108838975429535,0.9987782835960388,0.48737025260925293,0.8511354923248291,0.2991083860397339,0.9447445869445801,0.33794984221458435,0.8727518320083618,0.024768704548478127,0.9663178324699402,0.4764929413795471,0.9655995965003967,1.059605360031128,0.8317464590072632,0.35502728819847107,0.9957107901573181,0.5939509272575378,0.8978187441825867,0.4516652822494507,0.978461503982544,1.1198359727859497,0.7738019824028015,0.3361543118953705,1.0285685062408447,0.6355811953544617,0.6280474066734314,0.5389179587364197,1.0315470695495605,0.8935399055480957,0.7974045276641846,0.3899098038673401,1.105688214302063,0.2739100754261017,0.801331102848053
19269.684780971722,0.46364015340805054,0.23285359144210815,-1.1453434228897095,0.9999804496765137,0.4669829308986664,0.20866668224334717,-1.097995638847351,0.9999456405639648,0.4743459224700928,0.20758002996444702,-1.0980726480484009,0.9999330043792725,0.4811663329601288,0.20658746361732483,-1.0981354713439941,0.9999264478683472,0.43557026982307434,0.20938700437545776,-1.1342625617980957,0.9999597072601318,0.41853663325309753,0.20906350016593933,-1.1345242261886597,0.9999593496322632,0.3979218006134033,0.20899200439453125,-1.1346770524978638,0.9999587535858154,0.4687032103538513,0.2118092179298401,-0.758019208908081,0.9998716115951538,0.34442731738090515,0.21799731254577637,-0.9375826120376587,0.999966025352478,0.4703921675682068,0.25353091955184937,-1.011811375617981,0.9999880790710449,0.43759655952453613,0.25577694177627563,-1.0622916221618652,0.9999939203262329,0.5474227666854858,0.34856632351875305,-0.4817369878292084,0.999935507774353,0.1831512153148651,0.36724764108657837,-0.7879469990730286,0.9999377727508545,0.5817044377326965,0.5132523775100708,-0.2819393575191498,0.9816300868988037,0.18480387330055237,0.5556154847145081,-0.7661328315734863,0.9947741627693176,0.6245992183685303,0.6567420959472656,-0.5255815386772156,0.9836899638175964,0.2506762444972992,0.7124692797660828,-0.9287009835243225,0.9634886384010315,0.6455240249633789,0.697140097618103,-0.6197131276130676,0.9653360247612,0.2642437815666199,0.758940577507019,-1.026415228843689,0.9293283224105835,0.6229758262634277,0.6977822780609131,-0.7158976793289185,0.9684246778488159,0.3017812967300415,0.751185417175293,-1.0998189449310303,0.9338030815124512,0.6070266962051392,0.6895939707756042,-0.5693846940994263,0.9672176241874695,0.30574458837509155,0.7376220226287842,-0.958855390548706,0.9364277720451355,0.49942946434020996,0.6395663619041443,0.10101231187582016,0.9978571534156799,0.32088708877563477,0.6521942615509033,-0.10076048970222473,0.9986716508865356,0.48821771144866943,0.8466370105743408,0.2989434599876404,0.9427171349525452,0.33873194456100464,0.8702180981636047,0.015543478541076183,0.9677899479866028,0.47853580117225647,0.9630993604660034,1.027340292930603,0.8380666375160217,0.3586021661758423,0.9911419749259949,0.5610372424125671,0.901861310005188,0.45237821340560913,0.9777110815048218,1.0833803415298462,0.7717188000679016,0.33787399530410767,1.0325841903686523,0.5991024971008301,0.6298523545265198,0.543812096118927,1.0267279148101807,0.8502031564712524,0.80079585313797,0.39198100566864014,1.1075754165649414,0.23087020218372345,0.800984799861908
19286.35144763839,0.4644400477409363,0.23354488611221313,-1.1525875329971313,0.99997878074646,0.467652827501297,0.21021464467048645,-1.1062370538711548,0.9999399185180664,0.4748384654521942,0.20927584171295166,-1.1063122749328613,0.9999263286590576,0.4814879894256592,0.2084416151046753,-1.1063567399978638,0.9999184608459473,0.4364362955093384,0.21057063341140747,-1.1415303945541382,0.9999563694000244,0.419992595911026,0.21007728576660156,-1.1418282985687256,0.999957799911499,0.39977437257766724,0.20983541011810303,-1.1419845819473267,0.9999573230743408,0.4677709639072418,0.21297687292099,-0.768517017364502,0.9998522996902466,0.34710124135017395,0.2185058295726776,-0.9445465207099915,0.9999662637710571,0.47031843662261963,0.25443753600120544,-1.019943356513977,0.999987006187439,0.4373721480369568,0.2564076781272888,-1.0693918466567993,0.9999939203262329,0.5457268953323364,0.34947818517684937,-0.48410511016845703,0.9999334812164307,0.1823228895664215,0.36656710505485535,-0.7964192628860474,0.999947190284729,0.584304690361023,0.5133113265037537,-0.278847336769104,0.9817808866500854,0.18923719227313995,0.5541921257972717,-0.7696009874343872,0.9959157109260559,0.6277312636375427,0.656412661075592,-0.5230187773704529,0.9835545420646667,0.25131314992904663,0.7132988572120667,-0.9352512359619141,0.9695092439651489,0.6492236852645874,0.6968201994895935,-0.6169912815093994,0.9652073979377747,0.26614952087402344,0.7586617469787598,-1.0328171253204346,0.9397922158241272,0.628275990486145,0.6972076296806335,-0.7124471664428711,0.9683293104171753,0.3030763864517212,0.7509037852287292,-1.107418417930603,0.9440154433250427,0.6127445101737976,0.688559889793396,-0.566381573677063,0.9673393368721008,0.3061807155609131,0.7371923923492432,-0.9654876589775085,0.9458449482917786,0.4993586242198944,0.6386464238166809,0.10715407878160477,0.9978932738304138,0.3215779662132263,0.6523599028587341,-0.1069391667842865,0.9987082481384277,0.48801958560943604,0.8509779572486877,0.31881630420684814,0.9314899444580078,0.33637869358062744,0.8748904466629028,0.00470059784129262,0.9669820666313171,0.4781293272972107,0.9637293815612793,1.0307573080062866,0.8181782364845276,0.3549913763999939,0.9904293417930603,0.5188455581665039,0.8872190117835999,0.45043668150901794,0.9775052666664124,1.085492491722107,0.7531934976577759,0.3242672085762024,1.0333677530288696,0.5543767213821411,0.5917726755142212,0.5464174747467041,1.027708888053894,0.8580759763717651,0.7794691324234009,0.39819401502609253,1.1101100444793701,0.1874874234199524,0.774817943572998
19303.018114305058,0.4639359414577484,0.23219138383865356,-1.1228004693984985,0.99997878074646,0.4668748676776886,0.20820865035057068,-1.0727286338806152,0.9999390840530396,0.47395575046539307,0.20729488134384155,-1.0728403329849243,0.9999243021011353,0.48049816489219666,0.2065005898475647,-1.0728839635849,0.9999154806137085,0.4362231194972992,0.208958238363266,-1.109574317932129,0.9999560117721558,0.41998863220214844,0.20882338285446167,-1.1098357439041138,0.9999557733535767,0.40027880668640137,0.20907434821128845,-1.1099908351898193,0.9999542236328125,0.4672463536262512,0.212971031665802,-0.7288143038749695,0.9998610019683838,0.348369836807251,0.21902158856391907,-0.9108087420463562,0.9999657869338989,0.4702347218990326,0.25306132435798645,-0.9890605807304382,0.9999879598617554,0.4379529356956482,0.2547571361064911,-1.0403363704681396,0.9999940395355225,0.5426123738288879,0.350324422121048,-0.44326069951057434,0.9999382495880127,0.1865723580121994,0.36774617433547974,-0.7635287046432495,0.999947190284729,0.5810491442680359,0.5117542147636414,-0.22223681211471558,0.981870174407959,0.19079259037971497,0.5552831888198853,-0.7287806272506714,0.9951111674308777,0.6264640092849731,0.6551102995872498,-0.4583071172237396,0.9823863506317139,0.25044089555740356,0.7107719779014587,-0.8960390686988831,0.964503824710846,0.6480497717857361,0.6951360106468201,-0.5485361218452454,0.9621267318725586,0.2634175419807434,0.7555545568466187,-0.9941592216491699,0.9309886693954468,0.6259946227073669,0.6956415176391602,-0.6462737321853638,0.9653642773628235,0.30125755071640015,0.7486476302146912,-1.0697835683822632,0.9355459213256836,0.6106613874435425,0.686742901802063,-0.5021737217903137,0.9648296236991882,0.3050045669078827,0.7349570393562317,-0.9270622134208679,0.9374017119407654,0.4982481598854065,0.6400744915008545,0.10523375123739243,0.9981054067611694,0.3190610408782959,0.6528295278549194,-0.10491658747196198,0.9988992214202881,0.48541826009750366,0.8509033918380737,0.3408169150352478,0.9478841423988342,0.3354995846748352,0.8787174820899963,0.027713671326637268,0.972369372844696,0.4783211350440979,0.962471604347229,1.1106784343719482,0.8249215483665466,0.3546749949455261,0.9974801540374756,0.5613352060317993,0.9015834331512451,0.4534321427345276,0.9764283299446106,1.1711211204528809,0.7672834992408752,0.34084057807922363,1.036388874053955,0.5984614491462708,0.619678258895874,0.5450319051742554,1.0238611698150635,0.9442422986030579,0.7848600149154663,0.39647984504699707,1.1146337985992432,0.22198019921779633,0.7988395094871521
19319.684780971726,0.4685840606689453,0.2333051860332489,-1.1357393264770508,0.9999778270721436,0.4708753824234009,0.21061971783638,-1.0876835584640503,0.9999366998672485,0.4776124954223633,0.20984959602355957,-1.0877838134765625,0.999921441078186,0.4837764799594879,0.20912045240402222,-1.0878186225891113,0.9999133348464966,0.4414466619491577,0.2104109823703766,-1.125963568687439,0.9999545812606812,0.42558613419532776,0.20980918407440186,-1.1262377500534058,0.9999547004699707,0.4058801829814911,0.20936068892478943,-1.1264029741287231,0.9999536275863647,0.4682101607322693,0.21397307515144348,-0.7480961084365845,0.9998557567596436,0.3513810336589813,0.21859604120254517,-0.9365172982215881,0.9999639987945557,0.47274911403656006,0.2537594437599182,-1.0026652812957764,0.9999879598617554,0.44211652874946594,0.25544658303260803,-1.05576491355896,0.9999940395355225,0.5436938405036926,0.3486497104167938,-0.46644461154937744,0.99993896484375,0.18564631044864655,0.36717328429222107,-0.7911661267280579,0.9999446868896484,0.5812304019927979,0.5123467445373535,-0.2524622082710266,0.9826948046684265,0.19032590091228485,0.5554702281951904,-0.7608299851417542,0.9952425956726074,0.6263141632080078,0.6569489240646362,-0.48998522758483887,0.9832081198692322,0.24935732781887054,0.7120403051376343,-0.9220873117446899,0.966401219367981,0.646340012550354,0.6983487606048584,-0.582362174987793,0.9636443853378296,0.26067280769348145,0.7570632696151733,-1.020632266998291,0.9352275729179382,0.6230176687240601,0.6983293890953064,-0.6768963932991028,0.9669185280799866,0.2999206483364105,0.7488193511962891,-1.095073938369751,0.9396333694458008,0.6075434684753418,0.6892156004905701,-0.5324646234512329,0.9664007425308228,0.3042304217815399,0.7349280714988708,-0.952279269695282,0.9411079287528992,0.4986404478549957,0.6408951878547668,0.10692959278821945,0.9980717301368713,0.3231767416000366,0.6526604890823364,-0.10669022053480148,0.998806357383728,0.4855876863002777,0.8514811992645264,0.34737473726272583,0.940292477607727,0.3371328115463257,0.8782433271408081,0.037538547068834305,0.9674338102340698,0.4781924784183502,0.9655647277832031,1.1126843690872192,0.8249803185462952,0.35453000664711,0.9965117573738098,0.5914202332496643,0.8927434086799622,0.4527425765991211,0.9788355827331543,1.1735793352127075,0.7717678546905518,0.3356218934059143,1.0379794836044312,0.6315366625785828,0.6140717267990112,0.5415350794792175,1.0304020643234253,0.9484323263168335,0.7920123934745789,0.40184101462364197,1.116135597229004,0.26195481419563293,0.7874888181686401
19336.351447638393,0.46582356095314026,0.2345685064792633,-1.0745139122009277,0.9999780654907227,0.46849244832992554,0.21105065941810608,-1.0277602672576904,0.9999392032623291,0.47545886039733887,0.21009236574172974,-1.027869462966919,0.9999244213104248,0.48196467757225037,0.2091243863105774,-1.0279192924499512,0.9999182224273682,0.43794119358062744,0.21171888709068298,-1.0665216445922852,0.9999545812606812,0.42150235176086426,0.21102628111839294,-1.066786289215088,0.9999539852142334,0.40129366517066956,0.2105349600315094,-1.0669426918029785,0.9999526739120483,0.4683564305305481,0.21398720145225525,-0.6995768547058105,0.99986732006073,0.3475319445133209,0.21978849172592163,-0.890486478805542,0.9999634027481079,0.47194284200668335,0.2554777264595032,-0.9457718729972839,0.9999884366989136,0.4404298961162567,0.2583828866481781,-0.9995246529579163,0.9999938011169434,0.5439006686210632,0.3488578200340271,-0.44061997532844543,0.999944806098938,0.18455661833286285,0.3680788278579712,-0.7489538192749023,0.9999369382858276,0.5821508765220642,0.5136311054229736,-0.2315259426832199,0.9835038185119629,0.19150277972221375,0.5543138980865479,-0.7168512940406799,0.9939740300178528,0.627998411655426,0.6583131551742554,-0.4556373357772827,0.9840025305747986,0.25046661496162415,0.711441695690155,-0.8687805533409119,0.9610159397125244,0.6466954350471497,0.6981662511825562,-0.5455840229988098,0.9653013944625854,0.26445311307907104,0.7565045356750488,-0.9609741568565369,0.9292891621589661,0.6235883235931396,0.6986842155456543,-0.6406943798065186,0.9684565663337708,0.3015672266483307,0.7491231560707092,-1.0389246940612793,0.9342500567436218,0.609158992767334,0.6895699501037598,-0.49824070930480957,0.9684646129608154,0.30527767539024353,0.7352983951568604,-0.9003075957298279,0.9370701313018799,0.4994826018810272,0.639474093914032,0.0985281690955162,0.9982522130012512,0.32031652331352234,0.6495799422264099,-0.09823497384786606,0.9987485408782959,0.48292532563209534,0.8563957810401917,0.2612713575363159,0.9392650127410889,0.33417168259620667,0.8795219659805298,0.0283406563103199,0.9604849815368652,0.47920507192611694,0.9697983264923096,1.00882089138031,0.7917035818099976,0.353471577167511,0.9981806874275208,0.5753881931304932,0.872711718082428,0.45630350708961487,0.9808931946754456,1.0683605670928955,0.7452979683876038,0.34057560563087463,1.035596489906311,0.6155307292938232,0.5896942019462585,0.542302668094635,1.0350838899612427,0.8534778952598572,0.7444941997528076,0.3912397027015686,1.1140224933624268,0.26109182834625244,0.7499324679374695
19353.01811430506,0.4677141010761261,0.23451721668243408,-1.084023356437683,0.9999841451644897,0.47067922353744507,0.21157881617546082,-1.035151720046997,0.9999563694000244,0.47773802280426025,0.21074900031089783,-1.0352469682693481,0.9999459981918335,0.4842287003993988,0.2099129855632782,-1.0352782011032104,0.999940037727356,0.4407309889793396,0.2119712233543396,-1.0747150182724,0.9999680519104004,0.42441850900650024,0.21122530102729797,-1.0749809741973877,0.9999680519104004,0.4039604961872101,0.21064043045043945,-1.075132966041565,0.9999668598175049,0.46852990984916687,0.2146986722946167,-0.700058102607727,0.9999020099639893,0.3476160168647766,0.21938705444335938,-0.8952606320381165,0.9999737739562988,0.4727703332901001,0.25525787472724915,-0.9534620046615601,0.9999916553497314,0.4416845142841339,0.25802046060562134,-1.0084123611450195,0.9999958276748657,0.5433575510978699,0.35001978278160095,-0.4360268712043762,0.9999502897262573,0.1831265091896057,0.3690508306026459,-0.7573361396789551,0.9999510049819946,0.5803215503692627,0.5149863362312317,-0.2267679125070572,0.9834518432617188,0.1900111734867096,0.5557635426521301,-0.7343010306358337,0.9951047897338867,0.6273553371429443,0.6601240634918213,-0.46979275345802307,0.9846478700637817,0.24803221225738525,0.7119522094726562,-0.8960381746292114,0.9667041301727295,0.6454668641090393,0.6997118592262268,-0.563491940498352,0.9667560458183289,0.25959348678588867,0.7568931579589844,-0.9918570518493652,0.9372912645339966,0.6230564117431641,0.6998283863067627,-0.6590204238891602,0.9698607921600342,0.29852068424224854,0.7484573721885681,-1.0664702653884888,0.9416587948799133,0.6083208322525024,0.690995991230011,-0.5129727721214294,0.9695679545402527,0.3031054139137268,0.7347444891929626,-0.9259555339813232,0.9430244565010071,0.49820658564567566,0.6427730321884155,0.10461490601301193,0.998206377029419,0.3234398066997528,0.6548407077789307,-0.10436585545539856,0.9988883137702942,0.48425769805908203,0.8521413207054138,0.3080005645751953,0.9315664768218994,0.33504876494407654,0.8795962929725647,0.016773181036114693,0.9611529111862183,0.4782216548919678,0.9621878266334534,1.0931596755981445,0.771701455116272,0.3516386151313782,0.9993578791618347,0.5461888313293457,0.8724156618118286,0.45290032029151917,0.9760728478431702,1.1572884321212769,0.7255306243896484,0.33183711767196655,1.0397107601165771,0.5843772888183594,0.5811377763748169,0.5440825819969177,1.025277853012085,0.9503772854804993,0.7362311482429504,0.3978862166404724,1.117530107498169,0.22191235423088074,0.7532557249069214
19369.68478097173,0.465314656496048,0.23417985439300537,-1.1129881143569946,0.9999836683273315,0.4682740271091461,0.21099042892456055,-1.0649394989013672,0.9999544620513916,0.47525766491889954,0.20997685194015503,-1.0650393962860107,0.9999434947967529,0.4818686544895172,0.20894625782966614,-1.065075397491455,0.9999370574951172,0.4377481937408447,0.21177175641059875,-1.101944088935852,0.999966025352478,0.4213690459728241,0.21122601628303528,-1.10221529006958,0.9999662637710571,0.4011206328868866,0.2109033167362213,-1.102370262145996,0.999964714050293,0.4689824879169464,0.21323654055595398,-0.7277169227600098,0.9998985528945923,0.3473103940486908,0.220077246427536,-0.9110405445098877,0.9999737739562988,0.47109463810920715,0.2552588880062103,-0.9811482429504395,0.9999915361404419,0.439441442489624,0.2578100562095642,-1.0326915979385376,0.9999957084655762,0.5439425110816956,0.34910738468170166,-0.4509829580783844,0.9999545812606812,0.18414947390556335,0.36666232347488403,-0.7656447291374207,0.9999548196792603,0.582506000995636,0.5132690668106079,-0.2342458814382553,0.9845210909843445,0.1911066472530365,0.5543838143348694,-0.734660804271698,0.9955251812934875,0.627456545829773,0.6587767004966736,-0.47694581747055054,0.985967218875885,0.24850104749202728,0.7115621566772461,-0.9039419889450073,0.9690054059028625,0.6481096744537354,0.6989193558692932,-0.5709133148193359,0.9695329070091248,0.26083308458328247,0.7566690444946289,-1.0013606548309326,0.9408129453659058,0.6238574981689453,0.6990563273429871,-0.6683279275894165,0.9723842144012451,0.30088114738464355,0.7488077282905579,-1.078648567199707,0.9451382160186768,0.6086257100105286,0.6899364590644836,-0.5206857323646545,0.9720427989959717,0.30544769763946533,0.7352118492126465,-0.9352151155471802,0.9468783140182495,0.49766406416893005,0.6418923139572144,0.10489462316036224,0.9983999133110046,0.3198309540748596,0.6525725722312927,-0.1046082153916359,0.998965859413147,0.4825914800167084,0.8545197248458862,0.29353630542755127,0.9360954761505127,0.3332235813140869,0.878771185874939,0.019697483628988266,0.9653109312057495,0.4782227575778961,0.9675909876823425,1.073287844657898,0.7802282571792603,0.3523252606391907,0.9975772500038147,0.552654504776001,0.8801996111869812,0.4550504684448242,0.9797196984291077,1.1362701654434204,0.734027624130249,0.33188411593437195,1.038102388381958,0.5911880135536194,0.5937231183052063,0.5433464050292969,1.0321955680847168,0.9252407550811768,0.7367175817489624,0.39665487408638,1.1169077157974243,0.22885864973068237,0.7599267959594727
19386.351447638397,0.4668774902820587,0.23287948966026306,-1.0905269384384155,0.9999830722808838,0.4690687358379364,0.2099819779396057,-1.0411607027053833,0.9999527931213379,0.4757842421531677,0.20916247367858887,-1.041272759437561,0.9999421834945679,0.48214128613471985,0.20841726660728455,-1.041320562362671,0.9999352693557739,0.4393438398838043,0.21018293499946594,-1.0792547464370728,0.9999649524688721,0.4231482446193695,0.20975425839424133,-1.0795185565948486,0.9999650716781616,0.4027547836303711,0.20966383814811707,-1.0796778202056885,0.9999632835388184,0.46701914072036743,0.21341174840927124,-0.7021113038063049,0.9998975992202759,0.3475903868675232,0.2196001410484314,-0.8899511098861694,0.9999730587005615,0.47189006209373474,0.2540651559829712,-0.9584288597106934,0.9999914169311523,0.44059011340141296,0.2563595175743103,-1.011332392692566,0.9999957084655762,0.5425070524215698,0.34991544485092163,-0.4239917993545532,0.999954104423523,0.1845521777868271,0.3677734136581421,-0.7532536387443542,0.999957799911499,0.580199122428894,0.5144013166427612,-0.21273179352283478,0.9834617376327515,0.1896698921918869,0.5540302991867065,-0.7284238338470459,0.9955844283103943,0.6248430609703064,0.6593958139419556,-0.46228349208831787,0.9843207597732544,0.2484840303659439,0.7117682099342346,-0.897849440574646,0.968636155128479,0.6446823477745056,0.6991893649101257,-0.5571748614311218,0.9662354588508606,0.2606661021709442,0.7573633193969727,-0.9961786866188049,0.9397618174552917,0.6209070682525635,0.6996716260910034,-0.654403030872345,0.9693776369094849,0.3000055253505707,0.7493394613265991,-1.0722932815551758,0.9439888596534729,0.6060452461242676,0.6906660199165344,-0.5063074827194214,0.9689986705780029,0.30432790517807007,0.73566734790802,-0.928580105304718,0.9449232220649719,0.4948643743991852,0.6432053446769714,0.11012015491724014,0.9983018636703491,0.3187295198440552,0.6539564728736877,-0.10982798039913177,0.9989718198776245,0.48241639137268066,0.8568494319915771,0.30384552478790283,0.9329519867897034,0.3326641917228699,0.8830769658088684,0.0004975645570084453,0.9660519957542419,0.4773004353046417,0.9685401320457458,1.0895326137542725,0.7666494250297546,0.35118913650512695,1.002665638923645,0.5110211372375488,0.8785723447799683,0.4519660770893097,0.9816605448722839,1.1529104709625244,0.719355046749115,0.3296724557876587,1.0450170040130615,0.5468594431877136,0.5811572670936584,0.5441337823867798,1.0320332050323486,0.9424589276313782,0.7246868014335632,0.398895800113678,1.1232411861419678,0.17753098905086517,0.7601253390312195
19403.018114305065,0.4653686285018921,0.2365407943725586,-1.1107178926467896,0.9999703168869019,0.46928808093070984,0.21300753951072693,-1.0604205131530762,0.9999191761016846,0.476300448179245,0.21198347210884094,-1.0605460405349731,0.9998987913131714,0.48275601863861084,0.21088099479675293,-1.0605703592300415,0.9998880624771118,0.43855705857276917,0.21379423141479492,-1.0993341207504272,0.9999392032623291,0.4220881164073944,0.21277859807014465,-1.0995827913284302,0.9999387264251709,0.4019423723220825,0.21201592683792114,-1.0997620820999146,0.9999359846115112,0.46915459632873535,0.21466031670570374,-0.7150863409042358,0.9998180270195007,0.3484315872192383,0.22013840079307556,-0.9063060879707336,0.9999536275863647,0.4707426130771637,0.25734493136405945,-0.9761833548545837,0.9999845027923584,0.4398002028465271,0.25987139344215393,-1.0300540924072266,0.9999920129776001,0.541628897190094,0.34952670335769653,-0.42971399426460266,0.9999382495880127,0.1858607530593872,0.36935046315193176,-0.7573911547660828,0.9999334812164307,0.5780492424964905,0.5140945315361023,-0.1905503123998642,0.9812581539154053,0.18636488914489746,0.5546833872795105,-0.7160338163375854,0.9945532083511353,0.6240829229354858,0.6557566523551941,-0.41681161522865295,0.9841691255569458,0.2484896332025528,0.7103972434997559,-0.8838924765586853,0.9653128385543823,0.6470603942871094,0.6959822773933411,-0.5055148005485535,0.9662365913391113,0.2595064043998718,0.7561464309692383,-0.9813824892044067,0.9347268342971802,0.6223121881484985,0.6972302794456482,-0.603825569152832,0.96924889087677,0.29960787296295166,0.7481707334518433,-1.0610458850860596,0.939324140548706,0.606198787689209,0.6884509325027466,-0.4603656530380249,0.9688311219215393,0.30385059118270874,0.7339130640029907,-0.9162282347679138,0.9412554502487183,0.5000409483909607,0.6411600708961487,0.10683431476354599,0.9984638690948486,0.32256942987442017,0.653684139251709,-0.10649402439594269,0.9988885521888733,0.4847554564476013,0.8568316698074341,0.3235315978527069,0.9436786770820618,0.33477160334587097,0.8816249966621399,0.05870036035776138,0.9645561575889587,0.47678667306900024,0.9682846665382385,1.1044527292251587,0.8173418045043945,0.3548508882522583,0.9948413968086243,0.6518918871879578,0.8851338028907776,0.45304834842681885,0.9800817370414734,1.166717767715454,0.7769888639450073,0.33789050579071045,1.0328892469406128,0.6966807842254639,0.6205262541770935,0.5369023680686951,1.0332293510437012,0.9416126608848572,0.7774079442024231,0.3911760449409485,1.1112579107284546,0.3341865539550781,0.7757173776626587
19419.684780971733,0.46429750323295593,0.2329760193824768,-1.179114818572998,0.9999731779098511,0.4677324891090393,0.20877093076705933,-1.1294264793395996,0.9999223947525024,0.47476235032081604,0.2079588770866394,-1.1295493841171265,0.9999052286148071,0.4812355637550354,0.2072446644306183,-1.1296018362045288,0.9998950958251953,0.43633803725242615,0.20910438895225525,-1.1662448644638062,0.9999433755874634,0.41945314407348633,0.2087557017803192,-1.166537880897522,0.9999446868896484,0.3998202979564667,0.2088126838207245,-1.1667320728302002,0.999942421913147,0.46856585144996643,0.21317410469055176,-0.7730565667152405,0.999822199344635,0.34812548756599426,0.21817097067832947,-0.9551541209220886,0.9999582767486572,0.47006189823150635,0.253607839345932,-1.039262294769287,0.9999858140945435,0.4373652935028076,0.25473663210868835,-1.0906699895858765,0.9999929666519165,0.5450088977813721,0.3485982120037079,-0.46467170119285583,0.9999382495880127,0.18466608226299286,0.3640551269054413,-0.7988676428794861,0.9999488592147827,0.5798437595367432,0.5142756700515747,-0.24091321229934692,0.9802674055099487,0.1895505040884018,0.5544636249542236,-0.7615687847137451,0.9949370622634888,0.6253840923309326,0.6583678126335144,-0.48911038041114807,0.9795125126838684,0.24967285990715027,0.7140620946884155,-0.9380605816841125,0.9602795243263245,0.6445468664169312,0.6985585689544678,-0.5831416249275208,0.9564250707626343,0.26196229457855225,0.7586224675178528,-1.0393805503845215,0.9242989420890808,0.6209582090377808,0.6992373466491699,-0.6809247136116028,0.9606320858001709,0.29949599504470825,0.7505425214767456,-1.1167899370193481,0.9299798607826233,0.6058667898178101,0.690669596195221,-0.533029317855835,0.9600392580032349,0.3034607172012329,0.7368414998054504,-0.9693372845649719,0.9311944246292114,0.49762335419654846,0.6425289511680603,0.11243117600679398,0.9979799389839172,0.3199771046638489,0.6533635854721069,-0.11217194050550461,0.998724639415741,0.4828784465789795,0.8636307716369629,0.3351837694644928,0.9224658012390137,0.33598288893699646,0.8871844410896301,0.019691649824380875,0.9597269892692566,0.47907373309135437,0.9709316492080688,1.1337549686431885,0.7703399658203125,0.35404592752456665,1.0056718587875366,0.5764636993408203,0.8584234118461609,0.45377108454704285,0.9834585785865784,1.1976807117462158,0.7254351377487183,0.3316202461719513,1.0485222339630127,0.616833508014679,0.5506635904312134,0.5439348220825195,1.036552906036377,0.9610753059387207,0.7319160103797913,0.40959668159484863,1.1282150745391846,0.23255608975887299,0.7371969223022461
19436.3514476384,0.46521562337875366,0.2333368957042694,-1.1179698705673218,0.9999830722808838,0.4686411917209625,0.2078355848789215,-1.070921540260315,0.9999504089355469,0.4758423864841461,0.2071026861667633,-1.071022629737854,0.9999396800994873,0.4825640320777893,0.20635905861854553,-1.07106614112854,0.9999333620071411,0.43718457221984863,0.2087644636631012,-1.1076716184616089,0.9999624490737915,0.41986775398254395,0.20875588059425354,-1.1079349517822266,0.9999629259109497,0.39989960193634033,0.209051251411438,-1.1080858707427979,0.9999607801437378,0.46976426243782043,0.21233204007148743,-0.7350280284881592,0.9998888969421387,0.346219003200531,0.21878761053085327,-0.9178481698036194,0.9999693632125854,0.4723967909812927,0.25420114398002625,-0.9862081408500671,0.9999908208847046,0.43880391120910645,0.2552253007888794,-1.037677526473999,0.999995231628418,0.547495424747467,0.3476903736591339,-0.45903220772743225,0.9999556541442871,0.18424110114574432,0.36621201038360596,-0.7758831977844238,0.9999514818191528,0.5819725394248962,0.5130500793457031,-0.2518460154533386,0.9851592183113098,0.190219447016716,0.5540412068367004,-0.7521424293518066,0.9950733780860901,0.6252568364143372,0.6575049757957458,-0.49125319719314575,0.9873110055923462,0.24844595789909363,0.7140219211578369,-0.9197700023651123,0.9656257033348083,0.6440931558609009,0.698026716709137,-0.5857844948768616,0.9721682071685791,0.26148247718811035,0.7581791877746582,-1.018874168395996,0.9355717897415161,0.6217780709266663,0.6986852884292603,-0.6807093620300293,0.9748063087463379,0.29895347356796265,0.7499030828475952,-1.0949275493621826,0.940081775188446,0.6071364283561707,0.6902318596839905,-0.5337101221084595,0.9738929867744446,0.30270272493362427,0.7362838983535767,-0.9509109854698181,0.94171541929245,0.49754342436790466,0.6408191323280334,0.10754018276929855,0.9983117580413818,0.32047387957572937,0.6521856784820557,-0.10732223838567734,0.9989013671875,0.4821859300136566,0.8574650287628174,0.3491417467594147,0.9350367188453674,0.3366689383983612,0.8790894150733948,0.026249026879668236,0.967166543006897,0.47825929522514343,0.966525137424469,1.103562831878662,0.8138724565505981,0.3515287935733795,1.0013225078582764,0.5559348464012146,0.885049045085907,0.45216360688209534,0.9801859259605408,1.1637113094329834,0.7610980868339539,0.327554315328598,1.040350317955017,0.5939003825187683,0.5948084592819214,0.5463880896568298,1.03194260597229,0.9431509971618652,0.7798433303833008,0.4040319323539734,1.1182782649993896,0.22811710834503174,0.7738001942634583
19453.01811430507,0.46629640460014343,0.23206192255020142,-1.097019076347351,0.9999750852584839,0.4680335819721222,0.2074209749698639,-1.0483942031860352,0.9999305009841919,0.4748661518096924,0.2066056728363037,-1.0485235452651978,0.9999139308929443,0.48126858472824097,0.20589014887809753,-1.048576831817627,0.9999053478240967,0.43776386976242065,0.20801374316215515,-1.0871758460998535,0.9999473094940186,0.420900821685791,0.20787987112998962,-1.087433934211731,0.9999463558197021,0.4014526903629303,0.2081090211868286,-1.087613582611084,0.999943733215332,0.46850278973579407,0.2124781608581543,-0.710658609867096,0.9998526573181152,0.34794747829437256,0.21918895840644836,-0.9006975889205933,0.9999558925628662,0.472460001707077,0.25280123949050903,-0.9650447964668274,0.9999872446060181,0.44045308232307434,0.2541297674179077,-1.018617868423462,0.9999929666519165,0.5433966517448425,0.3512628972530365,-0.4381139278411865,0.9999415874481201,0.18388569355010986,0.36732804775238037,-0.7640624642372131,0.9999250173568726,0.577333927154541,0.5159924030303955,-0.21278458833694458,0.9818187952041626,0.19319495558738708,0.5549118518829346,-0.7388895153999329,0.9939857125282288,0.6229808926582336,0.6577135920524597,-0.4332273304462433,0.9841606020927429,0.2531529664993286,0.7133538126945496,-0.9000217318534851,0.9606335759162903,0.6438970565795898,0.696497917175293,-0.5211334824562073,0.9661998748779297,0.2651546597480774,0.7575139403343201,-0.99698406457901,0.9274885654449463,0.6206046938896179,0.6967888474464417,-0.6184870600700378,0.9693366289138794,0.3024343252182007,0.7503094673156738,-1.0732274055480957,0.932614803314209,0.6050193905830383,0.6883474588394165,-0.47625601291656494,0.9690220952033997,0.30673471093177795,0.7367991209030151,-0.9310647249221802,0.9349793791770935,0.49763548374176025,0.6403056979179382,0.0997123122215271,0.9983909130096436,0.31987231969833374,0.6522582769393921,-0.09938021004199982,0.9988318085670471,0.4852197468280792,0.8488258123397827,0.27976980805397034,0.9380938410758972,0.33506855368614197,0.8792468905448914,0.037150826305150986,0.9582165479660034,0.4800182580947876,0.9618726968765259,1.082284688949585,0.776512861251831,0.35040658712387085,0.9901874661445618,0.618218183517456,0.8710337281227112,0.4565344750881195,0.9755141735076904,1.1476166248321533,0.7357576489448547,0.333032488822937,1.0326486825942993,0.6622779965400696,0.584448516368866,0.5396449565887451,1.0293949842453003,0.9324206113815308,0.7340181469917297,0.38020849227905273,1.111359715461731,0.30149805545806885,0.753366231918335
19469.684780971736,0.4651125967502594,0.23211652040481567,-1.1197603940963745,0.9999786615371704,0.46742409467697144,0.2081756889820099,-1.0732146501541138,0.9999386072158813,0.4746849238872528,0.2072772979736328,-1.0733121633529663,0.9999244213104248,0.4814782440662384,0.20650756359100342,-1.0733286142349243,0.9999159574508667,0.43621906638145447,0.20861077308654785,-1.108643651008606,0.9999555349349976,0.41899603605270386,0.20832446217536926,-1.1089104413986206,0.9999556541442871,0.39971035718917847,0.20852750539779663,-1.1090866327285767,0.9999539852142334,0.4699040949344635,0.21290960907936096,-0.7407792806625366,0.9998645782470703,0.3473726511001587,0.2195875644683838,-0.9157751202583313,0.999964714050293,0.4721730351448059,0.2528851330280304,-0.9896671772003174,0.9999878406524658,0.4395681619644165,0.2543846070766449,-1.038818120956421,0.9999938011169434,0.545466423034668,0.35020360350608826,-0.4596481919288635,0.9999368190765381,0.18748661875724792,0.3662714660167694,-0.7791023850440979,0.9999463558197021,0.5788394808769226,0.5154339671134949,-0.23088043928146362,0.9802306294441223,0.18968366086483002,0.553656816482544,-0.7536903023719788,0.994836688041687,0.6246119737625122,0.6568160057067871,-0.4474567472934723,0.9817465543746948,0.2501700520515442,0.7126099467277527,-0.9158313870429993,0.9619266390800476,0.6448469161987305,0.6971874237060547,-0.5355467200279236,0.9617161154747009,0.26186150312423706,0.7567009925842285,-1.0124553442001343,0.9280933737754822,0.621646523475647,0.6973599195480347,-0.6317258477210999,0.9650442004203796,0.30110815167427063,0.7489438056945801,-1.0887937545776367,0.9326979517936707,0.6062167286872864,0.6884251236915588,-0.4901563823223114,0.9651113748550415,0.3055613338947296,0.7352963089942932,-0.9470238089561462,0.9356800317764282,0.49881795048713684,0.6398890018463135,0.10329355299472809,0.9981924891471863,0.3210945725440979,0.6529393792152405,-0.1029869019985199,0.9989399313926697,0.4846715033054352,0.8485609292984009,0.34951576590538025,0.9379158020019531,0.33781954646110535,0.8765395879745483,0.05801041051745415,0.9661615490913391,0.4783059060573578,0.9618895649909973,1.1049761772155762,0.809333086013794,0.35140460729599,0.9922904968261719,0.6066906452178955,0.8868885636329651,0.45382368564605713,0.9762563109397888,1.165271282196045,0.7632504105567932,0.3361768126487732,1.0372318029403687,0.6468276381492615,0.6192401051521301,0.5434155464172363,1.025383472442627,0.9451326131820679,0.7686368823051453,0.39428868889808655,1.1149636507034302,0.28189218044281006,0.7720000147819519
19486.351447638404,0.4665101170539856,0.23272785544395447,-1.0526857376098633,0.999982476234436,0.46883127093315125,0.20882734656333923,-1.0080355405807495,0.9999469518661499,0.47583529353141785,0.20774692296981812,-1.0081194639205933,0.9999336004257202,0.48226413130760193,0.2067476511001587,-1.0081313848495483,0.9999265670776367,0.4376603066921234,0.2096017301082611,-1.0434563159942627,0.9999632835388184,0.42052242159843445,0.20925897359848022,-1.0437119007110596,0.9999634027481079,0.4001711905002594,0.20919492840766907,-1.0438625812530518,0.9999628067016602,0.4699917733669281,0.21220898628234863,-0.6913812160491943,0.9998807907104492,0.34701424837112427,0.21918588876724243,-0.867011308670044,0.9999707937240601,0.4732191264629364,0.25362831354141235,-0.928845226764679,0.9999897480010986,0.440908819437027,0.2563953101634979,-0.9781628847122192,0.9999949932098389,0.5434045791625977,0.3502289950847626,-0.43563294410705566,0.9999388456344604,0.18340066075325012,0.36757692694664,-0.7429916262626648,0.999954104423523,0.5782386064529419,0.516189694404602,-0.21224325895309448,0.9820806980133057,0.1905319094657898,0.5561642646789551,-0.7169612050056458,0.994880199432373,0.6236304044723511,0.6583322882652283,-0.40098413825035095,0.9830462336540222,0.25049617886543274,0.7133233547210693,-0.8605256080627441,0.9646033048629761,0.6442376375198364,0.6971571445465088,-0.48546063899993896,0.9639093279838562,0.26325270533561707,0.7566479444503784,-0.9516591429710388,0.933894693851471,0.6210957765579224,0.6977025270462036,-0.5766274333000183,0.9669226408004761,0.29972657561302185,0.749608039855957,-1.027299165725708,0.938188910484314,0.6052849888801575,0.6891316175460815,-0.4410518407821655,0.9671310186386108,0.30341455340385437,0.7356160283088684,-0.8912472724914551,0.9412297010421753,0.49757394194602966,0.6401772499084473,0.09844283759593964,0.9982884526252747,0.32024815678596497,0.6531532406806946,-0.09816679358482361,0.9990506768226624,0.4842876195907593,0.8494327664375305,0.33019137382507324,0.9508590698242188,0.3366740643978119,0.8808028697967529,0.0511651411652565,0.9712440967559814,0.4825449585914612,0.9623658061027527,1.061940312385559,0.834881067276001,0.352594792842865,0.9983198642730713,0.5690016746520996,0.9011591672897339,0.458224892616272,0.9775257110595703,1.120560884475708,0.7873080968856812,0.3417302370071411,1.0386936664581299,0.6064999103546143,0.6430113315582275,0.5431197881698608,1.0307886600494385,0.9131923317909241,0.7910723090171814,0.3950967788696289,1.1172924041748047,0.2538064122200012,0.7905359864234924
19503.018114305072,0.46757689118385315,0.234195739030838,-1.0917726755142212,0.9999775886535645,0.46987760066986084,0.21136915683746338,-1.0436145067214966,0.9999336004257202,0.4767158329486847,0.21059125661849976,-1.0437004566192627,0.9999167919158936,0.48307251930236816,0.20987102389335632,-1.0437067747116089,0.9999079704284668,0.4399077892303467,0.2115495502948761,-1.0820074081420898,0.9999548196792603,0.4235661029815674,0.21098360419273376,-1.0822701454162598,0.9999545812606812,0.4029470682144165,0.21053659915924072,-1.0824272632598877,0.9999542236328125,0.46796998381614685,0.21532753109931946,-0.7128970623016357,0.9998437166213989,0.3479318618774414,0.21966716647148132,-0.9021558165550232,0.9999634027481079,0.47265395522117615,0.25485458970069885,-0.9631476998329163,0.9999867677688599,0.44196248054504395,0.2571067810058594,-1.0164604187011719,0.9999935626983643,0.5420342087745667,0.3507344722747803,-0.44831568002700806,0.999925971031189,0.1794234663248062,0.3695710599422455,-0.7680026888847351,0.9999415874481201,0.5776865482330322,0.5156372785568237,-0.2304326891899109,0.9820798635482788,0.183527410030365,0.5588542819023132,-0.7418256402015686,0.9943760633468628,0.6227888464927673,0.6598131656646729,-0.441849946975708,0.9815347194671631,0.2480345219373703,0.7151036262512207,-0.8893551826477051,0.9622003436088562,0.6425111889839172,0.6993964314460754,-0.5285301804542542,0.9601991772651672,0.26024433970451355,0.7575448751449585,-0.9831427335739136,0.9295132756233215,0.6205219030380249,0.6994950771331787,-0.6215033531188965,0.9636207818984985,0.29657483100891113,0.7502059936523438,-1.0567818880081177,0.9339982271194458,0.6043097376823425,0.6909535527229309,-0.4833803176879883,0.9635355472564697,0.3001839220523834,0.736724317073822,-0.9191338419914246,0.9359502792358398,0.49326807260513306,0.6443086862564087,0.10250451415777206,0.9979768395423889,0.3166876435279846,0.6554919481277466,-0.10224504768848419,0.9988288283348083,0.4807576537132263,0.8584312796592712,0.34292420744895935,0.9498327970504761,0.3382147252559662,0.883150041103363,0.042926106601953506,0.9709152579307556,0.48139646649360657,0.9685606956481934,1.083564043045044,0.8475211262702942,0.3503711521625519,1.0033681392669678,0.592766523361206,0.9019864201545715,0.45756083726882935,0.9817771911621094,1.141670823097229,0.7945928573608398,0.34769564867019653,1.0023629665374756,0.6326427459716797,0.6364837288856506,0.5388138294219971,1.0359224081039429,0.9157487154006958,0.807594895362854,0.39016294479370117,1.1188604831695557,0.2676766514778137,0.7961438894271851
19519.68478097174,0.4653785228729248,0.23587268590927124,-1.1036877632141113,0.9999768733978271,0.4697454273700714,0.2127366065979004,-1.0555095672607422,0.9999357461929321,0.47692957520484924,0.21196049451828003,-1.0556098222732544,0.9999189376831055,0.48365241289138794,0.21111154556274414,-1.0556228160858154,0.9999111890792847,0.43879759311676025,0.21310120820999146,-1.0948829650878906,0.9999529123306274,0.42233461141586304,0.21209251880645752,-1.0951471328735352,0.999953031539917,0.40207135677337646,0.211270272731781,-1.0953041315078735,0.9999523162841797,0.47113874554634094,0.21565261483192444,-0.7172828316688538,0.9998428821563721,0.3481898903846741,0.2190893590450287,-0.9115498065948486,0.9999618530273438,0.4710432291030884,0.2568514049053192,-0.971290111541748,0.9999873638153076,0.4388420581817627,0.25932323932647705,-1.0259610414505005,0.9999935626983643,0.5432208180427551,0.34982478618621826,-0.4472186863422394,0.999942421913147,0.17982403934001923,0.3702235221862793,-0.7644249796867371,0.9999336004257202,0.5784140825271606,0.5144701600074768,-0.22596454620361328,0.9840527772903442,0.1856091469526291,0.5594443082809448,-0.7312394976615906,0.9951657056808472,0.6233053207397461,0.658408522605896,-0.4677141010761261,0.9861050248146057,0.2490922510623932,0.7145968079566956,-0.8936929106712341,0.9694442749023438,0.643176794052124,0.6985860466957092,-0.5607489347457886,0.9695433974266052,0.261333167552948,0.7576583027839661,-0.9912286996841431,0.9416368007659912,0.6212189197540283,0.699191689491272,-0.6566566824913025,0.9723746180534363,0.29945555329322815,0.7488701343536377,-1.0664302110671997,0.9458214044570923,0.6054369211196899,0.6906239986419678,-0.5108010768890381,0.971834123134613,0.30321648716926575,0.7349058985710144,-0.923893392086029,0.9471851587295532,0.4972526729106903,0.644767165184021,0.1009196862578392,0.9984799027442932,0.32074105739593506,0.6567065715789795,-0.10069382190704346,0.9988263249397278,0.48170924186706543,0.8591994643211365,0.30691078305244446,0.9460331201553345,0.33814409375190735,0.879684567451477,0.05525478720664978,0.9642106890678406,0.4782733917236328,0.9680094122886658,1.0821598768234253,0.8362897038459778,0.3507331311702728,0.9939297437667847,0.6633796691894531,0.8896677494049072,0.45269402861595154,0.9807001352310181,1.1444885730743408,0.7846021056175232,0.33064714074134827,1.0317637920379639,0.7103622555732727,0.6194169521331787,0.5609235167503357,1.0556766986846924,0.9187353253364563,0.799310564994812,0.3835212290287018,1.1117949485778809,0.3527618646621704,0.7834450006484985
19536.351447638408,0.4643709361553192,0.23547184467315674,-1.1366854906082153,0.9999793767929077,0.4681702256202698,0.21249842643737793,-1.091518521308899,0.9999421834945679,0.475302129983902,0.21172785758972168,-1.0915849208831787,0.9999270439147949,0.4818945527076721,0.211002916097641,-1.0916364192962646,0.9999203681945801,0.43733033537864685,0.21228671073913574,-1.128326416015625,0.999958872795105,0.42087697982788086,0.21158242225646973,-1.1285946369171143,0.9999589920043945,0.4009116291999817,0.21110385656356812,-1.1287602186203003,0.9999594688415527,0.46946024894714355,0.21500277519226074,-0.7549245953559875,0.9998553991317749,0.3482762575149536,0.2195253074169159,-0.938071608543396,0.999967098236084,0.4699833393096924,0.25625014305114746,-1.0034031867980957,0.9999880790710449,0.4369839131832123,0.2577897012233734,-1.0549670457839966,0.9999943971633911,0.5471211671829224,0.3484991490840912,-0.47565439343452454,0.9999338388442993,0.1773008555173874,0.36633527278900146,-0.7872009873390198,0.9999455213546753,0.5802887082099915,0.5141875743865967,-0.2615129351615906,0.980595052242279,0.18145430088043213,0.5548644661903381,-0.762495219707489,0.9952329993247986,0.620948076248169,0.6572107076644897,-0.49267080426216125,0.981940746307373,0.24804629385471344,0.7123627662658691,-0.9171557426452637,0.967003583908081,0.6434847116470337,0.6966886520385742,-0.5835466384887695,0.9621400833129883,0.26054254174232483,0.757887601852417,-1.0129470825195312,0.9361046552658081,0.6220986843109131,0.6977609395980835,-0.6779833436012268,0.9654546976089478,0.298118531703949,0.7486141920089722,-1.0840497016906738,0.9403172731399536,0.6056323051452637,0.6898502111434937,-0.5351307988166809,0.9644588828086853,0.3024938106536865,0.7349923849105835,-0.9456668496131897,0.9421439170837402,0.4989403784275055,0.6416362524032593,0.10398926585912704,0.9978411197662354,0.3213759660720825,0.6556249856948853,-0.10378167778253555,0.9986352324485779,0.4853576421737671,0.8533506989479065,0.30416232347488403,0.9454630613327026,0.34020552039146423,0.877522885799408,0.010485904291272163,0.9695234894752502,0.4793412983417511,0.9646838307380676,1.0574486255645752,0.8416045308113098,0.359736829996109,0.9994824528694153,0.5560607314109802,0.900854766368866,0.4537314474582672,0.9784641861915588,1.1172394752502441,0.7794570326805115,0.33771082758903503,1.0333126783370972,0.5956278443336487,0.6264957785606384,0.5442267060279846,1.029013752937317,0.8932028412818909,0.8054510354995728,0.4067598581314087,1.1121455430984497,0.23186492919921875,0.7978613376617432
19553.018114305076,0.46651628613471985,0.23561525344848633,-1.0754916667938232,0.9999812841415405,0.471182256937027,0.2129395604133606,-1.027010440826416,0.9999483823776245,0.4781442880630493,0.2123473882675171,-1.0270949602127075,0.9999358654022217,0.48451459407806396,0.21164587140083313,-1.0271308422088623,0.9999295473098755,0.44093286991119385,0.21261298656463623,-1.068678379058838,0.9999619722366333,0.4246434271335602,0.21130669116973877,-1.0689445734024048,0.9999618530273438,0.404380202293396,0.2102418839931488,-1.0690768957138062,0.9999610185623169,0.46964892745018005,0.21581539511680603,-0.6926995515823364,0.9998767375946045,0.34785717725753784,0.2176607847213745,-0.8980582356452942,0.9999680519104004,0.4704883098602295,0.2565832734107971,-0.9446358680725098,0.9999892711639404,0.43883222341537476,0.25881025195121765,-1.0025705099105835,0.9999943971633911,0.5418260097503662,0.3502606749534607,-0.43235528469085693,0.9999438524246216,0.17756639420986176,0.3683140277862549,-0.756793737411499,0.9999380111694336,0.5788606405258179,0.5141403675079346,-0.2201199233531952,0.9839914441108704,0.1845901757478714,0.5574579834938049,-0.7280890941619873,0.9955850839614868,0.620527446269989,0.656785786151886,-0.45682650804519653,0.9862838983535767,0.249398335814476,0.7132548689842224,-0.8787897229194641,0.9717421531677246,0.6416797041893005,0.6965305805206299,-0.5470407605171204,0.969446063041687,0.2622888684272766,0.7574682831764221,-0.9730887413024902,0.9448356628417969,0.6203291416168213,0.6971434354782104,-0.641796350479126,0.9722488522529602,0.29945117235183716,0.7501716017723083,-1.0438209772109985,0.9483791589736938,0.6042826175689697,0.6888211965560913,-0.4995729625225067,0.9715161919593811,0.3032327890396118,0.7366371154785156,-0.9069405794143677,0.9492350220680237,0.4964580535888672,0.6407934427261353,0.1019911915063858,0.9980826377868652,0.31744080781936646,0.6527762413024902,-0.10179063677787781,0.9986080527305603,0.4831869602203369,0.8545379638671875,0.2822597026824951,0.9370687007904053,0.3367420732975006,0.8776347041130066,0.017878899350762367,0.959662675857544,0.47783228754997253,0.9655677080154419,1.0231645107269287,0.8085632920265198,0.35413825511932373,0.9984287023544312,0.5788296461105347,0.8815942406654358,0.4543564021587372,0.9791167378425598,1.0819591283798218,0.7542925477027893,0.33841586112976074,1.0330679416656494,0.619630753993988,0.5988345146179199,0.5397510528564453,1.0303444862365723,0.861698567867279,0.7773905396461487,0.396650105714798,1.1109743118286133,0.25947025418281555,0.7745451331138611
19569.684780971744,0.46666085720062256,0.23606792092323303,-1.0831323862075806,0.9999823570251465,0.47065916657447815,0.2123408019542694,-1.0337129831314087,0.9999488592147827,0.47772929072380066,0.21146482229232788,-1.0337767601013184,0.9999356269836426,0.4842106103897095,0.2104896605014801,-1.0337737798690796,0.9999301433563232,0.4401533305644989,0.21284672617912292,-1.0730441808700562,0.9999635219573975,0.4238245189189911,0.2117607593536377,-1.073305606842041,0.9999628067016602,0.40358486771583557,0.21091249585151672,-1.0734400749206543,0.9999628067016602,0.4696906805038452,0.2148069143295288,-0.7020809054374695,0.9998747110366821,0.348214328289032,0.21884682774543762,-0.896141529083252,0.9999673366546631,0.4714963734149933,0.2566823363304138,-0.9544692039489746,0.9999892711639404,0.4406147599220276,0.2596004009246826,-1.0090748071670532,0.9999943971633911,0.541096568107605,0.3488367795944214,-0.44788244366645813,0.9999403953552246,0.18120118975639343,0.37060046195983887,-0.7631269693374634,0.9999399185180664,0.5777216553688049,0.5133361220359802,-0.24256831407546997,0.9837425947189331,0.1852993667125702,0.5592027902603149,-0.7407092452049255,0.9947125911712646,0.6232158541679382,0.658657431602478,-0.4738057851791382,0.9867310523986816,0.2496226727962494,0.7138917446136475,-0.8955956697463989,0.9694608449935913,0.6414706707000732,0.6998261213302612,-0.5657844543457031,0.9708707928657532,0.26265400648117065,0.7566364407539368,-0.9920363426208496,0.9423179626464844,0.6188939213752747,0.7005537748336792,-0.6583788990974426,0.9733647108078003,0.2985619306564331,0.7483313083648682,-1.0629962682724,0.945686936378479,0.6033225655555725,0.6915459632873535,-0.5155361294746399,0.9726003408432007,0.3021230697631836,0.7344468235969543,-0.9244154095649719,0.9468374848365784,0.49718865752220154,0.6442835927009583,0.10214218497276306,0.9981783628463745,0.3222297132015228,0.6567211747169495,-0.10195367783308029,0.9988850951194763,0.4818781912326813,0.8497492074966431,0.3341313898563385,0.946222186088562,0.3368360698223114,0.8774830102920532,0.05442790687084198,0.9694895148277283,0.47885632514953613,0.9577187895774841,1.0963644981384277,0.8472585678100586,0.35151517391204834,0.994464099407196,0.6405701637268066,0.9074719548225403,0.4533110558986664,0.9739115238189697,1.1572000980377197,0.7889094352722168,0.33283352851867676,1.0288255214691162,0.6840084791183472,0.6393940448760986,0.5424392819404602,1.0215990543365479,0.9397692680358887,0.8192123174667358,0.38336068391799927,1.108591079711914,0.3273700773715973,0.8124285936355591
19586.35144763841,0.466251015663147,0.23218464851379395,-1.0954985618591309,0.9999837875366211,0.46976521611213684,0.20861759781837463,-1.0462138652801514,0.9999539852142334,0.4771660268306732,0.20771485567092896,-1.0462983846664429,0.9999428987503052,0.4840843379497528,0.20692652463912964,-1.0463085174560547,0.9999374151229858,0.43855947256088257,0.2090839445590973,-1.0861910581588745,0.9999650716781616,0.4218235909938812,0.20866504311561584,-1.0864505767822266,0.9999648332595825,0.40115901827812195,0.2085215449333191,-1.086579442024231,0.9999639987945557,0.4693582355976105,0.2124355435371399,-0.7095499038696289,0.9998903274536133,0.3466700315475464,0.21779793500900269,-0.906630277633667,0.9999690055847168,0.4722808599472046,0.25316622853279114,-0.9642936587333679,0.9999904632568359,0.4400845468044281,0.25551438331604004,-1.0198036432266235,0.9999948740005493,0.5432255864143372,0.35020726919174194,-0.44824227690696716,0.9999505281448364,0.18084625899791718,0.3680605888366699,-0.7691601514816284,0.9999390840530396,0.5801653265953064,0.5153031945228577,-0.24193792045116425,0.9841938614845276,0.1859416663646698,0.5582479238510132,-0.7430087924003601,0.9947882890701294,0.6221624612808228,0.6606099605560303,-0.48182517290115356,0.98691326379776,0.24759764969348907,0.7134933471679688,-0.9028589129447937,0.9680143594741821,0.6400423049926758,0.6998294591903687,-0.5748983025550842,0.9711176156997681,0.2584522068500519,0.7568522691726685,-0.9999327659606934,0.9398511648178101,0.6190766096115112,0.7004112601280212,-0.6682038903236389,0.973774790763855,0.2962854504585266,0.7487329244613647,-1.0734003782272339,0.9438233971595764,0.6043258309364319,0.6918656826019287,-0.5240318179130554,0.9730729460716248,0.3004385828971863,0.7350903749465942,-0.9327003359794617,0.9451489448547363,0.4978933334350586,0.641309916973114,0.10350732505321503,0.9983898401260376,0.3211263418197632,0.6538674235343933,-0.10330642759799957,0.9988646507263184,0.484393835067749,0.8493099212646484,0.31957074999809265,0.9370824098587036,0.33628538250923157,0.8746414184570312,0.03487168624997139,0.9636508822441101,0.47896963357925415,0.9607959985733032,1.0858018398284912,0.8348165154457092,0.3546021282672882,0.9931396245956421,0.6282882690429688,0.8940077424049377,0.4550589621067047,0.9744684100151062,1.147041916847229,0.7846232652664185,0.33312004804611206,1.026998519897461,0.6726239323616028,0.6253284811973572,0.5415183305740356,1.0243128538131714,0.9240941405296326,0.8096989989280701,0.39337435364723206,1.1059120893478394,0.31345871090888977,0.7950665354728699
19603.01811430508,0.46702614426612854,0.23552066087722778,-1.0509783029556274,0.99997878074646,0.47134774923324585,0.2129386067390442,-1.0016525983810425,0.9999409914016724,0.4783608913421631,0.21226689219474792,-1.0017277002334595,0.9999271631240845,0.484752893447876,0.211436927318573,-1.0017434358596802,0.9999200105667114,0.4412294626235962,0.21269166469573975,-1.0437979698181152,0.9999563694000244,0.4251512587070465,0.21129626035690308,-1.0440627336502075,0.9999567270278931,0.4052691161632538,0.21013739705085754,-1.0441925525665283,0.9999560117721558,0.4701833724975586,0.21550175547599792,-0.669589638710022,0.9998537302017212,0.3499828577041626,0.2175138294696808,-0.8770146369934082,0.9999619722366333,0.47129881381988525,0.25642460584640503,-0.9215146899223328,0.999987006187439,0.44038811326026917,0.2585531175136566,-0.9800977110862732,0.9999933242797852,0.5420103073120117,0.3504840135574341,-0.4181728959083557,0.9999384880065918,0.1782064437866211,0.3690890967845917,-0.7442123889923096,0.9999353885650635,0.5781809091567993,0.5158706903457642,-0.2131815254688263,0.9819204211235046,0.18316081166267395,0.5558764338493347,-0.7204758524894714,0.995451033115387,0.6207032799720764,0.6580058336257935,-0.44917893409729004,0.9852745532989502,0.24838826060295105,0.7118872404098511,-0.8696833252906799,0.9718829989433289,0.6415783166885376,0.6976821422576904,-0.5390762090682983,0.9679259657859802,0.262037992477417,0.7576628923416138,-0.9633068442344666,0.9455742239952087,0.6204131841659546,0.6982397437095642,-0.6318139433860779,0.9708164930343628,0.2991770803928375,0.7503652572631836,-1.0320661067962646,0.9488537311553955,0.6045958399772644,0.6900500059127808,-0.4912746250629425,0.9697861075401306,0.3029163181781769,0.7367693781852722,-0.8971133828163147,0.949445903301239,0.49676093459129333,0.6417525410652161,0.1040862500667572,0.9980250597000122,0.317387193441391,0.6545110940933228,-0.10389535129070282,0.9986023306846619,0.4849337637424469,0.8489682078361511,0.2848659157752991,0.9377304911613464,0.33760371804237366,0.8725858926773071,0.011947455815970898,0.9640833735466003,0.47772276401519775,0.9615737199783325,1.019765853881836,0.8321413993835449,0.35255828499794006,0.994441032409668,0.5856854915618896,0.896903932094574,0.4523782730102539,0.9760140776634216,1.0776216983795166,0.771185576915741,0.33189135789871216,1.0270119905471802,0.627522885799408,0.6203771829605103,0.5450124740600586,1.025589108467102,0.8576703071594238,0.8068361878395081,0.3940996527671814,1.1046555042266846,0.27259641885757446,0.8014194965362549
19619.684780971747,0.46972841024398804,0.2337358295917511,-1.0958499908447266,0.9999767541885376,0.4722062051296234,0.21080350875854492,-1.0447502136230469,0.9999376535415649,0.4784969985485077,0.20984748005867004,-1.044834017753601,0.9999241828918457,0.4842390716075897,0.20874840021133423,-1.0448538064956665,0.9999181032180786,0.4441106617450714,0.2118086814880371,-1.0864522457122803,0.9999505281448364,0.42841318249702454,0.2108166217803955,-1.0867016315460205,0.9999502897262573,0.40874961018562317,0.21014949679374695,-1.086830973625183,0.9999487400054932,0.46665507555007935,0.2130354940891266,-0.7052757143974304,0.9998487234115601,0.3506126403808594,0.21728748083114624,-0.9101182222366333,0.9999536275863647,0.4726114869117737,0.2547015845775604,-0.9641960263252258,0.9999860525131226,0.44289645552635193,0.25812608003616333,-1.0219568014144897,0.9999921321868896,0.5445830821990967,0.3482450246810913,-0.44973844289779663,0.9999406337738037,0.18226362764835358,0.36805617809295654,-0.775194525718689,0.999915361404419,0.5780104398727417,0.5147316455841064,-0.25147610902786255,0.9809731841087341,0.18645930290222168,0.5580568313598633,-0.7535029649734497,0.9945182204246521,0.6205143332481384,0.658039927482605,-0.4975646734237671,0.9860207438468933,0.24630384147167206,0.7134815454483032,-0.9104707837104797,0.9669386744499207,0.6411253809928894,0.6985929012298584,-0.5922326445579529,0.969763994216919,0.26288264989852905,0.7577331066131592,-1.008067011833191,0.9377672076225281,0.6192127466201782,0.6994109153747559,-0.6853591799736023,0.9725083708763123,0.2986654043197632,0.750419020652771,-1.0781112909317017,0.941413402557373,0.603754460811615,0.6912379264831543,-0.5400515794754028,0.9711712002754211,0.30132195353507996,0.7365739941596985,-0.9390741586685181,0.9425480365753174,0.4975806176662445,0.6425645351409912,0.10532835870981216,0.9982240796089172,0.32072314620018005,0.6546213626861572,-0.10510827600955963,0.9986646175384521,0.48511746525764465,0.8463577032089233,0.31106826663017273,0.9355530142784119,0.3391530513763428,0.8660499453544617,0.030335212126374245,0.9644623398780823,0.4782276749610901,0.9580762982368469,1.0698093175888062,0.8497645258903503,0.35365962982177734,0.983630359172821,0.6453045010566711,0.9016274213790894,0.45290353894233704,0.9719679355621338,1.129703402519226,0.7912397384643555,0.32929569482803345,1.0207958221435547,0.6914264559745789,0.6336292028427124,0.543098509311676,1.0237818956375122,0.9021581411361694,0.8272100687026978,0.3925314247608185,1.0997586250305176,0.33492735028266907,0.8119127750396729
19636.351447638415,0.46609416604042053,0.23339307308197021,-1.1138681173324585,0.9999740123748779,0.4696222245693207,0.21068379282951355,-1.0645815134048462,0.9999254941940308,0.4768914580345154,0.21004658937454224,-1.0646424293518066,0.9999080896377563,0.48370304703712463,0.20941853523254395,-1.0646741390228271,0.9998983144760132,0.4394560754299164,0.21036359667778015,-1.1053413152694702,0.9999474287033081,0.42341557145118713,0.2093963325023651,-1.1056214570999146,0.9999483823776245,0.40356889367103577,0.20856314897537231,-1.1057628393173218,0.9999480247497559,0.4675428569316864,0.21443906426429749,-0.7277884483337402,0.9998088479042053,0.3480416536331177,0.21676835417747498,-0.928479015827179,0.9999549388885498,0.47070398926734924,0.25442615151405334,-0.9826908111572266,0.9999830722808838,0.4394187331199646,0.2562524378299713,-1.0393319129943848,0.9999916553497314,0.5442171096801758,0.35086989402770996,-0.46388816833496094,0.9999133348464966,0.18035653233528137,0.3687609136104584,-0.7917118668556213,0.9999315738677979,0.5790594220161438,0.5160762071609497,-0.2649848759174347,0.9777831435203552,0.18484126031398773,0.5569600462913513,-0.7697659134864807,0.9950035214424133,0.6227914690971375,0.6576918959617615,-0.4990503489971161,0.9799742698669434,0.24776476621627808,0.7121610641479492,-0.9146183133125305,0.9674263596534729,0.6436614990234375,0.6969066858291626,-0.5889779329299927,0.9580886960029602,0.2598773241043091,0.7590317726135254,-1.0095773935317993,0.9371909499168396,0.6238701939582825,0.6976091265678406,-0.6819376349449158,0.9616925120353699,0.29767051339149475,0.7510006427764893,-1.078870415687561,0.9410893321037292,0.6082335710525513,0.6895199418067932,-0.5416790246963501,0.9603462219238281,0.30264943838119507,0.7372996211051941,-0.9426719546318054,0.9419810771942139,0.4989570677280426,0.641808271408081,0.106081023812294,0.9976491332054138,0.3214135766029358,0.6558419466018677,-0.10591457784175873,0.9985802173614502,0.48660096526145935,0.8484027981758118,0.313073068857193,0.9364933967590332,0.3391028046607971,0.8726824522018433,0.012793176807463169,0.9654361605644226,0.4782979488372803,0.9618977904319763,1.050126314163208,0.8385852575302124,0.3571922183036804,0.9907216429710388,0.5821497440338135,0.9011009335517883,0.45089831948280334,0.9761725664138794,1.107265591621399,0.7682161331176758,0.32909971475601196,1.028557300567627,0.6225387454032898,0.6180303692817688,0.5443646907806396,1.026748776435852,0.8797616362571716,0.8110293745994568,0.3880448341369629,1.1049165725708008,0.26029977202415466,0.806504487991333
19653.018114305083,0.46832019090652466,0.23566731810569763,-1.103287696838379,0.9999743700027466,0.4709133803844452,0.21200788021087646,-1.0530877113342285,0.9999310970306396,0.4773862361907959,0.2110074758529663,-1.0531750917434692,0.9999148845672607,0.4832495152950287,0.20988836884498596,-1.053194522857666,0.9999078512191772,0.44257962703704834,0.21304666996002197,-1.0953073501586914,0.9999475479125977,0.42707252502441406,0.2120303511619568,-1.095571756362915,0.999947190284729,0.4075876474380493,0.2113122045993805,-1.0957062244415283,0.9999456405639648,0.4666670858860016,0.214114248752594,-0.7124133110046387,0.9998338222503662,0.3504035174846649,0.2186008095741272,-0.9197603464126587,0.9999532699584961,0.4720521867275238,0.25595521926879883,-0.9709095358848572,0.9999854564666748,0.44233015179634094,0.2598852813243866,-1.0293878316879272,0.9999920129776001,0.5424533486366272,0.3491637408733368,-0.4463511109352112,0.999937891960144,0.1823139488697052,0.36836740374565125,-0.7829034328460693,0.9999241828918457,0.577866792678833,0.5154480338096619,-0.2308264821767807,0.9814069271087646,0.18685568869113922,0.5575478076934814,-0.7570650577545166,0.9946492314338684,0.6216642260551453,0.6582620739936829,-0.4631303548812866,0.9851059913635254,0.24632036685943604,0.7141439914703369,-0.9089645743370056,0.9666903018951416,0.6420957446098328,0.6978157162666321,-0.5537683963775635,0.9675966501235962,0.261942058801651,0.7580763697624207,-1.006332278251648,0.9373974800109863,0.6197360157966614,0.6981157660484314,-0.6504413485527039,0.9705731272697449,0.29769277572631836,0.750044584274292,-1.0778520107269287,0.9415212869644165,0.6040332317352295,0.6894630789756775,-0.5064364075660706,0.9696236848831177,0.30050352215766907,0.7363688945770264,-0.9380832314491272,0.942444920539856,0.4987854063510895,0.6436916589736938,0.10797792673110962,0.9983975291252136,0.3225826621055603,0.6563774347305298,-0.10772404819726944,0.9989042282104492,0.48357999324798584,0.8533710837364197,0.3273783028125763,0.9478326439857483,0.3385983109474182,0.8744154572486877,0.022151904180645943,0.9706254601478577,0.4806114137172699,0.9620826840400696,1.1167516708374023,0.860905110836029,0.35223257541656494,0.9950450658798218,0.6255192756652832,0.9137970805168152,0.45582449436187744,0.9747104048728943,1.1801000833511353,0.808972954750061,0.35034802556037903,0.9958248734474182,0.6711253523826599,0.6550720930099487,0.5421806573867798,1.028467059135437,0.9569960236549377,0.8318391442298889,0.38550424575805664,1.1064575910568237,0.3121930658817291,0.8257991075515747
19669.68478097175,0.46811094880104065,0.23504236340522766,-1.0909966230392456,0.9999741315841675,0.47043856978416443,0.2115788757801056,-1.0408774614334106,0.9999291896820068,0.4769127070903778,0.21053290367126465,-1.0409657955169678,0.9999130964279175,0.48279276490211487,0.20933368802070618,-1.040993571281433,0.9999066591262817,0.4415695369243622,0.21279174089431763,-1.0808370113372803,0.9999459981918335,0.42559945583343506,0.21186086535453796,-1.0810881853103638,0.9999452829360962,0.4054010212421417,0.211210697889328,-1.0812184810638428,0.9999442100524902,0.4667815566062927,0.21339988708496094,-0.7029224038124084,0.9998277425765991,0.3488745391368866,0.21859681606292725,-0.899559736251831,0.9999502897262573,0.4719749391078949,0.25563326478004456,-0.95986407995224,0.9999839067459106,0.441823810338974,0.25933173298835754,-1.0152721405029297,0.9999910593032837,0.5427009463310242,0.34851884841918945,-0.4398234486579895,0.9999297857284546,0.18274685740470886,0.3682296574115753,-0.7673999667167664,0.9999175071716309,0.5777381658554077,0.5145758986473083,-0.23339609801769257,0.9795328974723816,0.18515023589134216,0.5558434128761292,-0.7472710609436035,0.9942165613174438,0.6212945580482483,0.6586191654205322,-0.46235010027885437,0.9836951494216919,0.24686244130134583,0.7134910821914673,-0.899630069732666,0.9632272124290466,0.6397403478622437,0.6986038088798523,-0.5520588755607605,0.9650355577468872,0.26380205154418945,0.7583432197570801,-0.99676513671875,0.9306281805038452,0.6181901693344116,0.699155867099762,-0.6472964286804199,0.9681370258331299,0.2979218363761902,0.7505560517311096,-1.065584659576416,0.9346649646759033,0.6031576991081238,0.6905664205551147,-0.5052098035812378,0.9669185280799866,0.30059435963630676,0.7366697192192078,-0.9280147552490234,0.9362363219261169,0.49849167466163635,0.6445380449295044,0.10606800764799118,0.9981398582458496,0.3223738968372345,0.6562709212303162,-0.10582108050584793,0.9987609386444092,0.4849041998386383,0.851103663444519,0.3335442841053009,0.943764865398407,0.3400401771068573,0.873885452747345,0.024861644953489304,0.9703342914581299,0.48084765672683716,0.9634554386138916,1.0837830305099487,0.8611942529678345,0.3546358048915863,0.9958526492118835,0.60923832654953,0.9127376079559326,0.4559552073478699,0.9767193794250488,1.1424169540405273,0.8007194399833679,0.33285728096961975,1.0284322500228882,0.6520742177963257,0.6480846405029297,0.5401394367218018,1.0317579507827759,0.9115656614303589,0.8324040174484253,0.3883180022239685,1.1080312728881836,0.28922367095947266,0.8248295187950134
19686.35144763842,0.4699026346206665,0.23584836721420288,-1.0577185153961182,0.9999744892120361,0.4722597301006317,0.2126036286354065,-1.0084121227264404,0.9999293088912964,0.4784024953842163,0.2116624116897583,-1.0084869861602783,0.9999152421951294,0.4839530885219574,0.21058598160743713,-1.0085114240646362,0.9999082088470459,0.44469210505485535,0.2136240005493164,-1.0500181913375854,0.9999470710754395,0.4294183552265167,0.21257561445236206,-1.0502485036849976,0.999947190284729,0.4100186228752136,0.21179112792015076,-1.0503672361373901,0.9999454021453857,0.464586466550827,0.21470394730567932,-0.6778194308280945,0.9998358488082886,0.35080158710479736,0.2181348204612732,-0.8813462257385254,0.999950647354126,0.47192227840423584,0.2569290101528168,-0.9292219877243042,0.9999843835830688,0.44244787096977234,0.2604963183403015,-0.9865728616714478,0.9999911785125732,0.5437678098678589,0.34979256987571716,-0.42950183153152466,0.9999252557754517,0.18077191710472107,0.3714143633842468,-0.7532183527946472,0.9999116659164429,0.5783284902572632,0.516959547996521,-0.23121528327465057,0.9794222116470337,0.1846967488527298,0.5584220886230469,-0.7335286140441895,0.9934861063957214,0.6204322576522827,0.6573972105979919,-0.4571618139743805,0.9827619194984436,0.24728845059871674,0.7103416919708252,-0.8789730072021484,0.9616149067878723,0.640733003616333,0.6974228620529175,-0.5466828942298889,0.9634775519371033,0.25871241092681885,0.7580299377441406,-0.972210705280304,0.9303957223892212,0.6207720637321472,0.6982225179672241,-0.6397567987442017,0.9667537212371826,0.2949851453304291,0.7496114373207092,-1.0435069799423218,0.9346437454223633,0.6044961810112,0.6898524761199951,-0.4994550943374634,0.9653103947639465,0.29940909147262573,0.7352629899978638,-0.9082033038139343,0.9359968900680542,0.5002245306968689,0.6459877490997314,0.10474403202533722,0.9976412057876587,0.3247121572494507,0.6602689027786255,-0.10449640452861786,0.9984434247016907,0.48671892285346985,0.8514036536216736,0.3126630187034607,0.9482484459877014,0.3419256806373596,0.8732845187187195,0.01200370118021965,0.970646321773529,0.4818136692047119,0.9625444412231445,1.0418936014175415,0.866992175579071,0.3605489730834961,0.9969692826271057,0.5789529085159302,0.9116489291191101,0.4569408893585205,0.972930371761322,1.0982626676559448,0.8010399341583252,0.3366106450557709,1.0317591428756714,0.6195210814476013,0.6542803645133972,0.5458510518074036,1.0281202793121338,0.8706738352775574,0.8343884944915771,0.3954743444919586,1.108709692955017,0.262149453163147,0.8208020329475403
19703.018114305087,0.46402621269226074,0.23530149459838867,-1.1070713996887207,0.9999792575836182,0.4685328006744385,0.21151220798492432,-1.0592260360717773,0.9999411106109619,0.4760782718658447,0.21045711636543274,-1.0593087673187256,0.999925971031189,0.48309075832366943,0.20928779244422913,-1.0593324899673462,0.9999184608459473,0.4372500479221344,0.2124781310558319,-1.0969451665878296,0.9999574422836304,0.42078256607055664,0.2114993929862976,-1.0972214937210083,0.9999574422836304,0.40078267455101013,0.21076330542564392,-1.0973771810531616,0.9999576807022095,0.470733642578125,0.21395263075828552,-0.7226954698562622,0.9998571872711182,0.3469856381416321,0.21852663159370422,-0.9087794423103333,0.9999642372131348,0.4697776734828949,0.2563675045967102,-0.9754121899604797,0.9999876022338867,0.43801379203796387,0.2596917748451233,-1.0277525186538696,0.9999938011169434,0.5431671142578125,0.34907853603363037,-0.4527021646499634,0.999936580657959,0.18169353902339935,0.3700118958950043,-0.7691212296485901,0.9999427795410156,0.5802606344223022,0.5146234035491943,-0.2405983954668045,0.9815670251846313,0.1861245036125183,0.5581799149513245,-0.7434738874435425,0.9949795603752136,0.6229692697525024,0.6604888439178467,-0.4766143560409546,0.9824747443199158,0.2468406707048416,0.714052140712738,-0.9035817980766296,0.9674764275550842,0.6422809362411499,0.700508713722229,-0.5675241947174072,0.9626511931419373,0.2594863772392273,0.7572857141494751,-0.999241292476654,0.9379374980926514,0.620847225189209,0.7011997699737549,-0.6612595319747925,0.9658820033073425,0.2973964512348175,0.749642014503479,-1.0733050107955933,0.9421285390853882,0.6050820350646973,0.6926172375679016,-0.5189542174339294,0.9655800461769104,0.3014996349811554,0.7360589504241943,-0.9334323406219482,0.9435345530509949,0.4971078038215637,0.6455039978027344,0.10286316275596619,0.9981847405433655,0.3194313645362854,0.6575673222541809,-0.10266586393117905,0.9988530874252319,0.48417165875434875,0.854026198387146,0.3084719479084015,0.9372020959854126,0.3349986672401428,0.8764586448669434,0.022443832829594612,0.9654750227928162,0.47867414355278015,0.9619913697242737,1.0800209045410156,0.8204320073127747,0.3536812663078308,0.9981939196586609,0.5883086323738098,0.8931677937507629,0.4550977647304535,0.9758129119873047,1.1419366598129272,0.766106128692627,0.3356093466281891,1.031339406967163,0.6299154162406921,0.6189070343971252,0.5429579615592957,1.0265253782272339,0.9236658811569214,0.7900878190994263,0.39405176043510437,1.1099673509597778,0.2699998617172241,0.791530430316925
19719.684780971755,0.4645247161388397,0.23448187112808228,-1.1067126989364624,0.9999767541885376,0.4688436686992645,0.21070939302444458,-1.0570741891860962,0.9999361038208008,0.4762094020843506,0.20978355407714844,-1.0571694374084473,0.9999220371246338,0.483145147562027,0.20876950025558472,-1.0571974515914917,0.9999145269393921,0.4377296268939972,0.211264967918396,-1.0958192348480225,0.999950647354126,0.4209432005882263,0.21013492345809937,-1.0960824489593506,0.999950647354126,0.4005306363105774,0.20921799540519714,-1.0962334871292114,0.9999492168426514,0.4697458744049072,0.21372342109680176,-0.7180572152137756,0.9998476505279541,0.34597018361091614,0.21684277057647705,-0.9092369079589844,0.9999560117721558,0.4692782461643219,0.25581830739974976,-0.9747868776321411,0.999985933303833,0.4377753734588623,0.2590228319168091,-1.028611183166504,0.9999922513961792,0.5420066714286804,0.3485710322856903,-0.4530136287212372,0.9999352693557739,0.18289172649383545,0.3693840503692627,-0.7659385204315186,0.9999246597290039,0.5754719972610474,0.5148895382881165,-0.2506437599658966,0.9804244637489319,0.18598827719688416,0.5581145882606506,-0.7418115139007568,0.9942229390144348,0.621756911277771,0.6575672030448914,-0.4981521666049957,0.9838287830352783,0.2459864318370819,0.7133470177650452,-0.9096433520317078,0.9647747278213501,0.6438829302787781,0.6974647641181946,-0.5911538600921631,0.9655674695968628,0.2620561420917511,0.7574137449264526,-1.0065315961837769,0.9339579939842224,0.62229323387146,0.6987650394439697,-0.6870051026344299,0.9686349034309387,0.2980828881263733,0.7499022483825684,-1.0797306299209595,0.9380512833595276,0.6061108112335205,0.6907617449760437,-0.5416982769966125,0.9677361845970154,0.3010631799697876,0.7362404465675354,-0.9394946098327637,0.9397174715995789,0.4954807460308075,0.6431628465652466,0.1004612147808075,0.997952938079834,0.31851816177368164,0.6551726460456848,-0.1002102941274643,0.9985924363136292,0.48460426926612854,0.8497229814529419,0.2922162115573883,0.9330998659133911,0.3368338346481323,0.8730563521385193,0.014147096313536167,0.9628982543945312,0.47667717933654785,0.9619811773300171,1.032708764076233,0.825077474117279,0.3534364104270935,0.994484007358551,0.5792441368103027,0.8909026980400085,0.45161935687065125,0.9758754968643188,1.090021014213562,0.7623078227043152,0.33495742082595825,1.03082275390625,0.6195533275604248,0.6125834584236145,0.5419430732727051,1.0268855094909668,0.8597716093063354,0.7929418087005615,0.3931993246078491,1.1086241006851196,0.2552187144756317,0.791218101978302
19736.351447638423,0.4699026346206665,0.23356863856315613,-1.114996314048767,0.9999759197235107,0.4716963469982147,0.21005916595458984,-1.066809058189392,0.9999316930770874,0.4783620238304138,0.20909041166305542,-1.0668792724609375,0.9999173879623413,0.4844903349876404,0.2080681025981903,-1.0669169425964355,0.9999072551727295,0.4428440034389496,0.21086826920509338,-1.110109806060791,0.9999499320983887,0.4270919859409332,0.21016445755958557,-1.1103966236114502,0.9999507665634155,0.40739795565605164,0.2096758484840393,-1.1105499267578125,0.9999487400054932,0.46719053387641907,0.21278339624404907,-0.7340180277824402,0.9998399019241333,0.35085541009902954,0.21808099746704102,-0.9464030265808105,0.9999572038650513,0.47347280383110046,0.2542566955089569,-0.9848951101303101,0.9999855756759644,0.4431694447994232,0.2578536868095398,-1.0448931455612183,0.9999924898147583,0.5441895723342896,0.34994158148765564,-0.47337010502815247,0.9999285936355591,0.1799151450395584,0.36727988719940186,-0.8115607500076294,0.9999330043792725,0.5766111612319946,0.5179367065429688,-0.27101415395736694,0.9805037975311279,0.1859794706106186,0.5573104619979858,-0.7888787388801575,0.9948291182518005,0.6239094734191895,0.6603487133979797,-0.5004754662513733,0.9827229976654053,0.24651482701301575,0.7136792540550232,-0.9297218322753906,0.9687681794166565,0.6451737284660339,0.7002758383750916,-0.589842677116394,0.96293705701828,0.2591649889945984,0.757749617099762,-1.0234954357147217,0.9415080547332764,0.6246415376663208,0.7011478543281555,-0.6836789846420288,0.966284453868866,0.29771333932876587,0.7502539157867432,-1.095445156097412,0.9454688429832458,0.6088465452194214,0.6926592588424683,-0.54305100440979,0.9656192660331726,0.3018726408481598,0.7366984486579895,-0.9584881663322449,0.945973813533783,0.4948677718639374,0.643662691116333,0.10552255809307098,0.9978352189064026,0.31651586294174194,0.6542550325393677,-0.10532404482364655,0.9986862540245056,0.48528823256492615,0.8513163924217224,0.30557355284690857,0.9332600831985474,0.33516234159469604,0.8765436410903931,0.0021850273478776217,0.9619593620300293,0.47948941588401794,0.9623962640762329,1.0583773851394653,0.8201169371604919,0.3549179434776306,0.9955676198005676,0.5608245134353638,0.8908445835113525,0.45408955216407776,0.9770870804786682,1.117681622505188,0.7638329863548279,0.333307147026062,1.0318965911865234,0.6008620262145996,0.6101146340370178,0.5454051494598389,1.0255365371704102,0.8994669914245605,0.7902352809906006,0.3881324827671051,1.1094536781311035,0.24296748638153076,0.7896777987480164
19753.01811430509,0.4691771864891052,0.23327681422233582,-1.103951334953308,0.9999756813049316,0.47202351689338684,0.210153728723526,-1.054518222808838,0.9999350309371948,0.47885093092918396,0.20925071835517883,-1.0546233654022217,0.9999197721481323,0.4850558340549469,0.2082996368408203,-1.0546808242797852,0.999911904335022,0.44277623295783997,0.2109479308128357,-1.0967003107070923,0.9999516010284424,0.42667096853256226,0.21037307381629944,-1.096991777420044,0.9999518394470215,0.4068879783153534,0.21004432439804077,-1.097151517868042,0.9999510049819946,0.4681228697299957,0.21289551258087158,-0.7145833373069763,0.9998551607131958,0.3505486845970154,0.21913903951644897,-0.9212467670440674,0.9999619722366333,0.47373735904693604,0.2540626525878906,-0.9711725115776062,0.9999867677688599,0.4427074193954468,0.25737491250038147,-1.0295089483261108,0.999993085861206,0.542221188545227,0.34951141476631165,-0.4437456727027893,0.9999295473098755,0.18351256847381592,0.3667680621147156,-0.7829775214195251,0.9999383687973022,0.5757282376289368,0.5173311829566956,-0.24273362755775452,0.9777676463127136,0.19031231105327606,0.5539392232894897,-0.7553931474685669,0.9948111772537231,0.6220503449440002,0.6587627530097961,-0.49185967445373535,0.9784906506538391,0.24721266329288483,0.7123121023178101,-0.9133152365684509,0.9659902453422546,0.642784595489502,0.6993325352668762,-0.584216833114624,0.954960286617279,0.26410067081451416,0.7585878372192383,-1.0101544857025146,0.9355366230010986,0.622049868106842,0.7002879977226257,-0.6809045672416687,0.9592937231063843,0.3011321425437927,0.7504327893257141,-1.0830280780792236,0.9401952028274536,0.6069452166557312,0.691775381565094,-0.5362141728401184,0.9588112235069275,0.30400964617729187,0.7361453175544739,-0.9429364204406738,0.9411457180976868,0.49778151512145996,0.6430432796478271,0.10600569099187851,0.9977849125862122,0.3207906186580658,0.6540042757987976,-0.10575388371944427,0.9985300302505493,0.48571470379829407,0.8574525713920593,0.2844173312187195,0.9189025163650513,0.33494865894317627,0.8812914490699768,-0.002212208928540349,0.9528378248214722,0.4779917001724243,0.967650830745697,1.0378178358078003,0.7700866460800171,0.35522016882896423,0.9938674569129944,0.5634468793869019,0.8561265468597412,0.45136216282844543,0.9806820154190063,1.0968760251998901,0.7197815775871277,0.3257385790348053,1.0393747091293335,0.6044399738311768,0.5578345060348511,0.5397072434425354,1.0348925590515137,0.8660038113594055,0.7344598174095154,0.385561466217041,1.1162700653076172,0.23599177598953247,0.7370283603668213
19769.68478097176,0.46783873438835144,0.2306041121482849,-1.1343755722045898,0.9999790191650391,0.4705047607421875,0.20620858669281006,-1.083141803741455,0.9999438524246216,0.47741326689720154,0.20544782280921936,-1.0832481384277344,0.9999313354492188,0.4838794767856598,0.2048555612564087,-1.0833114385604858,0.9999244213104248,0.44023996591567993,0.2065190076828003,-1.1238574981689453,0.9999581575393677,0.423850953578949,0.2062930464744568,-1.1241514682769775,0.9999583959579468,0.4039464294910431,0.2063707411289215,-1.1243025064468384,0.9999569654464722,0.4665704071521759,0.210805743932724,-0.7367702722549438,0.9998724460601807,0.3491528034210205,0.21578064560890198,-0.9370474815368652,0.9999663829803467,0.4727017879486084,0.25189369916915894,-1.0000126361846924,0.9999880790710449,0.441746324300766,0.25307080149650574,-1.056531548500061,0.9999938011169434,0.5425583124160767,0.35059821605682373,-0.462080717086792,0.9999295473098755,0.18373055756092072,0.36626604199409485,-0.7905539274215698,0.9999333620071411,0.5771252512931824,0.5169659852981567,-0.2582677900791168,0.980811595916748,0.18635740876197815,0.5561071634292603,-0.7608305215835571,0.9951754808425903,0.6244808435440063,0.6587798595428467,-0.5057876706123352,0.981860876083374,0.24962513148784637,0.7136957049369812,-0.9243535399436951,0.9665578007698059,0.6454565525054932,0.6989829540252686,-0.5983911156654358,0.9608508944511414,0.2621268332004547,0.7594452500343323,-1.0227526426315308,0.9347034096717834,0.6269400119781494,0.6998510956764221,-0.697208046913147,0.9646037220954895,0.30027833580970764,0.7521673440933228,-1.0954148769378662,0.9394270181655884,0.6114029288291931,0.6912363171577454,-0.5508126020431519,0.963683009147644,0.3042033314704895,0.738050103187561,-0.9540713429450989,0.9407231211662292,0.4969106912612915,0.6404128074645996,0.10375096648931503,0.997654378414154,0.3209933936595917,0.6540771126747131,-0.10346690565347672,0.9984433054924011,0.4862012267112732,0.8543391227722168,0.2804953157901764,0.9299627542495728,0.338741660118103,0.8823443651199341,-0.004745637997984886,0.9580907821655273,0.47691747546195984,0.9665936231613159,1.0301673412322998,0.7926493287086487,0.35932621359825134,0.993598997592926,0.5563080310821533,0.8697925209999084,0.44986048340797424,0.9797007441520691,1.0879243612289429,0.7316735982894897,0.33695465326309204,1.0393260717391968,0.5957940220832825,0.5662870407104492,0.5388822555541992,1.0354430675506592,0.847772479057312,0.7528584599494934,0.39391404390335083,1.1164219379425049,0.217763751745224,0.7546246647834778
19786.351447638426,0.46809035539627075,0.22762548923492432,-1.1344561576843262,0.9999759197235107,0.4695974290370941,0.20140090584754944,-1.0848069190979004,0.9999339580535889,0.47659167647361755,0.20059096813201904,-1.0849100351333618,0.9999182224273682,0.4833526015281677,0.19988933205604553,-1.0849827527999878,0.9999101161956787,0.4400614798069,0.2032274305820465,-1.1237292289733887,0.999953031539917,0.42357292771339417,0.20373448729515076,-1.1240320205688477,0.9999533891677856,0.40324485301971436,0.20472902059555054,-1.124215006828308,0.999953031539917,0.465776652097702,0.20722758769989014,-0.7421483397483826,0.9998517036437988,0.3478411138057709,0.21578708291053772,-0.9345598816871643,0.9999649524688721,0.4746265411376953,0.24923554062843323,-1.0008060932159424,0.999987006187439,0.4433911442756653,0.25019916892051697,-1.0550576448440552,0.9999938011169434,0.5452444553375244,0.35041457414627075,-0.4636177122592926,0.999923825263977,0.18447276949882507,0.36584097146987915,-0.7878931164741516,0.9999443292617798,0.5780202746391296,0.5165174603462219,-0.25701770186424255,0.9780457019805908,0.1846967339515686,0.5536750555038452,-0.760907769203186,0.9948523640632629,0.6247506141662598,0.6615262031555176,-0.4989320933818817,0.97698575258255,0.2480819821357727,0.7139281034469604,-0.9199647307395935,0.9607353806495667,0.6450878381729126,0.7025853395462036,-0.5912106037139893,0.952532947063446,0.26395827531814575,0.7593799829483032,-1.0164482593536377,0.9248860478401184,0.6254306435585022,0.7029258608818054,-0.6872183680534363,0.9571462869644165,0.30123990774154663,0.7510343194007874,-1.0883467197418213,0.9302904009819031,0.6103888154029846,0.6934265494346619,-0.5424855351448059,0.9566521048545837,0.304596871137619,0.7367210388183594,-0.9490933418273926,0.931711733341217,0.4974483251571655,0.6418647170066833,0.1061835065484047,0.9975306391716003,0.32141029834747314,0.6542167067527771,-0.10594400763511658,0.9985685348510742,0.4847494065761566,0.8627501726150513,0.3012799918651581,0.9240446090698242,0.33635351061820984,0.8889463543891907,-0.0027284298557788134,0.9586385488510132,0.47865697741508484,0.9725277423858643,1.0783272981643677,0.7672021389007568,0.3555557131767273,1.0028061866760254,0.5366448760032654,0.8602357506752014,0.45251044631004333,0.983863890171051,1.1397968530654907,0.7124863862991333,0.3295314908027649,1.0484213829040527,0.5748026371002197,0.5482931137084961,0.5428792834281921,1.0366517305374146,0.9093239307403564,0.722878098487854,0.39323511719703674,1.1262694597244263,0.19576305150985718,0.7343349456787109
19803.018114305094,0.4652080535888672,0.2312648594379425,-1.0847797393798828,0.999982476234436,0.4683418869972229,0.2073553502559662,-1.031111717224121,0.9999533891677856,0.47579875588417053,0.20652970671653748,-1.0312483310699463,0.9999430179595947,0.48279035091400146,0.20585232973098755,-1.0312832593917847,0.9999372959136963,0.43708714842796326,0.2076128125190735,-1.0707862377166748,0.9999630451202393,0.42057210206985474,0.20697501301765442,-1.0710315704345703,0.999962329864502,0.4004361033439636,0.2066376805305481,-1.0711745023727417,0.99996018409729,0.46858862042427063,0.21175441145896912,-0.6839929223060608,0.9998995065689087,0.3470423221588135,0.21596816182136536,-0.8793578743934631,0.9999681711196899,0.47125905752182007,0.2528592050075531,-0.9514889121055603,0.9999911785125732,0.43896475434303284,0.2550773322582245,-1.0064504146575928,0.9999949932098389,0.5405842065811157,0.3496472239494324,-0.42259255051612854,0.9999566078186035,0.18417154252529144,0.3720063865184784,-0.7356560230255127,0.9999338388442993,0.5786947011947632,0.514691948890686,-0.21454322338104248,0.9851396679878235,0.18812040984630585,0.5597774982452393,-0.7068204879760742,0.9943729639053345,0.6258078813552856,0.6570935845375061,-0.4754737615585327,0.9871865510940552,0.2478502243757248,0.7141923904418945,-0.8874933123588562,0.963118851184845,0.6491291522979736,0.6969766020774841,-0.5734817981719971,0.9716558456420898,0.25930461287498474,0.7579338550567627,-0.9865697622299194,0.9315812587738037,0.6270208358764648,0.6971930861473083,-0.6718586087226868,0.9743000864982605,0.298425555229187,0.7499189376831055,-1.0648142099380493,0.9363741278648376,0.610336422920227,0.6885576248168945,-0.5201376080513,0.9736729264259338,0.3032025098800659,0.7361803650856018,-0.9196367859840393,0.938289225101471,0.4972350001335144,0.6436693072319031,0.10138563811779022,0.9984146356582642,0.32058197259902954,0.6557368040084839,-0.10101969540119171,0.9988767504692078,0.48422694206237793,0.8541553020477295,0.2832746207714081,0.9363489747047424,0.3352518379688263,0.881144642829895,0.0070637972094118595,0.9614429473876953,0.477796345949173,0.9632240533828735,1.09450101852417,0.7814543843269348,0.3528573513031006,0.9985447525978088,0.5667229890823364,0.872517466545105,0.45345965027809143,0.9773688316345215,1.1599122285842896,0.7351558804512024,0.33530548214912415,1.0378481149673462,0.6071414947509766,0.5806103348731995,0.5451837778091431,1.0267304182052612,0.9393455386161804,0.7411852478981018,0.39294061064720154,1.1169849634170532,0.2354719489812851,0.75514817237854
19819.684780971762,0.46994391083717346,0.22764325141906738,-1.0972094535827637,0.9999756813049316,0.47039568424224854,0.20267254114151,-1.044853925704956,0.9999310970306396,0.47701650857925415,0.20194080471992493,-1.044956088066101,0.999915599822998,0.4832705557346344,0.2012614905834198,-1.0449838638305664,0.9999071359634399,0.4425225555896759,0.20385175943374634,-1.0860060453414917,0.9999513626098633,0.42668628692626953,0.20398840308189392,-1.086280107498169,0.999951958656311,0.40730807185173035,0.2044895589351654,-1.0864381790161133,0.9999505281448364,0.46389254927635193,0.20847874879837036,-0.7063806653022766,0.999839186668396,0.351166695356369,0.21457511186599731,-0.9088113903999329,0.9999611377716064,0.47538331151008606,0.24899685382843018,-0.9672786593437195,0.9999862909317017,0.44638991355895996,0.24970287084579468,-1.0244089365005493,0.9999933242797852,0.5422015190124512,0.3506912887096405,-0.43853768706321716,0.999923586845398,0.18417046964168549,0.36964255571365356,-0.7803003787994385,0.9999418258666992,0.5777207016944885,0.5156522989273071,-0.235453799366951,0.9800382256507874,0.18878130614757538,0.5581668615341187,-0.7568691968917847,0.9948256015777588,0.6225510835647583,0.6581994295120239,-0.4740450978279114,0.9805058240890503,0.24668267369270325,0.7137876152992249,-0.9129912853240967,0.9633586406707764,0.647260844707489,0.6980925798416138,-0.5663983225822449,0.9583955407142639,0.2581566572189331,0.7588186860084534,-1.0103662014007568,0.9310811161994934,0.6268920302391052,0.6983932256698608,-0.6601061224937439,0.9621257781982422,0.2970684766769409,0.7502478361129761,-1.0846970081329346,0.9356516003608704,0.6102713942527771,0.689678430557251,-0.5168429613113403,0.961493730545044,0.3015509843826294,0.7363666296005249,-0.943320631980896,0.936602771282196,0.4956352412700653,0.6447577476501465,0.11234261840581894,0.9978975057601929,0.32194390892982483,0.6571280360221863,-0.11208269745111465,0.9988483190536499,0.48269644379615784,0.8582888841629028,0.3671061396598816,0.9320971965789795,0.3348231315612793,0.8835152387619019,0.008633915334939957,0.9669079184532166,0.4790114760398865,0.9687025547027588,1.116957664489746,0.8069378733634949,0.3511975407600403,1.0009467601776123,0.5293664932250977,0.8788636922836304,0.45297423005104065,0.9823583364486694,1.1752715110778809,0.750569224357605,0.3279440402984619,1.0442911386489868,0.5651174187660217,0.5785301923751831,0.5464137196540833,1.0325239896774292,0.9493899941444397,0.7701207995414734,0.395936518907547,1.1211429834365845,0.19175833463668823,0.7667022347450256
19836.35144763843,0.4674045741558075,0.22967630624771118,-1.0706543922424316,0.9999784231185913,0.4709772765636444,0.20482760667800903,-1.0199521780014038,0.9999399185180664,0.4783775806427002,0.20419761538505554,-1.020056962966919,0.9999257326126099,0.4852408766746521,0.20374298095703125,-1.0200984477996826,0.9999182224273682,0.4412279725074768,0.20516932010650635,-1.0623246431350708,0.9999561309814453,0.4248790740966797,0.20500358939170837,-1.062589168548584,0.9999557733535767,0.40534529089927673,0.20518073439598083,-1.0627474784851074,0.999954104423523,0.46830645203590393,0.21073958277702332,-0.686545193195343,0.9998648166656494,0.3500080704689026,0.21510273218154907,-0.8950807452201843,0.9999654293060303,0.47261032462120056,0.2508799135684967,-0.9416730999946594,0.9999878406524658,0.44208335876464844,0.2515218257904053,-1.0004971027374268,0.9999939203262329,0.5424780249595642,0.35120445489883423,-0.4306493103504181,0.9999368190765381,0.18346096575260162,0.36785030364990234,-0.7580850720405579,0.9999386072158813,0.5776521563529968,0.514845073223114,-0.23200291395187378,0.983360767364502,0.18746668100357056,0.5540959239006042,-0.7325539588928223,0.994773805141449,0.6229113340377808,0.655685544013977,-0.4737086594104767,0.9853502511978149,0.24826602637767792,0.7122783660888672,-0.8872568011283875,0.9671886563301086,0.6506885290145874,0.695458710193634,-0.5656988620758057,0.9678102731704712,0.2589578926563263,0.7588319778442383,-0.9808964133262634,0.9381362795829773,0.6306193470954895,0.6959440112113953,-0.6621257662773132,0.9709565043449402,0.2988053560256958,0.7508113980293274,-1.0575318336486816,0.9425999522209167,0.6132580041885376,0.6871674656867981,-0.5176644921302795,0.9703524708747864,0.3033052384853363,0.7364081144332886,-0.9181454181671143,0.9439122676849365,0.4942825138568878,0.6408742666244507,0.10425841063261032,0.9977437257766724,0.31692761182785034,0.6531318426132202,-0.10398197174072266,0.9985412359237671,0.48474305868148804,0.855833888053894,0.29468652606010437,0.9354153275489807,0.33497923612594604,0.8823560476303101,0.004825410433113575,0.9611461758613586,0.4761536121368408,0.9731503129005432,1.0028493404388428,0.8003618717193604,0.356523722410202,1.0003559589385986,0.530340313911438,0.8740240931510925,0.45174989104270935,0.9859448671340942,1.05667245388031,0.7472580075263977,0.33780011534690857,1.0428255796432495,0.5664146542549133,0.5870660543441772,0.5376574993133545,1.0350632667541504,0.8287109732627869,0.7553805112838745,0.38983291387557983,1.1177194118499756,0.1999281346797943,0.7567937970161438
19853.018114305098,0.470378577709198,0.22994405031204224,-1.0425294637680054,0.9999765157699585,0.47260981798171997,0.205094575881958,-0.9906283020973206,0.9999353885650635,0.47943300008773804,0.20438224077224731,-0.9907421469688416,0.9999212026596069,0.4857470989227295,0.2038232982158661,-0.9907593131065369,0.9999127388000488,0.44394779205322266,0.2055947482585907,-1.0362001657485962,0.9999511241912842,0.42777398228645325,0.20542505383491516,-1.0364505052566528,0.9999507665634155,0.4085395038127899,0.20556408166885376,-1.0366102457046509,0.9999476671218872,0.46680647134780884,0.21042174100875854,-0.6556088924407959,0.999855637550354,0.3513788878917694,0.2151358723640442,-0.8791420459747314,0.9999583959579468,0.4754997193813324,0.2509305477142334,-0.913264811038971,0.9999877214431763,0.4457451105117798,0.25230371952056885,-0.9764065742492676,0.9999934434890747,0.5404711365699768,0.35060420632362366,-0.4074084460735321,0.9999443292617798,0.18069319427013397,0.3686036765575409,-0.7504090666770935,0.9999309778213501,0.5753949880599976,0.5151010751724243,-0.20561732351779938,0.9827703237533569,0.1868039220571518,0.5573244690895081,-0.7294530868530273,0.9942276477813721,0.6223239898681641,0.6571590304374695,-0.452380895614624,0.9859451651573181,0.2454509288072586,0.7119774222373962,-0.8806288838386536,0.9658353328704834,0.6486616134643555,0.696887195110321,-0.546174168586731,0.969063401222229,0.25581568479537964,0.757178544998169,-0.9757217764854431,0.9379311800003052,0.6288374662399292,0.6972839832305908,-0.6423172354698181,0.9721034169197083,0.29620271921157837,0.7495841383934021,-1.051874041557312,0.9423192739486694,0.611521303653717,0.6890655755996704,-0.4961300790309906,0.9714294672012329,0.3013608455657959,0.7356780767440796,-0.9112563729286194,0.9429069757461548,0.4962514042854309,0.6433656811714172,0.10723140090703964,0.9981854557991028,0.322627991437912,0.6550589203834534,-0.10695215314626694,0.9987810254096985,0.4849194884300232,0.8555999994277954,0.3243156671524048,0.9359438419342041,0.33499592542648315,0.8796900510787964,0.012054811231791973,0.9597395062446594,0.4794005751609802,0.9688702821731567,1.0992072820663452,0.8024032711982727,0.3523060083389282,1.0000040531158447,0.5697486400604248,0.873779833316803,0.4544947147369385,0.9816053509712219,1.161046028137207,0.7608889937400818,0.3511252701282501,1.000511646270752,0.6101797223091125,0.5923181176185608,0.5428118705749512,1.0320374965667725,0.942154049873352,0.7652503848075867,0.3872773051261902,1.1164922714233398,0.24646292626857758,0.7614930272102356
19869.684780971766,0.4690277576446533,0.23002222180366516,-1.0570179224014282,0.9999797344207764,0.47171059250831604,0.20550763607025146,-1.0052274465560913,0.9999426603317261,0.4788643717765808,0.20482155680656433,-1.0053235292434692,0.9999309778213501,0.4855315089225769,0.2042810022830963,-1.0053534507751465,0.9999223947525024,0.4421484172344208,0.2058430314064026,-1.0497528314590454,0.9999572038650513,0.4257458746433258,0.20563432574272156,-1.0499980449676514,0.9999575614929199,0.4062167704105377,0.20569244027137756,-1.050141453742981,0.9999544620513916,0.46783512830734253,0.2109045684337616,-0.668761670589447,0.9998713731765747,0.3501091003417969,0.21539652347564697,-0.8877278566360474,0.999963641166687,0.4742391109466553,0.25119030475616455,-0.9269535541534424,0.9999890327453613,0.4440907835960388,0.2524149417877197,-0.9888074994087219,0.9999943971633911,0.5408883690834045,0.35092416405677795,-0.4164300262928009,0.999945878982544,0.1807113140821457,0.3691248893737793,-0.755933940410614,0.9999419450759888,0.5762201547622681,0.5148889422416687,-0.21483975648880005,0.9825047850608826,0.18730731308460236,0.5558972954750061,-0.7355180382728577,0.9947043061256409,0.6219691038131714,0.6567442417144775,-0.46635839343070984,0.9861161708831787,0.24569664895534515,0.7119916677474976,-0.8932700157165527,0.9673969149589539,0.6496578454971313,0.6964004039764404,-0.5615888237953186,0.9698810577392578,0.2574256658554077,0.7576568722724915,-0.9889573454856873,0.9404053092002869,0.6311495900154114,0.6966455578804016,-0.6576253175735474,0.9727666974067688,0.29609787464141846,0.7494233250617981,-1.0646755695343018,0.9444541931152344,0.6133919954299927,0.6882373094558716,-0.5103211402893066,0.9717394709587097,0.30087530612945557,0.7354548573493958,-0.9238892793655396,0.9447407126426697,0.49564969539642334,0.6434123516082764,0.1093900054693222,0.9980270266532898,0.3213312029838562,0.6544399261474609,-0.1091398224234581,0.9988419413566589,0.48419249057769775,0.8540993332862854,0.3384896218776703,0.9386674165725708,0.3339332342147827,0.8789991736412048,-0.0012144396314397454,0.9660504460334778,0.4797933101654053,0.964020311832428,1.118477463722229,0.8103349208831787,0.35344138741493225,1.0000691413879395,0.5314140915870667,0.8882530927658081,0.45438554883003235,0.9794094562530518,1.1809736490249634,0.758664608001709,0.3315000832080841,1.0410133600234985,0.5686249732971191,0.6043769121170044,0.5480086207389832,1.0236775875091553,0.9677556753158569,0.7785390019416809,0.39763692021369934,1.11705482006073,0.2013949155807495,0.7819041013717651
19886.351447638433,0.46828892827033997,0.23122775554656982,-1.098089337348938,0.9999765157699585,0.47139543294906616,0.20670679211616516,-1.0498300790786743,0.9999336004257202,0.4787757396697998,0.20597994327545166,-1.0499112606048584,0.9999188184738159,0.48561036586761475,0.2053457498550415,-1.0499649047851562,0.9999107122421265,0.4411132335662842,0.20694652199745178,-1.0928422212600708,0.9999516010284424,0.4246680736541748,0.2066139280796051,-1.0931100845336914,0.9999516010284424,0.4051658511161804,0.20654332637786865,-1.093263030052185,0.9999494552612305,0.46919235587120056,0.21128696203231812,-0.7162301540374756,0.9998499155044556,0.3496086597442627,0.2162068486213684,-0.9283632040023804,0.9999603033065796,0.47461453080177307,0.25188952684402466,-0.9673010110855103,0.9999867677688599,0.4438110291957855,0.2536686062812805,-1.0272445678710938,0.9999933242797852,0.5417476892471313,0.3498286306858063,-0.45595118403434753,0.9999401569366455,0.18106693029403687,0.36808040738105774,-0.7799398303031921,0.9999399185180664,0.5776420831680298,0.5147685408592224,-0.2468167394399643,0.9841798543930054,0.18690535426139832,0.553152322769165,-0.7448740601539612,0.9946414232254028,0.622238278388977,0.6555680632591248,-0.4789755940437317,0.9860674738883972,0.24521644413471222,0.7114023566246033,-0.8897643685340881,0.9676321148872375,0.6503229141235352,0.6957631707191467,-0.5696954131126404,0.9691446423530579,0.25748318433761597,0.7574819326400757,-0.9821592569351196,0.9398691058158875,0.631569504737854,0.6962181329727173,-0.6658194065093994,0.9721336364746094,0.2962654232978821,0.7495090365409851,-1.0589724779129028,0.9441795945167542,0.6139296293258667,0.6873769760131836,-0.5222794413566589,0.9713596105575562,0.30045604705810547,0.7354146242141724,-0.9205341339111328,0.9449797868728638,0.4937279224395752,0.6384550929069519,0.10358292609453201,0.9977824091911316,0.31632474064826965,0.6494223475456238,-0.10338714718818665,0.9985860586166382,0.48537901043891907,0.8532648086547852,0.31478235125541687,0.9394264221191406,0.33557823300361633,0.8796188831329346,0.021342499181628227,0.9617554545402527,0.47604599595069885,0.9703913927078247,1.046237826347351,0.8099641799926758,0.35578835010528564,0.9982101917266846,0.5580163598060608,0.8797798156738281,0.45053982734680176,0.9842848181724548,1.1035125255584717,0.752518355846405,0.35590052604675293,0.9988833069801331,0.595862627029419,0.5904602408409119,0.5411418676376343,1.031710147857666,0.8818616271018982,0.7717223167419434,0.39563196897506714,1.1148685216903687,0.23249757289886475,0.7683736085891724
19903.0181143051,0.46838679909706116,0.22979524731636047,-1.1150885820388794,0.9999812841415405,0.47025740146636963,0.20489266514778137,-1.0638219118118286,0.9999502897262573,0.4773699641227722,0.2041730284690857,-1.063931941986084,0.9999393224716187,0.4841400384902954,0.20353487133979797,-1.0640027523040771,0.999933123588562,0.44102543592453003,0.2054426074028015,-1.1052454710006714,0.9999620914459229,0.42494267225265503,0.20535308122634888,-1.1055216789245605,0.9999622106552124,0.4054076671600342,0.2055257260799408,-1.1056679487228394,0.99996018409729,0.4661741256713867,0.21043989062309265,-0.7170612215995789,0.999890923500061,0.35010141134262085,0.2151208221912384,-0.9214276671409607,0.9999698400497437,0.47379976511001587,0.251007616519928,-0.9801685214042664,0.9999904632568359,0.44404661655426025,0.2517121136188507,-1.0378272533416748,0.9999949932098389,0.5427112579345703,0.350176066160202,-0.4417417347431183,0.9999500513076782,0.1844167560338974,0.3687449097633362,-0.7711687684059143,0.9999419450759888,0.5776762962341309,0.5148612856864929,-0.22635193169116974,0.9840402007102966,0.18709608912467957,0.5565823316574097,-0.7342126369476318,0.9952669143676758,0.6221189498901367,0.6566455960273743,-0.4781455099582672,0.9860472679138184,0.24571165442466736,0.7146652340888977,-0.8969129323959351,0.967821478843689,0.6489202976226807,0.696386992931366,-0.5735127925872803,0.969255268573761,0.2596340775489807,0.7596370577812195,-0.9944115877151489,0.9380739331245422,0.6304386854171753,0.6960994005203247,-0.6722548604011536,0.9724172353744507,0.2977879047393799,0.7515567541122437,-1.0700538158416748,0.942651093006134,0.6133363246917725,0.687689483165741,-0.5228346586227417,0.9714499115943909,0.30152028799057007,0.7373855710029602,-0.927322506904602,0.9434945583343506,0.4956793487071991,0.6411875486373901,0.1069418266415596,0.9980910420417786,0.31959331035614014,0.6523246169090271,-0.10670427232980728,0.9986650943756104,0.4835257828235626,0.8601370453834534,0.2946684658527374,0.9224626421928406,0.3339094817638397,0.8834027051925659,0.0007707795011810958,0.9535126090049744,0.4774792790412903,0.9706349968910217,1.0766186714172363,0.7570579648017883,0.3542075753211975,1.0000038146972656,0.5587015748023987,0.8527931571006775,0.4516342580318451,0.9830964207649231,1.1389544010162354,0.7066195011138916,0.32954227924346924,1.0420833826065063,0.598821222782135,0.5464493036270142,0.5394193530082703,1.0334562063217163,0.9105057120323181,0.7173057198524475,0.39407962560653687,1.1190893650054932,0.22276334464550018,0.7304337620735168
19919.68478097177,0.47022297978401184,0.2300092875957489,-1.0780178308486938,0.9999785423278809,0.47161829471588135,0.20549580454826355,-1.025989055633545,0.9999438524246216,0.47867444157600403,0.20473650097846985,-1.0261069536209106,0.999931812286377,0.48523545265197754,0.20409533381462097,-1.026172161102295,0.9999250173568726,0.44321566820144653,0.20610687136650085,-1.0695085525512695,0.9999573230743408,0.4271571636199951,0.2060004472732544,-1.0697749853134155,0.9999570846557617,0.4080328643321991,0.206120103597641,-1.0699330568313599,0.9999544620513916,0.4659556448459625,0.21113818883895874,-0.6829760670661926,0.9998797178268433,0.3525141775608063,0.21580350399017334,-0.8962032794952393,0.999967098236084,0.4749342203140259,0.25118616223335266,-0.9451034069061279,0.9999892711639404,0.44613683223724365,0.25203022360801697,-1.0053001642227173,0.9999943971633911,0.5408618450164795,0.3503365218639374,-0.4128216803073883,0.9999449253082275,0.18571430444717407,0.36868709325790405,-0.7613312602043152,0.9999432563781738,0.5755106806755066,0.5147709250450134,-0.20986565947532654,0.9803328514099121,0.18693439662456512,0.5551798939704895,-0.736726701259613,0.9945421814918518,0.6232758164405823,0.6568754315376282,-0.46417778730392456,0.982743501663208,0.24533671140670776,0.712788462638855,-0.8963780403137207,0.9634491205215454,0.6510379314422607,0.6960603594779968,-0.5589478015899658,0.9631028771400452,0.2567407786846161,0.7586064338684082,-0.9937756061553955,0.9318632483482361,0.6305987238883972,0.6961078643798828,-0.6581308841705322,0.9668276906013489,0.29585331678390503,0.750383734703064,-1.0701080560684204,0.9366681575775146,0.613370418548584,0.6879363656044006,-0.509758472442627,0.9660626649856567,0.30046546459198,0.7363717555999756,-0.927478015422821,0.9376984238624573,0.49642252922058105,0.6419413089752197,0.11358334124088287,0.9980509281158447,0.3221146762371063,0.6539585590362549,-0.11330241709947586,0.998737633228302,0.484060674905777,0.8614282608032227,0.3097885847091675,0.9283219575881958,0.33452457189559937,0.8858048319816589,-0.0009233037126250565,0.9599331617355347,0.4778541624546051,0.9727558493614197,1.0764918327331543,0.772831916809082,0.3532467484474182,1.00446617603302,0.5345112085342407,0.8669495582580566,0.4518849849700928,0.9862339496612549,1.136753797531128,0.7230127453804016,0.33010900020599365,1.0457072257995605,0.5718339085578918,0.5646752119064331,0.5435331463813782,1.0330300331115723,0.9120326042175293,0.7319328784942627,0.3927164673805237,1.1223573684692383,0.19843384623527527,0.7509929537773132
19936.351447638437,0.4664968252182007,0.22909942269325256,-1.122764229774475,0.9999810457229614,0.4692414402961731,0.20438385009765625,-1.0715826749801636,0.9999483823776245,0.47663572430610657,0.20369583368301392,-1.0716909170150757,0.9999371767044067,0.48376932740211487,0.2030615210533142,-1.0717421770095825,0.999929666519165,0.4383811056613922,0.205377459526062,-1.110215663909912,0.9999613761901855,0.4217219054698944,0.20549562573432922,-1.1104868650436401,0.9999618530273438,0.4016093611717224,0.20601105690002441,-1.1106489896774292,0.9999598264694214,0.46953004598617554,0.21012747287750244,-0.7250696420669556,0.9998841285705566,0.34885984659194946,0.21603968739509583,-0.9165028929710388,0.9999707937240601,0.47383588552474976,0.2501777112483978,-0.9883299469947815,0.9999901056289673,0.4418102204799652,0.25075554847717285,-1.0422512292861938,0.9999951124191284,0.5423381328582764,0.35019156336784363,-0.4428889751434326,0.9999480247497559,0.18610233068466187,0.367182195186615,-0.771650493144989,0.9999524354934692,0.5781185030937195,0.514708936214447,-0.23240599036216736,0.9815933108329773,0.1849622130393982,0.5541919469833374,-0.7450942397117615,0.9951893091201782,0.6247082948684692,0.6567022800445557,-0.4882732629776001,0.9832200407981873,0.245616614818573,0.7127681374549866,-0.9176770448684692,0.9634454846382141,0.6516107320785522,0.6960365176200867,-0.5842733383178711,0.964419960975647,0.25743263959884644,0.7584435939788818,-1.0172570943832397,0.930315375328064,0.6308824419975281,0.6958455443382263,-0.6831743717193604,0.9678530693054199,0.2959873378276825,0.7502223253250122,-1.0932234525680542,0.9350812435150146,0.613813042640686,0.6876103281974792,-0.5332784056663513,0.966978132724762,0.30034640431404114,0.7361338138580322,-0.9487316608428955,0.9366800785064697,0.49573612213134766,0.6413500308990479,0.11169138550758362,0.998202919960022,0.32176750898361206,0.6533591151237488,-0.11141218990087509,0.998898983001709,0.4835691452026367,0.8590548634529114,0.3302069306373596,0.9326467514038086,0.33434587717056274,0.8827019929885864,0.009027055464684963,0.9661540985107422,0.477632611989975,0.9692171216011047,1.1044355630874634,0.7909335494041443,0.3521241843700409,1.0036137104034424,0.5403409600257874,0.8804655075073242,0.45079854130744934,0.9838058948516846,1.1656017303466797,0.7379151582717896,0.3278414011001587,1.0444153547286987,0.5774164199829102,0.5839972496032715,0.5455470681190491,1.0310289859771729,0.9391576051712036,0.7499919533729553,0.39732059836387634,1.1217330694198608,0.20008417963981628,0.7661327123641968
19953.018114305105,0.46957316994667053,0.23042115569114685,-1.0837174654006958,0.9999772310256958,0.4715442657470703,0.2060762643814087,-1.0321894884109497,0.999937891960144,0.4785805642604828,0.20520737767219543,-1.032300353050232,0.9999233484268188,0.48509788513183594,0.2044619917869568,-1.032352089881897,0.9999151229858398,0.44260987639427185,0.20680385828018188,-1.073771595954895,0.9999548196792603,0.4264868199825287,0.20664352178573608,-1.0740445852279663,0.9999549388885498,0.4072631597518921,0.20665952563285828,-1.0742017030715942,0.9999535083770752,0.4665362238883972,0.21112060546875,-0.6906000971794128,0.9998565912246704,0.35103893280029297,0.21543407440185547,-0.8951870799064636,0.9999648332595825,0.4748441278934479,0.2511051595211029,-0.9514899253845215,0.9999873638153076,0.4449605941772461,0.2521054744720459,-1.0092297792434692,0.9999936819076538,0.5415176153182983,0.3515101969242096,-0.41936400532722473,0.9999289512634277,0.18360476195812225,0.36952370405197144,-0.7582067251205444,0.9999440908432007,0.5752146244049072,0.515992283821106,-0.21356642246246338,0.9787324070930481,0.18761959671974182,0.5565665364265442,-0.727401852607727,0.9948200583457947,0.6235818862915039,0.6572842597961426,-0.462874174118042,0.9801744222640991,0.2472332864999771,0.7144913673400879,-0.8855779767036438,0.9653638005256653,0.6500861644744873,0.6962411999702454,-0.5552295446395874,0.9580487608909607,0.25924617052078247,0.7594799399375916,-0.9817971587181091,0.934002697467804,0.6307019591331482,0.6963590979576111,-0.6532478928565979,0.9620576500892639,0.2970457673072815,0.7512637376785278,-1.0560611486434937,0.9385407567024231,0.613654375076294,0.688042938709259,-0.5079029202461243,0.9614656567573547,0.30108726024627686,0.737115204334259,-0.9157295227050781,0.9396282434463501,0.49463552236557007,0.6439045071601868,0.10988492518663406,0.9978067278862,0.320133775472641,0.6559295058250427,-0.10962829738855362,0.9986758828163147,0.4855775237083435,0.8598976731300354,0.32419776916503906,0.9275643229484558,0.33738279342651367,0.8867251873016357,0.008223342709243298,0.9601668119430542,0.4789449870586395,0.9713996052742004,1.0720255374908447,0.7775546312332153,0.3571595847606659,1.0023548603057861,0.5416688919067383,0.8656975030899048,0.45312464237213135,0.9844289422035217,1.1303038597106934,0.7234562039375305,0.33662286400794983,1.0442320108413696,0.5787045955657959,0.5622411966323853,0.5417014956474304,1.034276008605957,0.9019869565963745,0.7403045892715454,0.3988593816757202,1.1207423210144043,0.20444002747535706,0.7511984705924988
