0,1
14415.950957518999,401.0
14415.951020016211,440.0
14415.951082513424,431.0
14415.951145010637,428.0
14415.95120750785,462.0
14415.951270005062,434.0
14415.951332502273,392.0
14415.951394999485,409.0
14415.951457496698,406.0
14415.95151999391,394.0
14415.951582491123,411.0
14415.951644988336,396.0
14415.951707485548,414.0
14415.951769982761,409.0
14415.951832479974,422.0
14415.951894977186,458.0
14415.951957474397,413.0
14415.95201997161,415.0
14415.952082468822,411.0
14415.952144966035,398.0
14415.952207463248,423.0
14415.95226996046,416.0
14415.952332457673,398.0
14415.952394954886,376.0
14415.952457452098,381.0
14415.952519949311,395.0
14415.952582446524,376.0
14415.952644943736,390.0
14415.952707440947,394.0
14415.95276993816,342.0
14415.952832435372,388.0
14415.952894932585,402.0
14415.952957429798,374.0
14415.95301992701,395.0
14415.953082424223,397.0
14415.953144921436,423.0
14415.953207418648,423.0
14415.95326991586,407.0
14415.953332413072,404.0
14415.953394910284,397.0
14415.953457407497,401.0
14415.95351990471,386.0
14415.953582401922,379.0
14415.953644899135,406.0
14415.953707396347,413.0
14415.95376989356,376.0
14415.953832390773,402.0
14415.953894887985,447.0
14415.953957385198,390.0
14415.95401988241,352.0
14415.954082379621,377.0
14415.954144876834,360.0
14415.954207374047,354.0
14415.95426987126,370.0
14415.954332368472,384.0
14415.954394865685,395.0
14415.954457362897,381.0
14415.95451986011,367.0
14415.954582357323,361.0
14415.954644854535,405.0
14415.954707351746,440.0
14415.954769848959,390.0
14415.954832346171,447.0
14415.954894843384,496.0
14415.954957340597,474.0
14415.95501983781,438.0
14415.955082335022,382.0
14415.955144832235,405.0
14415.955207329447,397.0
14415.95526982666,383.0
14415.955332323872,383.0
14415.955394821085,376.0
14415.955457318296,365.0
14415.955519815509,358.0
14415.955582312721,351.0
14415.955644809934,355.0
14415.955707307146,386.0
14415.955769804359,334.0
14415.955832301572,383.0
14415.955894798784,433.0
14415.955957295997,396.0
14415.956019793208,425.0
14415.95608229042,420.0
14415.956144787633,417.0
14415.956207284846,436.0
14415.956269782058,383.0
14415.956332279271,368.0
14415.956394776484,385.0
14415.956457273696,381.0
14415.956519770909,380.0
14415.956582268122,351.0
14415.956644765334,365.0
14415.956707262547,378.0
14415.95676975976,344.0
14415.95683225697,369.0
14415.956894754183,397.0
14415.956957251396,388.0
14415.957019748608,363.0
14415.95708224582,328.0
14415.957144743033,336.0
14415.957207240246,357.0
14415.957269737459,377.0
14415.957332234671,363.0
14415.957394731882,359.0
14415.957457229095,368.0
14415.957519726308,366.0
14415.95758222352,379.0
14415.957644720733,366.0
14415.957707217945,342.0
14415.957769715158,361.0
14415.95783221237,351.0
14415.957894709583,364.0
14415.957957206796,370.0
14415.958019704009,367.0
14415.958082201221,377.0
14415.958144698434,388.0
14415.958207195645,355.0
14415.958269692857,382.0
14415.95833219007,374.0
14415.958394687283,374.0
14415.958457184495,415.0
14415.958519681708,383.0
14415.95858217892,387.0
14415.958644676133,414.0
14415.958707173346,431.0
14415.958769670557,355.0
14415.95883216777,403.0
14415.958894664982,455.0
14415.958957162195,380.0
14415.959019659407,398.0
14415.95908215662,403.0
14415.959144653832,380.0
14415.959207151045,398.0
14415.959269648258,405.0
14415.95933214547,379.0
14415.959394642683,395.0
14415.959457139896,389.0
14415.959519637106,375.0
14415.95958213432,398.0
14415.959644631532,402.0
14415.959707128744,397.0
14415.959769625957,385.0
14415.95983212317,418.0
14415.959894620382,415.0
14415.959957117595,388.0
14415.960019614808,395.0
14415.96008211202,393.0
14415.960144609231,387.0
14415.960207106444,374.0
14415.960269603656,418.0
14415.960332100869,425.0
14415.960394598082,418.0
14415.960457095294,420.0
14415.960519592507,420.0
14415.96058208972,428.0
14415.960644586932,412.0
14415.960707084145,422.0
14415.960769581357,416.0
14415.96083207857,428.0
14415.960894575781,461.0
14415.960957072994,431.0
14415.961019570206,444.0
14415.961082067419,470.0
14415.961144564631,451.0
14415.961207061844,459.0
14415.961269559057,461.0
14415.96133205627,429.0
14415.961394553482,433.0
14415.961457050695,427.0
14415.961519547905,417.0
14415.961582045118,423.0
14415.96164454233,442.0
14415.961707039543,449.0
14415.961769536756,406.0
14415.961832033969,464.0
14415.961894531181,491.0
14415.961957028394,430.0
14415.962019525607,453.0
14415.96208202282,445.0
14415.962144520032,438.0
14415.962207017245,470.0
14415.962269514455,449.0
14415.962332011668,432.0
14415.96239450888,436.0
14415.962457006093,419.0
14415.962519503306,420.0
14415.962582000519,424.0
14415.962644497731,412.0
14415.962706994944,424.0
14415.962769492156,374.0
14415.962831989369,407.0
14415.96289448658,449.0
14415.962956983793,409.0
14415.963019481005,418.0
14415.963081978218,414.0
14415.96314447543,409.0
14415.963206972643,422.0
14415.963269469856,410.0
14415.963331967068,412.0
14415.963394464281,412.0
14415.963456961494,389.0
14415.963519458706,399.0
14415.963581955919,399.0
14415.96364445313,398.0
14415.963706950342,394.0
14415.963769447555,353.0
14415.963831944768,380.0
14415.96389444198,384.0
14415.963956939193,354.0
14415.964019436406,363.0
14415.964081933618,370.0
14415.96414443083,390.0
14415.964206928043,388.0
14415.964269425254,375.0
14415.964331922467,372.0
14415.96439441968,367.0
14415.964456916892,362.0
14415.964519414105,370.0
14415.964581911318,372.0
14415.96464440853,380.0
14415.964706905743,422.0
14415.964769402955,395.0
14415.964831900168,397.0
14415.96489439738,393.0
14415.964956894593,371.0
14415.965019391804,399.0
14415.965081889017,398.0
14415.96514438623,417.0
14415.965206883442,443.0
14415.965269380655,463.0
14415.965331877867,440.0
14415.96539437508,438.0
14415.965456872293,456.0
14415.965519369505,469.0
14415.965581866718,498.0
14415.965644363929,546.0
14415.965706861141,609.0
14415.965769358354,586.0
14415.965831855567,644.0
14415.96589435278,708.0
14415.965956849992,720.0
14415.966019347205,780.0
14415.966081844417,840.0
14415.96614434163,925.0
14415.966206838842,1063.0
14415.966269336055,1279.0
14415.966331833268,1507.0
14415.966394330479,1944.0
14415.966456827691,2322.0
14415.966519324904,3947.0
14415.966581822116,8428.0
14415.96664431933,13661.0
14415.966706816542,15905.0
14415.966769313754,13903.0
14415.966831810967,10115.0
14415.96689430818,5111.0
14415.96695680539,539.0
14415.967019302603,-1765.0
14415.967081799816,-1670.0
14415.967144297028,-1190.0
14415.967206794241,-231.0
14415.967269291454,1671.0
14415.967331788666,3997.0
14415.967394285879,5911.0
14415.967456783092,6801.0
14415.967519280304,6725.0
14415.967581777517,5621.0
14415.96764427473,4376.0
14415.967706771942,2711.0
14415.967769269153,264.0
14415.967831766366,-3162.0
14415.967894263578,-7617.0
14415.967956760791,-12983.0
14415.968019258004,-18041.0
14415.968081755216,-22028.0
14415.968144252429,-25945.0
14415.968206749641,-30753.0
14415.968269246854,-32768.0
14415.968331744065,-32733.0
14415.968394241278,-32751.0
14415.96845673849,-23468.0
14415.968519235703,447.0
14415.968581732915,25532.0
14415.968644230128,32617.0
14415.96870672734,32093.0
14415.968769224553,29412.0
14415.968831721766,17916.0
14415.968894218979,4859.0
14415.968956716191,-8965.0
14415.969019213404,-18583.0
14415.969081710617,-21641.0
14415.969144207827,-20177.0
14415.96920670504,-16670.0
14415.969269202253,-9699.0
14415.969331699465,-2352.0
14415.969394196678,-203.0
14415.96945669389,-4254.0
14415.969519191103,-7968.0
14415.969581688316,-5340.0
14415.969644185529,1826.0
14415.96970668274,10041.0
14415.969769179952,17554.0
14415.969831677165,23268.0
14415.969894174377,22938.0
14415.96995667159,16554.0
14415.970019168803,7431.0
14415.970081666015,-1361.0
14415.970144163228,-10459.0
14415.97020666044,-18040.0
14415.970269157653,-19965.0
14415.970331654866,-14887.0
14415.970394152078,-6345.0
14415.97045664929,1671.0
14415.970519146502,7874.0
14415.970581643714,11230.0
14415.970644140927,10792.0
14415.97070663814,7730.0
14415.970769135352,5406.0
14415.970831632565,5291.0
14415.970894129778,6084.0
14415.97095662699,7012.0
14415.971019124203,8378.0
14415.971081621414,9435.0
14415.971144118626,8624.0
14415.971206615839,5176.0
14415.971269113052,109.0
14415.971331610264,-4649.0
14415.971394107477,-7760.0
14415.97145660469,-8457.0
14415.971519101902,-6309.0
14415.971581599115,-1835.0
14415.971644096328,3183.0
14415.97170659354,6706.0
14415.971769090753,7984.0
14415.971831587964,7521.0
14415.971894085176,5903.0
14415.971956582389,3512.0
14415.972019079602,1341.0
14415.972081576814,324.0
14415.972144074027,992.0
14415.97220657124,2582.0
14415.972269068452,4057.0
14415.972331565665,4877.0
14415.972394062877,4668.0
14415.972456560088,3126.0
14415.9725190573,1090.0
14415.972581554513,418.0
14415.972644051726,1817.0
14415.972706548939,3744.0
14415.972769046151,4748.0
14415.972831543364,5685.0
14415.972894040577,6747.0
14415.97295653779,7014.0
14415.973019035002,6076.0
14415.973081532215,4403.0
14415.973144029427,2354.0
14415.973206526638,592.0
14415.97326902385,50.0
14415.973331521063,938.0
14415.973394018276,2369.0
14415.973456515489,3316.0
14415.973519012701,3124.0
14415.973581509914,2143.0
14415.973644007126,1076.0
14415.97370650434,303.0
14415.973769001552,-209.0
14415.973831498763,-366.0
14415.973893995975,27.0
14415.973956493188,680.0
14415.9740189904,1739.0
14415.974081487613,2915.0
14415.974143984826,3509.0
14415.974206482038,2990.0
14415.974268979251,1834.0
14415.974331476464,417.0
14415.974393973676,-822.0
14415.974456470889,-1775.0
14415.974518968102,-2258.0
14415.974581465312,-2731.0
14415.974643962525,-3607.0
14415.974706459738,-4704.0
14415.97476895695,-5699.0
14415.974831454163,-6413.0
14415.974893951376,-6992.0
14415.974956448588,-7600.0
14415.975018945801,-8137.0
14415.975081443014,-8618.0
14415.975143940226,-9533.0
14415.975206437437,-11014.0
14415.97526893465,-13619.0
14415.975331431862,-17585.0
14415.975393929075,-23574.0
14415.975456426288,-30453.0
14415.9755189235,-32768.0
14415.975581420713,-24714.0
14415.975643917925,-2040.0
14415.975706415138,20718.0
14415.97576891235,29139.0
14415.975831409563,27487.0
14415.975893906776,21525.0
14415.975956403987,12848.0
14415.9760189012,1457.0
14415.976081398412,-6448.0
14415.976143895625,-10209.0
14415.976206392837,-12353.0
14415.97626889005,-12495.0
14415.976331387263,-6381.0
14415.976393884475,2919.0
14415.976456381688,6680.0
14415.9765188789,3268.0
14415.976581376111,-2084.0
14415.976643873324,-3828.0
14415.976706370537,-2955.0
14415.97676886775,1204.0
14415.976831364962,9382.0
14415.976893862175,18415.0
14415.976956359387,21056.0
14415.9770188566,17887.0
14415.977081353813,13191.0
14415.977143851025,8546.0
14415.977206348238,1473.0
14415.97726884545,-5755.0
14415.977331342661,-8042.0
14415.977393839874,-5269.0
14415.977456337087,-630.0
14415.9775188343,4376.0
14415.977581331512,9534.0
14415.977643828724,12357.0
14415.977706325937,10716.0
14415.97776882315,6631.0
14415.977831320362,4114.0
14415.977893817573,3680.0
14415.977956314786,3869.0
14415.978018811998,4705.0
14415.978081309211,6717.0
14415.978143806424,8697.0
14415.978206303636,8932.0
14415.978268800849,7545.0
14415.978331298062,5558.0
14415.978393795274,3122.0
14415.978456292487,776.0
14415.9785187897,-349.0
14415.978581286912,285.0
14415.978643784125,1626.0
14415.978706281336,2264.0
14415.978768778548,1780.0
14415.978831275761,249.0
14415.978893772974,-2259.0
14415.978956270186,-5149.0
14415.979018767399,-7515.0
14415.979081264612,-9415.0
14415.979143761824,-11178.0
14415.979206259037,-12842.0
14415.979268756248,-14672.0
14415.97933125346,-17692.0
14415.979393750673,-22843.0
14415.979456247886,-30249.0
14415.979518745098,-32768.0
14415.97958124231,-32456.0
14415.979643739523,-32768.0
14415.979706236736,-9958.0
14415.979768733949,24682.0
14415.979831231161,32767.0
14415.979893728374,31371.0
14415.979956225587,31327.0
14415.9800187228,22228.0
14415.98008122001,6462.0
14415.980143717223,-6506.0
14415.980206214435,-13534.0
14415.980268711648,-16286.0
14415.98033120886,-17890.0
14415.980393706073,-12765.0
14415.980456203286,-836.0
14415.980518700499,7264.0
14415.980581197711,4307.0
14415.980643694922,-4372.0
14415.980706192135,-8501.0
14415.980768689347,-7714.0
14415.98083118656,-3362.0
14415.980893683773,5389.0
14415.980956180985,17484.0
14415.981018678198,24057.0
14415.98108117541,22448.0
14415.981143672623,17870.0
14415.981206169836,13738.0
14415.981268667048,6150.0
14415.981331164261,-4893.0
14415.981393661474,-12446.0
14415.981456158685,-12625.0
14415.981518655897,-7906.0
14415.98158115311,-1677.0
14415.981643650322,5715.0
14415.981706147535,11860.0
14415.981768644748,12723.0
14415.98183114196,8497.0
14415.981893639173,5922.0
14415.981956136386,8775.0
14415.982018633596,13427.0
14415.98208113081,15603.0
14415.982143628022,15372.0
14415.982206125234,15054.0
14415.982268622447,12467.0
14415.98233111966,8737.0
14415.982393616872,5378.0
14415.982456114085,3105.0
14415.982518611298,422.0
14415.98258110851,-881.0
14415.982643605723,697.0
14415.982706102935,4747.0
14415.982768600146,8229.0
14415.982831097359,8880.0
14415.982893594572,6930.0
14415.982956091784,3537.0
14415.983018588997,924.0
14415.98308108621,-631.0
14415.983143583422,-384.0
14415.983206080635,536.0
14415.983268577847,941.0
14415.98333107506,-3.0
14415.98339357227,-1279.0
14415.983456069484,-3549.0
14415.983518566696,-6871.0
14415.983581063909,-10697.0
14415.983643561121,-14566.0
14415.983706058334,-18400.0
14415.983768555547,-22207.0
14415.98383105276,-25434.0
14415.983893549972,-29402.0
14415.983956047185,-32768.0
14415.984018544397,-32532.0
14415.98408104161,-32768.0
14415.98414353882,-29412.0
14415.984206036033,-6294.0
14415.984268533246,22029.0
14415.984331030459,32215.0
14415.984393527671,31716.0
14415.984456024884,31582.0
14415.984518522097,22511.0
14415.98458101931,7366.0
14415.984643516522,-3896.0
14415.984706013734,-12415.0
14415.984768510945,-18124.0
14415.984831008158,-20321.0
14415.98489350537,-15752.0
14415.984956002583,-7455.0
14415.985018499796,-2020.0
14415.985080997008,-2551.0
14415.985143494221,-5449.0
14415.985205991434,-6247.0
14415.985268488646,-4255.0
14415.985330985859,1529.0
14415.985393483072,10959.0
14415.985455980284,20389.0
14415.985518477495,24001.0
14415.985580974708,21905.0
14415.98564347192,17048.0
14415.985705969133,10501.0
14415.985768466346,1013.0
14415.985830963558,-8704.0
14415.985893460771,-14604.0
14415.985955957984,-15247.0
14415.986018455196,-11410.0
14415.986080952409,-4569.0
14415.98614344962,3276.0
14415.986205946832,8852.0
14415.986268444045,10315.0
14415.986330941258,8960.0
14415.98639343847,7409.0
14415.986455935683,7068.0
14415.986518432896,7246.0
14415.986580930108,9045.0
14415.98664342732,14105.0
14415.986705924533,19433.0
14415.986768421746,20928.0
14415.986830918959,17810.0
14415.98689341617,12558.0
14415.986955913382,5282.0
14415.987018410595,-1476.0
14415.987080907807,-4419.0
14415.98714340502,-3248.0
14415.987205902233,-193.0
14415.987268399445,3794.0
14415.987330896658,7662.0
14415.98739339387,9865.0
14415.987455891083,9840.0
14415.987518388294,7775.0
14415.987580885507,5142.0
14415.98764338272,3090.0
14415.987705879932,2539.0
14415.987768377145,2979.0
14415.987830874357,4122.0
14415.98789337157,4732.0
14415.987955868783,2931.0
14415.988018365995,-1386.0
14415.988080863208,-6321.0
14415.98814336042,-11104.0
14415.988205857633,-15386.0
14415.988268354844,-18093.0
14415.988330852057,-20028.0
14415.98839334927,-22432.0
14415.988455846482,-27136.0
14415.988518343695,-31866.0
14415.988580840907,-32768.0
14415.98864333812,-32103.0
14415.988705835332,-32768.0
14415.988768332545,-29925.0
14415.988830829756,1131.0
14415.988893326969,29786.0
14415.988955824181,32044.0
14415.989018321394,31474.0
14415.989080818606,32546.0
14415.98914331582,20120.0
14415.989205813032,2449.0
14415.989268310244,-9443.0
14415.989330807457,-18352.0
14415.98939330467,-23879.0
14415.989455801882,-23188.0
14415.989518299095,-13197.0
14415.989580796308,-2483.0
14415.989643293518,1990.0
14415.989705790731,-1287.0
14415.989768287944,-5456.0
14415.989830785156,-7552.0
14415.989893282369,-5678.0
14415.989955779582,1540.0
14415.990018276794,13619.0
14415.990080774007,23508.0
14415.99014327122,25907.0
14415.99020576843,23122.0
14415.990268265643,17844.0
14415.990330762856,9309.0
14415.990393260068,-2865.0
14415.99045575728,-13149.0
14415.990518254494,-17843.0
14415.990580751706,-16456.0
14415.990643248919,-10386.0
14415.990705746131,-1081.0
14415.990768243344,8058.0
14415.990830740557,13021.0
14415.99089323777,12736.0
14415.990955734982,9931.0
14415.991018232193,7523.0
14415.991080729405,6120.0
14415.991143226618,5829.0
14415.99120572383,7221.0
14415.991268221043,9363.0
14415.991330718256,12052.0
14415.991393215469,15566.0
14415.991455712681,18064.0
14415.991518209894,17052.0
14415.991580707105,11916.0
14415.991643204317,6044.0
14415.99170570153,1168.0
14415.991768198743,-704.0
14415.991830695955,842.0
14415.991893193168,4221.0
14415.99195569038,6865.0
14415.992018187593,7636.0
14415.992080684806,7257.0
14415.992143182018,6527.0
14415.992205679231,5965.0
14415.992268176444,4612.0
14415.992330673656,3591.0
14415.992393170867,3567.0
14415.99245566808,4855.0
14415.992518165292,5542.0
14415.992580662505,5063.0
14415.992643159718,2992.0
14415.99270565693,-1253.0
14415.992768154143,-7276.0
14415.992830651356,-12343.0
14415.992893148568,-15514.0
14415.99295564578,-17353.0
14415.993018142992,-19105.0
14415.993080640204,-21558.0
14415.993143137417,-26063.0
14415.99320563463,-31494.0
14415.993268131842,-32768.0
14415.993330629055,-32249.0
14415.993393126268,-32768.0
14415.99345562348,-30960.0
14415.993518120693,-8474.0
14415.993580617906,20197.0
14415.993643115118,31763.0
14415.993705612329,31804.0
14415.993768109542,32109.0
14415.993830606754,23593.0
14415.993893103967,7766.0
14415.99395560118,-6037.0
14415.994018098392,-16124.0
14415.994080595605,-22354.0
14415.994143092817,-21633.0
14415.99420559003,-13861.0
14415.994268087243,-4619.0
14415.994330584454,520.0
14415.994393081666,-364.0
14415.994455578879,-3251.0
14415.994518076091,-5713.0
14415.994580573304,-4828.0
14415.994643070517,774.0
14415.99470556773,10590.0
14415.994768064942,19095.0
14415.994830562155,23120.0
14415.994893059367,22334.0
14415.99495555658,18106.0
14415.995018053793,10242.0
14415.995080551003,-226.0
14415.995143048216,-9709.0
14415.995205545429,-14825.0
14415.995268042641,-14446.0
14415.995330539854,-9280.0
14415.995393037067,-1214.0
14415.99545553428,6670.0
14415.995518031492,11482.0
14415.995580528705,12360.0
14415.995643025917,10608.0
14415.995705523128,8298.0
14415.99576802034,6491.0
14415.995830517553,5908.0
14415.995893014766,6778.0
14415.995955511979,8637.0
14415.996018009191,12252.0
14415.996080506404,16239.0
14415.996143003616,18024.0
14415.99620550083,15756.0
14415.996267998042,11472.0
14415.996330495254,6912.0
14415.996392992467,3191.0
14415.996455489678,1812.0
14415.99651798689,3041.0
14415.996580484103,5259.0
14415.996642981316,6747.0
14415.996705478528,7386.0
14415.996767975741,7176.0
14415.996830472954,6665.0
14415.996892970166,5282.0
14415.996955467379,3734.0
14415.997017964592,2950.0
14415.997080461802,3703.0
14415.997142959015,5049.0
14415.997205456228,5950.0
14415.99726795344,5708.0
14415.997330450653,3648.0
14415.997392947866,-767.0
14415.997455445078,-6164.0
14415.99751794229,-10733.0
14415.997580439504,-14163.0
14415.997642936716,-16584.0
14415.997705433929,-18616.0
14415.997767931141,-20550.0
14415.997830428352,-23701.0
14415.997892925565,-29566.0
14415.997955422778,-32768.0
14415.99801791999,-32722.0
14415.998080417203,-32500.0
14415.998142914415,-32768.0
14415.998205411628,-23560.0
14415.99826790884,563.0
14415.998330406053,22950.0
14415.998392903266,31930.0
14415.998455400477,32227.0
14415.99851789769,29171.0
14415.998580394902,17639.0
14415.998642892115,3183.0
14415.998705389327,-9017.0
14415.99876788654,-17445.0
14415.998830383753,-20289.0
14415.998892880965,-16891.0
14415.998955378178,-10467.0
14415.99901787539,-4192.0
14415.999080372603,-1701.0
14415.999142869816,-2104.0
14415.999205367027,-3794.0
14415.99926786424,-3877.0
14415.999330361452,-688.0
14415.999392858665,6155.0
14415.999455355877,14053.0
14415.99951785309,19672.0
14415.999580350302,21317.0
14415.999642847515,18908.0
14415.999705344728,13072.0
14415.999767841939,4496.0
14415.999830339151,-3989.0
14415.999892836364,-9973.0
14415.999955333577,-11840.0
14416.00001783079,-9716.0
14416.000080328002,-4323.0
14416.000142825214,2369.0
14416.000205322427,8025.0
14416.00026781964,10962.0
14416.000330316852,11075.0
14416.000392814065,9581.0
14416.000455311278,7845.0
14416.00051780849,6998.0
14416.000580305701,7421.0
14416.000642802914,9024.0
14416.000705300126,10794.0
14416.000767797339,12197.0
14416.000830294552,14449.0
14416.000892791764,16353.0
14416.000955288977,16421.0
14416.00101778619,13604.0
14416.001080283402,10028.0
14416.001142780613,6410.0
14416.001205277826,4087.0
14416.001267775038,3951.0
14416.001330272251,5176.0
14416.001392769464,6106.0
14416.001455266676,5874.0
14416.001517763889,5401.0
14416.001580261101,5025.0
14416.001642758314,4994.0
14416.001705255527,4757.0
14416.00176775274,4834.0
14416.001830249952,5065.0
14416.001892747165,5555.0
14416.001955244375,5480.0
14416.002017741588,4715.0
14416.0020802388,2473.0
14416.002142736013,-1752.0
14416.002205233226,-7140.0
14416.002267730439,-11657.0
14416.002330227651,-14793.0
14416.002392724864,-17279.0
14416.002455222077,-19492.0
14416.002517719287,-21964.0
14416.0025802165,-26863.0
14416.002642713713,-31937.0
14416.002705210925,-32768.0
14416.002767708138,-32607.0
14416.00283020535,-32745.0
14416.002892702563,-32768.0
14416.002955199776,-22647.0
14416.003017696989,-1634.0
14416.003080194201,17579.0
14416.003142691414,29645.0
14416.003205188626,32348.0
14416.00326768584,27834.0
14416.00333018305,16636.0
14416.003392680263,3691.0
14416.003455177475,-7805.0
14416.003517674688,-14890.0
14416.0035801719,-16972.0
14416.003642669113,-14692.0
14416.003705166326,-9808.0
14416.003767663538,-5142.0
14416.003830160751,-2480.0
14416.003892657962,-2314.0
14416.003955155174,-2569.0
14416.004017652387,-1870.0
14416.0040801496,1396.0
14416.004142646812,6280.0
14416.004205144025,12492.0
14416.004267641238,17452.0
14416.00433013845,19462.0
14416.004392635663,17351.0
14416.004455132876,12181.0
14416.004517630088,4989.0
14416.0045801273,-2238.0
14416.004642624512,-7640.0
14416.004705121724,-9426.0
14416.004767618937,-7460.0
14416.00483011615,-2984.0
14416.004892613362,2476.0
14416.004955110575,7203.0
14416.005017607788,10175.0
14416.005080105,10766.0
14416.005142602213,9762.0
14416.005205099425,8449.0
14416.005267596636,7923.0
14416.005330093849,8130.0
14416.005392591062,9490.0
14416.005455088274,12438.0
14416.005517585487,15449.0
14416.0055800827,16361.0
14416.005642579912,14870.0
14416.005705077125,12631.0
14416.005767574337,9613.0
14416.00583007155,6547.0
14416.005892568763,4797.0
14416.005955065975,4811.0
14416.006017563186,5752.0
14416.006080060399,6621.0
14416.006142557611,7350.0
14416.006205054824,7632.0
14416.006267552037,7040.0
14416.00633004925,5587.0
14416.006392546462,4369.0
14416.006455043675,4169.0
14416.006517540887,5002.0
14416.0065800381,5833.0
14416.00664253531,6274.0
14416.006705032523,5823.0
14416.006767529736,3565.0
14416.006830026949,-435.0
14416.006892524161,-4852.0
14416.006955021374,-8908.0
14416.007017518587,-12171.0
14416.0070800158,-14370.0
14416.007142513012,-15497.0
14416.007205010224,-16087.0
14416.007267507437,-17830.0
14416.00733000465,-22272.0
14416.00739250186,-29075.0
14416.007454999073,-32768.0
14416.007517496286,-32768.0
14416.007579993498,-32504.0
14416.007642490711,-32768.0
14416.007704987924,-30987.0
14416.007767485136,-17579.0
14416.007829982349,403.0
14416.007892479562,16683.0
14416.007954976774,26814.0
14416.008017473985,27992.0
14416.008079971198,22119.0
14416.00814246841,12361.0
14416.008204965623,2052.0
14416.008267462836,-6355.0
14416.008329960048,-10787.0
14416.008392457261,-12119.0
14416.008454954474,-10601.0
14416.008517451686,-7945.0
14416.008579948899,-4814.0
14416.008642446111,-3104.0
14416.008704943324,-2447.0
14416.008767440535,-2700.0
14416.008829937748,-1340.0
14416.00889243496,2028.0
14416.008954932173,6901.0
14416.009017429385,12162.0
14416.009079926598,16340.0
14416.00914242381,17639.0
14416.009204921023,15232.0
14416.009267418236,10404.0
14416.009329915449,4527.0
14416.00939241266,-1024.0
14416.009454909872,-5223.0
14416.009517407085,-6576.0
14416.009579904297,-4948.0
14416.00964240151,-1087.0
14416.009704898723,3292.0
14416.009767395935,7121.0
14416.009829893148,9308.0
14416.00989239036,9745.0
14416.009954887573,9037.0
14416.010017384786,8338.0
14416.010079881999,8284.0
14416.01014237921,8824.0
14416.010204876422,10669.0
14416.010267373635,13598.0
14416.010329870847,16060.0
14416.01039236806,16360.0
14416.010454865273,14769.0
14416.010517362485,12496.0
14416.010579859698,9584.0
14416.01064235691,7008.0
14416.010704854123,5356.0
14416.010767351334,5190.0
14416.010829848547,5588.0
14416.01089234576,6354.0
14416.010954842972,7057.0
14416.011017340184,7300.0
14416.011079837397,6580.0
14416.01114233461,5333.0
14416.011204831822,4396.0
14416.011267329035,4139.0
14416.011329826248,4499.0
14416.01139232346,4930.0
14416.011454820673,5266.0
14416.011517317884,4661.0
14416.011579815096,2457.0
14416.011642312309,-1018.0
14416.011704809522,-4716.0
14416.011767306734,-8295.0
14416.011829803947,-11361.0
14416.01189230116,-13734.0
14416.011954798372,-15448.0
14416.012017295585,-17067.0
14416.012079792796,-19942.0
14416.012142290008,-23894.0
14416.012204787221,-28937.0
14416.012267284434,-32498.0
14416.012329781646,-32768.0
14416.012392278859,-32576.0
14416.012454776072,-32768.0
14416.012517273284,-32439.0
14416.012579770497,-22505.0
14416.01264226771,-5409.0
14416.012704764922,11546.0
14416.012767262135,23254.0
14416.012829759347,27556.0
14416.012892256558,24776.0
14416.01295475377,16698.0
14416.013017250983,6527.0
14416.013079748196,-3165.0
14416.013142245409,-9896.0
14416.013204742621,-13447.0
14416.013267239834,-12661.0
14416.013329737047,-9720.0
14416.01339223426,-5893.0
14416.01345473147,-3615.0
14416.013517228683,-2602.0
14416.013579725895,-2718.0
14416.013642223108,-1731.0
14416.01370472032,1314.0
14416.013767217533,6025.0
14416.013829714746,11492.0
14416.013892211959,16073.0
14416.013954709171,18140.0
14416.014017206384,16792.0
14416.014079703597,12926.0
14416.01414220081,7035.0
14416.014204698022,789.0
14416.014267195233,-4263.0
14416.014329692445,-6468.0
14416.014392189658,-5520.0
14416.01445468687,-2083.0
14416.014517184083,2497.0
14416.014579681296,6479.0
14416.014642178508,9097.0
14416.014704675721,10054.0
14416.014767172934,9753.0
14416.014829670145,9091.0
14416.014892167357,8805.0
14416.01495466457,9270.0
14416.015017161782,11220.0
14416.015079658995,14206.0
14416.015142156208,16268.0
14416.01520465342,16268.0
14416.015267150633,14661.0
14416.015329647846,12291.0
14416.015392145058,9178.0
14416.015454642271,6711.0
14416.015517139484,5519.0
14416.015579636694,5517.0
14416.015642133907,6095.0
14416.01570463112,7213.0
14416.015767128332,7959.0
14416.015829625545,7920.0
14416.015892122758,6701.0
14416.01595461997,4927.0
14416.016017117183,3529.0
14416.016079614395,3125.0
14416.016142111608,3552.0
14416.016204608819,4313.0
14416.016267106032,4765.0
14416.016329603244,4000.0
14416.016392100457,1705.0
14416.01645459767,-1595.0
14416.016517094882,-5344.0
14416.016579592095,-9291.0
14416.016642089307,-12885.0
14416.01670458652,-15444.0
14416.016767083733,-16796.0
14416.016829580945,-17437.0
14416.016892078158,-18817.0
14416.016954575369,-21284.0
14416.017017072581,-25365.0
14416.017079569794,-30783.0
14416.017142067007,-32768.0
14416.01720456422,-32740.0
14416.017267061432,-32584.0
14416.017329558645,-32768.0
14416.017392055857,-28012.0
14416.01745455307,-12064.0
14416.017517050283,5420.0
14416.017579547493,19607.0
14416.017642044706,26624.0
14416.017704541919,25620.0
14416.017767039131,19196.0
14416.017829536344,9614.0
14416.017892033557,-308.0
14416.01795453077,-8301.0
14416.018017027982,-11591.0
14416.018079525194,-11601.0
14416.018142022407,-9276.0
14416.01820451962,-6394.0
14416.018267016832,-3703.0
14416.018329514043,-2888.0
14416.018392011256,-2978.0
14416.018454508468,-2442.0
14416.018517005681,218.0
14416.018579502894,4455.0
14416.018642000106,9396.0
14416.018704497319,14322.0
14416.018766994532,17509.0
14416.018829491744,17528.0
14416.018891988957,14235.0
14416.018954486168,9027.0
14416.01901698338,3034.0
14416.019079480593,-2399.0
14416.019141977806,-5764.0
14416.019204475018,-5498.0
14416.019266972231,-2505.0
14416.019329469444,1709.0
14416.019391966656,5747.0
14416.019454463869,8912.0
14416.019516961082,10435.0
14416.019579458294,10394.0
14416.019641955507,9745.0
14416.019704452718,10090.0
14416.01976694993,11680.0
14416.019829447143,13723.0
14416.019891944356,14822.0
14416.019954441568,14786.0
14416.02001693878,13687.0
14416.020079435993,11940.0
14416.020141933206,10113.0
14416.020204430419,8498.0
14416.020266927631,7179.0
14416.020329424842,6277.0
14416.020391922055,6499.0
14416.020454419267,7464.0
14416.02051691648,8493.0
14416.020579413693,8522.0
14416.020641910905,7547.0
14416.020704408118,5790.0
14416.02076690533,4308.0
14416.020829402543,3756.0
14416.020891899756,4052.0
14416.020954396969,4605.0
14416.021016894181,4988.0
14416.021079391392,4434.0
14416.021141888605,2948.0
14416.021204385817,637.0
14416.02126688303,-2198.0
14416.021329380243,-5142.0
14416.021391877455,-8002.0
14416.021454374668,-10472.0
14416.02151687188,-12329.0
14416.021579369093,-13406.0
14416.021641866306,-14626.0
14416.021704363517,-17108.0
14416.02176686073,-20645.0
14416.021829357942,-24020.0
14416.021891855155,-27496.0
14416.021954352367,-31400.0
14416.02201684958,-32768.0
14416.022079346792,-32768.0
14416.022141844005,-32529.0
14416.022204341218,-32768.0
14416.02226683843,-27831.0
14416.022329335643,-11284.0
14416.022391832856,5950.0
14416.022454330066,18805.0
14416.02251682728,24722.0
14416.022579324492,24480.0
14416.022641821704,19021.0
14416.022704318917,10028.0
14416.02276681613,-145.0
14416.022829313342,-8076.0
14416.022891810555,-11959.0
14416.022954307768,-12026.0
14416.023016804978,-8926.0
14416.023079302191,-5203.0
14416.023141799404,-2494.0
14416.023204296616,-1796.0
14416.023266793829,-1958.0
14416.023329291042,-1624.0
14416.023391788254,774.0
14416.023454285467,4564.0
14416.02351678268,9017.0
14416.023579279892,13167.0
14416.023641777105,15919.0
14416.023704274317,15754.0
14416.02376677153,12607.0
14416.02382926874,7697.0
14416.023891765954,2018.0
14416.023954263166,-2800.0
14416.024016760379,-5066.0
14416.024079257591,-4196.0
14416.024141754804,-1094.0
14416.024204252017,3164.0
14416.02426674923,7143.0
14416.024329246442,9771.0
14416.024391743653,10691.0
14416.024454240865,10381.0
14416.024516738078,9677.0
14416.02457923529,9691.0
14416.024641732503,10920.0
14416.024704229716,12723.0
14416.024766726929,13985.0
14416.024829224141,14393.0
14416.024891721354,13530.0
14416.024954218567,11860.0
14416.02501671578,10370.0
14416.025079212992,9216.0
14416.025141710204,8343.0
14416.025204207415,7774.0
14416.025266704628,7839.0
14416.02532920184,8142.0
14416.025391699053,8339.0
14416.025454196266,8074.0
14416.025516693478,7133.0
14416.025579190691,5480.0
14416.025641687904,3771.0
14416.025704185116,2912.0
14416.025766682327,3152.0
14416.02582917954,4111.0
14416.025891676753,4808.0
14416.025954173965,4574.0
14416.026016671178,3258.0
14416.02607916839,1052.0
14416.026141665603,-1826.0
14416.026204162816,-4769.0
14416.026266660028,-7580.0
14416.026329157241,-10302.0
14416.026391654454,-12604.0
14416.026454151666,-14392.0
14416.026516648877,-16340.0
14416.02657914609,-18845.0
14416.026641643302,-21195.0
14416.026704140515,-23234.0
14416.026766637728,-25943.0
14416.02682913494,-30350.0
14416.026891632153,-32768.0
14416.026954129366,-32761.0
14416.027016626578,-32590.0
14416.02707912379,-32768.0
14416.027141621002,-28065.0
14416.027204118214,-13707.0
14416.027266615427,1323.0
14416.02732911264,13373.0
14416.027391609852,21072.0
14416.027454107065,21720.0
14416.027516604277,17282.0
14416.02757910149,9384.0
14416.027641598703,862.0
14416.027704095915,-6054.0
14416.027766593128,-9792.0
14416.02782909034,-10085.0
14416.027891587551,-8145.0
14416.027954084764,-5698.0
14416.028016581977,-3968.0
14416.02807907919,-2977.0
14416.028141576402,-2683.0
14416.028204073615,-1915.0
14416.028266570827,-187.0
14416.02832906804,3409.0
14416.028391565253,7583.0
14416.028454062465,11473.0
14416.028516559676,14123.0
14416.028579056889,14710.0
14416.028641554101,12666.0
14416.028704051314,8712.0
14416.028766548527,3932.0
14416.02882904574,-407.0
14416.028891542952,-2878.0
14416.028954040165,-2985.0
14416.029016537377,-578.0
14416.02907903459,2893.0
14416.029141531802,6384.0
14416.029204029015,8696.0
14416.029266526226,9799.0
14416.029329023439,9799.0
14416.029391520651,9302.0
14416.029454017864,9070.0
14416.029516515076,9822.0
14416.02957901229,11751.0
14416.029641509502,13815.0
14416.029704006714,15504.0
14416.029766503927,16111.0
14416.02982900114,15405.0
14416.02989149835,13271.0
14416.029953995563,10765.0
14416.030016492776,8883.0
14416.030078989988,7694.0
14416.030141487201,7080.0
14416.030203984414,7149.0
14416.030266481626,7407.0
14416.030328978839,7429.0
14416.030391476052,6764.0
14416.030453973264,5572.0
14416.030516470477,4416.0
14416.03057896769,3683.0
14416.0306414649,3661.0
14416.030703962113,4345.0
14416.030766459326,5226.0
14416.030828956538,5546.0
14416.03089145375,4480.0
14416.030953950964,2207.0
14416.031016448176,-815.0
14416.031078945389,-4417.0
14416.031141442601,-8241.0
14416.031203939814,-11653.0
14416.031266437025,-14036.0
14416.031328934238,-15094.0
14416.03139143145,-15662.0
14416.031453928663,-16184.0
14416.031516425875,-17017.0
14416.031578923088,-19027.0
14416.0316414203,-22532.0
14416.031703917513,-28368.0
14416.031766414726,-32508.0
14416.031828911939,-32768.0
14416.031891409151,-32677.0
14416.031953906364,-32741.0
14416.032016403575,-32768.0
14416.032078900787,-24931.0
14416.032141398,-8479.0
14416.032203895213,6084.0
14416.032266392425,15734.0
14416.032328889638,19564.0
14416.03239138685,18435.0
14416.032453884063,14263.0
14416.032516381276,7908.0
14416.032578878488,1271.0
14416.0326413757,-3348.0
14416.032703872912,-5195.0
14416.032766370125,-5004.0
14416.032828867337,-4012.0
14416.03289136455,-3096.0
14416.032953861763,-3568.0
14416.033016358975,-4795.0
14416.033078856188,-5518.0
14416.0331413534,-4126.0
14416.033203850613,-592.0
14416.033266347826,4526.0
14416.033328845038,9576.0
14416.03339134225,13439.0
14416.033453839462,15312.0
14416.033516336674,14750.0
14416.033578833887,11710.0
14416.0336413311,6964.0
14416.033703828312,2344.0
14416.033766325525,-937.0
14416.033828822738,-1902.0
14416.03389131995,-552.0
14416.033953817161,2286.0
14416.034016314374,5365.0
14416.034078811586,7412.0
14416.034141308799,8161.0
14416.034203806012,8046.0
14416.034266303224,7920.0
14416.034328800437,8444.0
14416.03439129765,10056.0
14416.034453794862,12263.0
14416.034516292075,14043.0
14416.034578789287,14659.0
14416.0346412865,14379.0
14416.034703783713,13197.0
14416.034766280924,11442.0
14416.034828778136,9860.0
14416.034891275349,8872.0
14416.034953772561,8416.0
14416.035016269774,8527.0
14416.035078766987,9105.0
14416.0351412642,9373.0
14416.035203761412,8866.0
14416.035266258625,7767.0
14416.035328755836,6407.0
14416.035391253048,5125.0
14416.03545375026,4171.0
14416.035516247473,3694.0
14416.035578744686,3777.0
14416.035641241899,3977.0
14416.035703739111,3586.0
14416.035766236324,2331.0
14416.035828733537,495.0
14416.03589123075,-1678.0
14416.035953727962,-3969.0
14416.036016225175,-5927.0
14416.036078722387,-7407.0
14416.036141219598,-8799.0
14416.03620371681,-10433.0
14416.036266214023,-12218.0
14416.036328711236,-14395.0
14416.036391208449,-16792.0
14416.036453705661,-19132.0
14416.036516202874,-21579.0
14416.036578700086,-24112.0
14416.0366411973,-28531.0
14416.03670369451,-32381.0
14416.036766191723,-32768.0
14416.036828688935,-32729.0
14416.036891186148,-32680.0
14416.03695368336,-32768.0
14416.037016180573,-27306.0
14416.037078677786,-11994.0
14416.037141174998,3618.0
14416.037203672211,16445.0
14416.037266169424,23696.0
14416.037328666636,24040.0
14416.037391163849,18860.0
14416.037453661062,9646.0
14416.037516158272,122.0
14416.037578655485,-7207.0
14416.037641152698,-10640.0
14416.03770364991,-11045.0
14416.037766147123,-9055.0
14416.037828644336,-6827.0
14416.037891141548,-5002.0
14416.03795363876,-4395.0
14416.038016135974,-3858.0
14416.038078633184,-2783.0
14416.038141130397,165.0
14416.03820362761,4407.0
14416.038266124822,9011.0
14416.038328622035,13079.0
14416.038391119248,15864.0
14416.03845361646,16053.0
14416.038516113673,13172.0
14416.038578610885,8336.0
14416.038641108098,3032.0
14416.03870360531,-1047.0
14416.038766102523,-3115.0
14416.038828599734,-2618.0
14416.038891096947,224.0
14416.03895359416,4012.0
14416.039016091372,7064.0
14416.039078588585,8895.0
14416.039141085797,9828.0
14416.03920358301,9917.0
14416.039266080223,9205.0
14416.039328577435,8796.0
14416.039391074648,9762.0
14416.039453571859,11604.0
14416.039516069071,13233.0
14416.039578566284,14318.0
14416.039641063497,15008.0
14416.03970356071,14797.0
14416.039766057922,12968.0
14416.039828555135,10634.0
14416.039891052347,9128.0
14416.03995354956,8650.0
14416.040016046773,8875.0
14416.040078543985,9263.0
14416.040141041198,9493.0
14416.040203538409,9002.0
14416.040266035621,7660.0
14416.040328532834,5936.0
14416.040391030047,4222.0
14416.04045352726,2862.0
14416.040516024472,2146.0
14416.040578521684,2180.0
14416.040641018897,2865.0
14416.04070351611,3631.0
14416.040766013322,3451.0
14416.040828510533,2050.0
14416.040891007746,-801.0
14416.040953504958,-4533.0
14416.041016002171,-8499.0
14416.041078499384,-11949.0
14416.041140996596,-14296.0
14416.041203493809,-15468.0
14416.041265991022,-15929.0
14416.041328488234,-16042.0
14416.041390985447,-16253.0
14416.04145348266,-17334.0
14416.041515979872,-19947.0
14416.041578477083,-25290.0
14416.041640974296,-31264.0
14416.041703471508,-32768.0
14416.041765968721,-32768.0
14416.041828465934,-32567.0
14416.041890963146,-32768.0
14416.041953460359,-30262.0
14416.042015957571,-16333.0
14416.042078454784,299.0
14416.042140951997,13370.0
14416.042203449208,21450.0
14416.04226594642,22634.0
14416.042328443633,18545.0
14416.042390940846,10249.0
14416.042453438058,1376.0
14416.04251593527,-5118.0
14416.042578432483,-8248.0
14416.042640929696,-8680.0
14416.042703426909,-7504.0
14416.042765924121,-5961.0
14416.042828421334,-5495.0
14416.042890918547,-5816.0
14416.042953415757,-6114.0
14416.04301591297,-5195.0
14416.043078410183,-2644.0
14416.043140907395,1861.0
14416.043203404608,7424.0
14416.04326590182,12634.0
14416.043328399033,15960.0
14416.043390896246,16521.0
14416.043453393459,14299.0
14416.043515890671,9982.0
14416.043578387882,4745.0
14416.043640885095,362.0
14416.043703382307,-1717.0
14416.04376587952,-1754.0
14416.043828376733,137.0
14416.043890873945,3171.0
14416.043953371158,6046.0
14416.04401586837,7829.0
14416.044078365583,8516.0
14416.044140862796,8756.0
14416.044203360008,9012.0
14416.044265857221,9622.0
14416.044328354432,10665.0
14416.044390851644,12311.0
14416.044453348857,13914.0
14416.04451584607,14893.0
14416.044578343282,14771.0
14416.044640840495,14235.0
14416.044703337708,13309.0
14416.04476583492,11806.0
14416.044828332133,10151.0
14416.044890829344,9023.0
14416.044953326556,8548.0
14416.045015823769,8365.0
14416.045078320982,8348.0
14416.045140818194,8042.0
14416.045203315407,7161.0
14416.04526581262,5789.0
14416.045328309832,4428.0
14416.045390807045,3651.0
14416.045453304258,3640.0
14416.04551580147,3774.0
14416.045578298683,3754.0
14416.045640795895,3598.0
14416.045703293106,2907.0
14416.045765790319,1607.0
14416.045828287532,-347.0
14416.045890784744,-2753.0
14416.045953281957,-5778.0
14416.04601577917,-9040.0
14416.046078276382,-12044.0
14416.046140773595,-14220.0
14416.046203270807,-15955.0
14416.046265768018,-17215.0
14416.04632826523,-18298.0
14416.046390762443,-19084.0
14416.046453259656,-20654.0
14416.046515756869,-23641.0
14416.046578254081,-28288.0
14416.046640751294,-32316.0
14416.046703248507,-32768.0
14416.04676574572,-32634.0
14416.046828242932,-32768.0
14416.046890740145,-32768.0
14416.046953237357,-25513.0
14416.04701573457,-10438.0
14416.04707823178,4356.0
14416.047140728993,16374.0
14416.047203226206,22758.0
14416.047265723419,21805.0
14416.047328220631,15646.0
14416.047390717844,6792.0
14416.047453215057,-2025.0
14416.04751571227,-8604.0
14416.047578209482,-11510.0
14416.047640706693,-10833.0
14416.047703203905,-8505.0
14416.047765701118,-6202.0
14416.04782819833,-4845.0
14416.047890695543,-4262.0
14416.047953192756,-3851.0
14416.048015689968,-2693.0
14416.048078187181,-52.0
14416.048140684394,4228.0
14416.048203181606,9103.0
14416.048265678819,13161.0
14416.048328176032,15674.0
14416.048390673244,15716.0
14416.048453170455,13042.0
14416.048515667668,8302.0
14416.04857816488,3172.0
14416.048640662093,-788.0
14416.048703159306,-2546.0
14416.048765656518,-1803.0
14416.048828153731,885.0
14416.048890650944,4386.0
14416.048953148156,7385.0
14416.049015645367,9406.0
14416.04907814258,10413.0
14416.049140639792,10756.0
14416.049203137005,10539.0
14416.049265634218,10417.0
14416.04932813143,10732.0
14416.049390628643,11699.0
14416.049453125856,12637.0
14416.049515623068,13534.0
14416.04957812028,13795.0
14416.049640617493,13493.0
14416.049703114706,12907.0
14416.049765611917,11995.0
14416.04982810913,10897.0
14416.049890606342,9512.0
14416.049953103555,8604.0
14416.050015600767,7975.0
14416.05007809798,7616.0
14416.050140595193,7096.0
14416.050203092405,6448.0
14416.050265589618,5541.0
14416.05032808683,4671.0
14416.050390584041,4012.0
14416.050453081254,3641.0
14416.050515578467,3443.0
14416.05057807568,3180.0
14416.050640572892,2648.0
14416.050703070105,1734.0
14416.050765567317,513.0
14416.05082806453,-1319.0
14416.050890561743,-3526.0
14416.050953058955,-6259.0
14416.051015556168,-9272.0
14416.05107805338,-12346.0
14416.051140550591,-14805.0
14416.051203047804,-16715.0
14416.051265545017,-18005.0
14416.05132804223,-18420.0
14416.051390539442,-18730.0
14416.051453036654,-20094.0
14416.051515533867,-23686.0
14416.05157803108,-29425.0
14416.051640528292,-32768.0
14416.051703025505,-32768.0
14416.051765522716,-32606.0
14416.051828019929,-32768.0
14416.051890517141,-32498.0
14416.051953014354,-23121.0
14416.052015511566,-8301.0
14416.052078008779,4628.0
14416.052140505992,14169.0
14416.052203003204,19154.0
14416.052265500417,19165.0
14416.05232799763,14549.0
14416.052390494842,7053.0
14416.052452992055,135.0
14416.052515489266,-3988.0
14416.052577986478,-5243.0
14416.052640483691,-4717.0
14416.052702980904,-3854.0
14416.052765478116,-3798.0
14416.052827975329,-4867.0
14416.052890472542,-5745.0
14416.052952969754,-5471.0
14416.053015466967,-3151.0
14416.05307796418,733.0
14416.05314046139,5467.0
14416.053202958603,10271.0
14416.053265455816,14559.0
14416.053327953028,16794.0
14416.05339045024,16225.0
14416.053452947453,12787.0
14416.053515444666,7838.0
14416.053577941879,3066.0
14416.053640439091,88.0
14416.053702936304,-503.0
14416.053765433517,844.0
14416.05382793073,3233.0
14416.05389042794,5773.0
14416.053952925153,7546.0
14416.054015422365,8526.0
14416.054077919578,8929.0
14416.05414041679,9090.0
14416.054202914003,9034.0
14416.054265411216,9244.0
14416.054327908429,9898.0
14416.054390405641,11112.0
14416.054452902854,12244.0
14416.054515400065,12876.0
14416.054577897277,12915.0
14416.05464039449,12393.0
14416.054702891703,11804.0
14416.054765388915,11437.0
14416.054827886128,11499.0
14416.05489038334,11211.0
14416.054952880553,10369.0
14416.055015377766,9155.0
14416.055077874978,7883.0
14416.055140372191,6454.0
14416.055202869404,5240.0
14416.055265366615,4246.0
14416.055327863827,3704.0
14416.05539036104,3577.0
14416.055452858252,3890.0
14416.055515355465,4312.0
14416.055577852678,4363.0
14416.05564034989,3661.0
14416.055702847103,1903.0
14416.055765344316,-323.0
14416.055827841528,-2686.0
14416.05589033874,-4923.0
14416.055952835952,-7246.0
14416.056015333164,-9491.0
14416.056077830377,-11761.0
14416.05614032759,-14173.0
14416.056202824802,-16502.0
14416.056265322015,-18334.0
14416.056327819228,-19191.0
14416.05639031644,-19835.0
14416.056452813653,-21203.0
14416.056515310866,-24316.0
14416.056577808078,-29576.0
14416.056640305289,-32768.0
14416.056702802502,-32768.0
14416.056765299714,-32514.0
14416.056827796927,-32768.0
14416.05689029414,-31391.0
14416.056952791352,-19372.0
14416.057015288565,-3583.0
14416.057077785777,9721.0
14416.05714028299,18718.0
14416.0572027802,20803.0
14416.057265277414,17382.0
14416.057327774626,9795.0
14416.057390271839,351.0
14416.057452769051,-7393.0
14416.057515266264,-10698.0
14416.057577763477,-10287.0
14416.05764026069,-7920.0
14416.057702757902,-5152.0
14416.057765255115,-3598.0
14416.057827752327,-3884.0
14416.05789024954,-4520.0
14416.057952746753,-3991.0
14416.058015243963,-1726.0
14416.058077741176,2149.0
14416.058140238389,7190.0
14416.058202735601,12251.0
14416.058265232814,16303.0
14416.058327730027,17875.0
14416.05839022724,16383.0
14416.058452724452,11984.0
14416.058515221664,6181.0
14416.058577718875,916.0
14416.058640216088,-2074.0
14416.0587027133,-2066.0
14416.058765210513,300.0
14416.058827707726,3858.0
14416.058890204939,7527.0
14416.058952702151,10115.0
14416.059015199364,11215.0
14416.059077696576,10973.0
14416.059140193789,10074.0
14416.059202691002,9095.0
14416.059265188214,8844.0
14416.059327685427,10007.0
14416.059390182638,12012.0
14416.05945267985,13854.0
14416.059515177063,14558.0
14416.059577674276,14045.0
14416.059640171488,12787.0
14416.059702668701,11796.0
14416.059765165914,11066.0
14416.059827663126,10416.0
14416.059890160339,9790.0
14416.05995265755,9026.0
14416.060015154762,8316.0
14416.060077651975,7389.0
14416.060140149188,6720.0
14416.0602026464,5805.0
14416.060265143613,4814.0
14416.060327640826,4109.0
14416.060390138038,4008.0
14416.06045263525,4518.0
14416.060515132463,5052.0
14416.060577629676,4860.0
14416.060640126889,3574.0
14416.0607026241,1320.0
14416.060765121312,-1474.0
14416.060827618525,-4139.0
14416.060890115737,-6581.0
14416.06095261295,-8843.0
14416.061015110163,-11035.0
14416.061077607375,-12852.0
14416.061140104588,-14575.0
14416.0612026018,-16446.0
14416.061265099013,-18360.0
14416.061327596224,-19740.0
14416.061390093437,-21338.0
14416.06145259065,-23372.0
14416.061515087862,-26913.0
14416.061577585075,-31544.0
14416.061640082287,-32768.0
14416.0617025795,-32636.0
14416.061765076713,-32768.0
14416.061827573925,-32768.0
14416.061890071138,-26875.0
14416.06195256835,-13681.0
14416.062015065563,-1251.0
14416.062077562774,8767.0
14416.062140059987,14978.0
14416.0622025572,16456.0
14416.062265054412,14258.0
14416.062327551625,8747.0
14416.062390048837,2425.0
14416.06245254605,-3097.0
14416.062515043262,-5871.0
14416.062577540475,-6663.0
14416.062640037688,-5449.0
14416.062702534899,-4425.0
14416.062765032111,-3701.0
14416.062827529324,-3271.0
14416.062890026536,-2075.0
14416.06295252375,-604.0
14416.063015020962,2101.0
14416.063077518174,5843.0
14416.063140015387,10074.0
14416.0632025126,13428.0
14416.063265009812,15270.0
14416.063327507025,15160.0
14416.063390004238,13059.0
14416.063452501448,9378.0
14416.063514998661,4995.0
14416.063577495874,1560.0
14416.063639993086,151.0
14416.063702490299,863.0
14416.063764987512,2824.0
14416.063827484724,5501.0
14416.063889981937,8050.0
14416.06395247915,9746.0
14416.064014976362,10176.0
14416.064077473573,9960.0
14416.064139970786,9554.0
14416.064202467998,9459.0
14416.06426496521,9600.0
14416.064327462424,10227.0
14416.064389959636,11386.0
14416.064452456849,12660.0
14416.064514954061,13272.0
14416.064577451274,13031.0
14416.064639948487,12377.0
14416.0647024457,11643.0
14416.064764942912,10548.0
14416.064827440123,9546.0
14416.064889937335,8700.0
14416.064952434548,8135.0
14416.06501493176,7587.0
14416.065077428973,7156.0
14416.065139926186,6597.0
14416.065202423399,6022.0
14416.065264920611,5238.0
14416.065327417824,4612.0
14416.065389915037,4122.0
14416.065452412247,3964.0
14416.06551490946,3800.0
14416.065577406673,3294.0
14416.065639903885,2245.0
14416.065702401098,562.0
14416.06576489831,-1725.0
14416.065827395523,-4426.0
14416.065889892736,-7593.0
14416.065952389949,-10967.0
14416.066014887161,-13896.0
14416.066077384374,-15970.0
14416.066139881586,-17051.0
14416.066202378797,-17525.0
14416.06626487601,-17716.0
14416.066327373223,-18156.0
14416.066389870435,-19651.0
14416.066452367648,-23150.0
14416.06651486486,-29149.0
14416.066577362073,-32768.0
14416.066639859286,-32768.0
14416.066702356498,-32535.0
14416.066764853711,-32768.0
14416.066827350922,-31588.0
14416.066889848134,-20456.0
14416.066952345347,-5882.0
14416.06701484256,5889.0
14416.067077339772,13584.0
14416.067139836985,15693.0
14416.067202334198,13769.0
14416.06726483141,8822.0
14416.067327328623,2455.0
14416.067389825836,-3098.0
14416.067452323048,-5457.0
14416.06751482026,-5459.0
14416.067577317472,-4105.0
14416.067639814684,-2756.0
14416.067702311897,-1903.0
14416.06776480911,-2075.0
14416.067827306322,-2663.0
14416.067889803535,-2307.0
14416.067952300747,-75.0
14416.06801479796,3865.0
14416.068077295173,8238.0
14416.068139792384,12465.0
14416.068202289596,15644.0
14416.068264786809,16667.0
14416.068327284022,14826.0
14416.068389781234,10859.0
14416.068452278447,6070.0
14416.06851477566,2070.0
14416.068577272872,-138.0
14416.068639770085,45.0
14416.068702267297,2151.0
14416.06876476451,4942.0
14416.068827261723,7371.0
14416.068889758935,9101.0
14416.068952256146,9910.0
14416.069014753359,9989.0
14416.069077250571,9605.0
14416.069139747784,9459.0
14416.069202244997,9710.0
14416.06926474221,10338.0
14416.069327239422,11275.0
14416.069389736635,12034.0
14416.069452233847,12306.0
14416.069514731058,11733.0
14416.06957722827,10857.0
14416.069639725483,10200.0
14416.069702222696,10198.0
14416.069764719909,10484.0
14416.069827217121,10974.0
14416.069889714334,11189.0
14416.069952211546,10593.0
14416.07001470876,9412.0
14416.070077205972,7878.0
14416.070139703184,6460.0
14416.070202200397,4955.0
14416.07026469761,3795.0
14416.07032719482,3219.0
14416.070389692033,3316.0
14416.070452189246,3793.0
14416.070514686458,4010.0
14416.070577183671,3811.0
14416.070639680884,2943.0
14416.070702178096,1159.0
14416.070764675309,-1505.0
14416.070827172522,-4429.0
14416.070889669732,-7198.0
14416.070952166945,-9923.0
14416.071014664158,-12606.0
14416.07107716137,-15335.0
14416.071139658583,-17821.0
14416.071202155796,-19826.0
14416.071264653008,-20830.0
14416.07132715022,-21429.0
14416.071389647434,-22372.0
14416.071452144646,-25313.0
14416.071514641859,-30676.0
14416.071577139071,-32768.0
14416.071639636282,-32704.0
14416.071702133495,-32602.0
14416.071764630708,-32768.0
14416.07182712792,-28360.0
14416.071889625133,-13979.0
14416.071952122345,940.0
14416.072014619558,11498.0
14416.07207711677,16251.0
14416.072139613983,15070.0
14416.072202111196,11709.0
14416.072264608407,6254.0
14416.07232710562,-154.0
14416.072389602832,-4628.0
14416.072452100045,-5484.0
14416.072514597257,-4492.0
14416.07257709447,-2970.0
14416.072639591683,-1503.0
14416.072702088895,-1463.0
14416.072764586108,-2600.0
14416.07282708332,-3793.0
14416.072889580533,-2809.0
14416.072952077746,402.0
14416.073014574957,5340.0
14416.07307707217,10442.0
14416.073139569382,15020.0
14416.073202066595,17510.0
14416.073264563807,16953.0
14416.07332706102,13494.0
14416.073389558233,8857.0
14416.073452055445,4104.0
14416.073514552658,486.0
14416.07357704987,-731.0
14416.073639547081,703.0
14416.073702044294,3323.0
14416.073764541507,6270.0
14416.07382703872,8818.0
14416.073889535932,10353.0
14416.073952033144,10286.0
14416.074014530357,9425.0
14416.07407702757,8637.0
14416.074139524782,8480.0
14416.074202021995,9066.0
14416.074264519208,10574.0
14416.07432701642,12574.0
14416.074389513631,14017.0
14416.074452010844,14308.0
14416.074514508056,13189.0
14416.074577005269,11564.0
14416.074639502482,9829.0
14416.074701999694,8788.0
14416.074764496907,8287.0
14416.07482699412,8706.0
14416.074889491332,9130.0
14416.074951988545,9320.0
14416.075014485756,8987.0
14416.075076982968,8101.0
14416.075139480181,6727.0
14416.075201977394,4994.0
14416.075264474606,3504.0
14416.075326971819,2598.0
14416.075389469032,2384.0
14416.075451966244,2673.0
14416.075514463457,3050.0
14416.07557696067,2807.0
14416.075639457882,1792.0
14416.075701955095,-324.0
14416.075764452306,-3129.0
14416.075826949518,-6050.0
14416.07588944673,-8929.0
14416.075951943943,-11672.0
14416.076014441156,-13954.0
14416.076076938369,-15725.0
14416.076139435581,-17340.0
14416.076201932794,-19113.0
14416.076264430007,-20542.0
14416.07632692722,-22035.0
14416.07638942443,-24137.0
14416.076451921643,-29032.0
14416.076514418855,-32768.0
14416.076576916068,-32768.0
14416.07663941328,-32548.0
14416.076701910493,-32768.0
14416.076764407706,-31602.0
14416.076826904919,-20548.0
14416.076889402131,-4239.0
14416.076951899344,9250.0
14416.077014396556,18388.0
14416.07707689377,21846.0
14416.07713939098,19609.0
14416.077201888193,12749.0
14416.077264385405,2729.0
14416.077326882618,-6616.0
14416.07738937983,-11812.0
14416.077451877043,-11718.0
14416.077514374256,-8434.0
14416.077576871468,-4393.0
14416.077639368681,-1132.0
14416.077701865894,184.0
14416.077764363105,-453.0
14416.077826860317,-1152.0
14416.07788935753,63.0
14416.077951854742,2711.0
14416.078014351955,6771.0
14416.078076849168,11536.0
14416.07813934638,16034.0
14416.078201843593,18397.0
14416.078264340806,17879.0
14416.078326838018,14108.0
14416.07838933523,8184.0
14416.078451832444,2330.0
14416.078514329654,-1556.0
14416.078576826867,-2602.0
14416.07863932408,-721.0
14416.078701821292,3286.0
14416.078764318505,7428.0
14416.078826815718,10635.0
14416.07888931293,12209.0
14416.078951810143,12109.0
14416.079014307355,10801.0
14416.079076804566,9398.0
14416.079139301779,8486.0
14416.079201798992,8962.0
14416.079264296204,10507.0
14416.079326793417,12608.0
14416.07938929063,14101.0
14416.079451787842,14390.0
14416.079514285055,13192.0
14416.079576782267,10980.0
14416.07963927948,8796.0
14416.079701776693,7549.0
14416.079764273905,7420.0
14416.079826771118,8129.0
14416.079889268329,9086.0
14416.079951765541,9653.0
14416.080014262754,9448.0
14416.080076759967,8373.0
14416.08013925718,6464.0
14416.080201754392,4383.0
14416.080264251605,2770.0
14416.080326748817,2054.0
14416.08038924603,2427.0
14416.08045174324,3297.0
14416.080514240453,3832.0
14416.080576737666,3325.0
14416.080639234879,1397.0
14416.080701732091,-1744.0
14416.080764229304,-5389.0
14416.080826726517,-8997.0
14416.08088922373,-12292.0
14416.080951720942,-15092.0
14416.081014218154,-16854.0
14416.081076715367,-17815.0
14416.08113921258,-18670.0
14416.081201709792,-19452.0
14416.081264207003,-20711.0
14416.081326704216,-22767.0
14416.081389201428,-27412.0
14416.081451698641,-32191.0
14416.081514195854,-32768.0
14416.081576693066,-32623.0
14416.081639190279,-32768.0
14416.081701687492,-32768.0
14416.081764184704,-24767.0
14416.081826681915,-8729.0
14416.081889179128,5249.0
14416.08195167634,16043.0
14416.082014173553,21027.0
14416.082076670766,20218.0
14416.082139167978,15326.0
14416.082201665191,8497.0
14416.082264162404,1410.0
14416.082326659616,-3917.0
14416.082389156829,-5864.0
14416.082451654042,-5805.0
14416.082514151254,-4856.0
14416.082576648465,-4440.0
14416.082639145678,-4384.0
14416.08270164289,-5120.0
14416.082764140103,-5235.0
14416.082826637316,-3697.0
14416.082889134528,451.0
14416.08295163174,5670.0
14416.083014128953,11097.0
14416.083076626166,15532.0
14416.083139123379,18098.0
14416.08320162059,17631.0
14416.083264117802,14251.0
14416.083326615015,9559.0
14416.083389112227,5116.0
14416.08345160944,1598.0
14416.083514106653,-212.0
14416.083576603865,66.0
14416.083639101078,2092.0
14416.08370159829,4718.0
14416.083764095503,7014.0
14416.083826592716,8693.0
14416.083889089929,9458.0
14416.08395158714,9535.0
14416.084014084352,9595.0
14416.084076581565,10369.0
14416.084139078777,11695.0
14416.08420157599,12940.0
14416.084264073203,13831.0
14416.084326570415,14402.0
14416.084389067628,14087.0
14416.08445156484,12767.0
14416.084514062053,10829.0
14416.084576559264,9148.0
14416.084639056477,7752.0
14416.08470155369,7368.0
14416.084764050902,7906.0
14416.084826548115,8973.0
14416.084889045327,9708.0
14416.08495154254,9648.0
14416.085014039752,8894.0
14416.085076536965,7357.0
14416.085139034178,5515.0
14416.08520153139,4070.0
14416.085264028603,3182.0
14416.085326525814,2854.0
14416.085389023026,2774.0
14416.085451520239,2591.0
14416.085514017452,2154.0
14416.085576514664,745.0
14416.085639011877,-1624.0
14416.08570150909,-4525.0
14416.085764006302,-7391.0
14416.085826503515,-10000.0
14416.085889000728,-12379.0
14416.085951497938,-14504.0
14416.086013995151,-16091.0
14416.086076492364,-17659.0
14416.086138989576,-19176.0
14416.086201486789,-20971.0
14416.086263984002,-23095.0
14416.086326481214,-26730.0
14416.086388978427,-31613.0
14416.08645147564,-32768.0
14416.086513972852,-32648.0
14416.086576470065,-32712.0
14416.086638967277,-32768.0
14416.086701464488,-26995.0
14416.0867639617,-12854.0
14416.086826458913,1300.0
14416.086888956126,12648.0
14416.086951453339,18920.0
14416.087013950551,19907.0
14416.087076447764,17515.0
14416.087138944977,11787.0
14416.08720144219,4144.0
14416.087263939402,-2695.0
14416.087326436613,-6515.0
14416.087388933825,-7686.0
14416.087451431038,-7449.0
14416.08751392825,-6356.0
14416.087576425463,-5540.0
14416.087638922676,-5287.0
14416.087701419889,-4921.0
14416.087763917101,-3173.0
14416.087826414314,679.0
14416.087888911527,5716.0
14416.08795140874,10434.0
14416.088013905952,14427.0
14416.088076403163,17050.0
14416.088138900375,17229.0
14416.088201397588,14833.0
14416.0882638948,10809.0
14416.088326392013,6295.0
14416.088388889226,2162.0
14416.088451386438,-413.0
14416.088513883651,-679.0
14416.088576380864,946.0
14416.088638878076,3657.0
14416.088701375287,6491.0
14416.0887638725,8847.0
14416.088826369712,10347.0
14416.088888866925,10825.0
14416.088951364138,10693.0
14416.08901386135,10966.0
14416.089076358563,11538.0
14416.089138855776,12324.0
14416.089201352988,13289.0
14416.089263850201,14052.0
14416.089326347414,13684.0
14416.089388844626,12227.0
14416.089451341837,10679.0
14416.08951383905,9376.0
14416.089576336262,8624.0
14416.089638833475,8418.0
14416.089701330688,8743.0
14416.0897638279,9171.0
14416.089826325113,9292.0
14416.089888822326,9122.0
14416.089951319538,8380.0
14416.090013816749,7107.0
14416.090076313962,5450.0
14416.090138811174,3876.0
14416.090201308387,3124.0
14416.0902638056,3045.0
14416.090326302812,3115.0
14416.090388800025,3025.0
14416.090451297237,2268.0
14416.09051379445,782.0
14416.090576291663,-1237.0
14416.090638788875,-3672.0
14416.090701286088,-6338.0
14416.0907637833,-9260.0
14416.090826280511,-12179.0
14416.090888777724,-14963.0
14416.090951274937,-17432.0
14416.09101377215,-19283.0
14416.091076269362,-20535.0
14416.091138766575,-21679.0
14416.091201263787,-23116.0
14416.091263761,-26213.0
14416.091326258213,-31058.0
14416.091388755423,-32768.0
14416.091451252636,-32686.0
14416.091513749849,-32655.0
14416.091576247061,-32768.0
14416.091638744274,-27155.0
14416.091701241487,-12039.0
14416.0917637387,2948.0
14416.091826235912,14425.0
14416.091888733125,20967.0
14416.091951230337,21782.0
14416.09201372755,18608.0
14416.092076224762,11823.0
14416.092138721975,3362.0
14416.092201219186,-3661.0
14416.092263716399,-7188.0
14416.092326213611,-7722.0
14416.092388710824,-6608.0
14416.092451208036,-5293.0
14416.092513705249,-4508.0
14416.092576202462,-4631.0
14416.092638699674,-4643.0
14416.092701196887,-3009.0
14416.092763694098,455.0
14416.09282619131,4976.0
14416.092888688523,9533.0
14416.092951185736,13832.0
14416.093013682948,16971.0
14416.093076180161,17663.0
14416.093138677374,15421.0
14416.093201174586,11263.0
14416.093263671799,6253.0
14416.093326169012,1740.0
14416.093388666224,-801.0
14416.093451163437,-841.0
14416.09351366065,860.0
14416.09357615786,3392.0
14416.093638655073,5814.0
14416.093701152286,8109.0
14416.093763649498,9911.0
14416.09382614671,10990.0
14416.093888643923,11327.0
14416.093951141136,11145.0
14416.094013638349,11250.0
14416.094076135561,11798.0
14416.094138632772,12716.0
14416.094201129985,13787.0
14416.094263627198,14138.0
14416.09432612441,13294.0
14416.094388621623,11518.0
14416.094451118835,9602.0
14416.094513616048,8245.0
14416.09457611326,7733.0
14416.094638610473,8112.0
14416.094701107686,8665.0
14416.094763604899,9170.0
14416.094826102111,9323.0
14416.094888599322,9095.0
14416.094951096535,8077.0
14416.095013593747,6603.0
14416.09507609096,4952.0
14416.095138588173,3630.0
14416.095201085385,2803.0
14416.095263582598,2579.0
14416.09532607981,2620.0
14416.095388577023,2342.0
14416.095451074236,1153.0
14416.095513571447,-1090.0
14416.09557606866,-3850.0
14416.095638565872,-6755.0
14416.095701063085,-9586.0
14416.095763560297,-12543.0
14416.09582605751,-15209.0
14416.095888554722,-17497.0
14416.095951051935,-19458.0
14416.096013549148,-21157.0
14416.09607604636,-22618.0
14416.096138543573,-24025.0
14416.096201040786,-26999.0
14416.096263537996,-31302.0
14416.09632603521,-32768.0
14416.096388532422,-32586.0
14416.096451029634,-32768.0
14416.096513526847,-32708.0
14416.09657602406,-24371.0
14416.096638521272,-9506.0
14416.096701018485,3958.0
14416.096763515698,14994.0
14416.09682601291,21112.0
14416.096888510121,21496.0
14416.096951007334,17795.0
14416.097013504546,11047.0
14416.097076001759,2921.0
14416.097138498972,-4803.0
14416.097200996184,-9098.0
14416.097263493397,-9600.0
14416.09732599061,-8235.0
14416.097388487822,-6746.0
14416.097450985035,-5331.0
14416.097513482247,-4361.0
14416.09757597946,-3713.0
14416.09763847667,-1963.0
14416.097700973884,1847.0
14416.097763471096,6745.0
14416.097825968309,11240.0
14416.097888465521,14991.0
14416.097950962734,17257.0
14416.098013459947,17286.0
14416.09807595716,14646.0
14416.098138454372,10341.0
14416.098200951585,5368.0
14416.098263448795,974.0
14416.098325946008,-1579.0
14416.09838844322,-1423.0
14416.098450940433,809.0
14416.098513437646,3793.0
14416.098575934859,6924.0
14416.098638432071,9737.0
14416.098700929284,11716.0
14416.098763426497,12279.0
14416.09882592371,11940.0
14416.098888420922,11420.0
14416.098950918135,11223.0
14416.099013415345,11859.0
14416.099075912558,13060.0
14416.09913840977,13813.0
14416.099200906983,13253.0
14416.099263404196,11712.0
14416.099325901409,10190.0
14416.099388398621,8884.0
14416.099450895834,7958.0
14416.099513393046,7786.0
14416.099575890259,8222.0
14416.09963838747,8880.0
14416.099700884683,9374.0
14416.099763381895,9386.0
14416.099825879108,8694.0
14416.09988837632,7066.0
14416.099950873533,4657.0
14416.100013370746,2585.0
14416.100075867958,1553.0
14416.100138365171,1627.0
14416.100200862384,2331.0
14416.100263359596,3156.0
14416.100325856809,3378.0
14416.10038835402,2416.0
14416.100450851232,300.0
14416.100513348445,-2732.0
14416.100575845658,-6408.0
14416.10063834287,-10346.0
14416.100700840083,-14022.0
14416.100763337296,-17003.0
14416.100825834508,-18891.0
14416.10088833172,-20190.0
14416.100950828932,-20989.0
14416.101013326144,-21778.0
14416.101075823357,-22947.0
14416.10113832057,-26039.0
14416.101200817782,-31041.0
14416.101263314995,-32768.0
14416.101325812208,-32558.0
14416.10138830942,-32768.0
14416.101450806633,-32615.0
14416.101513303845,-23400.0
14416.101575801058,-7657.0
14416.10163829827,6576.0
14416.101700795483,17733.0
14416.101763292694,22559.0
14416.101825789907,21988.0
14416.10188828712,17213.0
14416.101950784332,9148.0
14416.102013281545,-42.0
14416.102075778757,-6725.0
14416.10213827597,-9431.0
14416.102200773183,-8944.0
14416.102263270395,-6966.0
14416.102325767606,-4870.0
14416.102388264819,-3800.0
14416.102450762031,-3814.0
14416.102513259244,-3526.0
14416.102575756457,-1805.0
14416.10263825367,1740.0
14416.102700750882,6207.0
14416.102763248095,10888.0
14416.102825745307,14985.0
14416.10288824252,17697.0
14416.102950739732,17668.0
14416.103013236945,14977.0
14416.103075734158,10129.0
14416.103138231369,4755.0
14416.103200728581,351.0
14416.103263225794,-1637.0
14416.103325723006,-1203.0
14416.10338822022,1231.0
14416.103450717432,4605.0
14416.103513214644,8015.0
14416.103575711857,10666.0
14416.10363820907,12271.0
14416.10370070628,12533.0
14416.103763203493,11744.0
14416.103825700706,11043.0
14416.103888197918,11008.0
14416.103950695131,11824.0
14416.104013192344,12919.0
14416.104075689556,13417.0
14416.104138186769,12839.0
14416.104200683982,11439.0
14416.104263181194,9766.0
14416.104325678407,8343.0
14416.10438817562,7689.0
14416.104450672832,7954.0
14416.104513170043,8699.0
14416.104575667256,9303.0
14416.104638164468,9621.0
14416.10470066168,9395.0
14416.104763158894,8283.0
14416.104825656106,6364.0
14416.104888153319,4227.0
14416.104950650531,2497.0
14416.105013147744,1707.0
14416.105075644955,1737.0
14416.105138142168,2151.0
14416.10520063938,2525.0
14416.105263136593,2064.0
14416.105325633805,533.0
14416.105388131018,-1781.0
14416.10545062823,-4577.0
14416.105513125443,-7596.0
14416.105575622656,-10620.0
14416.105638119869,-13540.0
14416.105700617081,-16228.0
14416.105763114294,-18756.0
14416.105825611505,-20746.0
14416.105888108717,-21994.0
14416.10595060593,-23125.0
14416.106013103143,-25124.0
14416.106075600355,-29652.0
14416.106138097568,-32768.0
14416.10620059478,-32768.0
14416.106263091993,-32505.0
14416.106325589206,-32768.0
14416.106388086419,-28836.0
14416.10645058363,-15090.0
14416.106513080842,198.0
14416.106575578055,12695.0
14416.106638075267,20743.0
14416.10670057248,22588.0
14416.106763069693,19806.0
14416.106825566905,13402.0
14416.106888064118,4949.0
14416.10695056133,-2601.0
14416.107013058543,-7513.0
14416.107075555756,-8803.0
14416.107138052968,-8041.0
14416.10720055018,-6019.0
14416.107263047392,-4752.0
14416.107325544604,-4245.0
14416.107388041817,-4080.0
14416.10745053903,-2899.0
14416.107513036242,-567.0
14416.107575533455,3827.0
14416.107638030668,8841.0
14416.10770052788,13554.0
14416.107763025093,16613.0
14416.107825522304,17669.0
14416.107888019516,16241.0
14416.107950516729,12513.0
14416.108013013942,7482.0
14416.108075511154,2818.0
14416.108138008367,-79.0
14416.10820050558,-829.0
14416.108263002792,543.0
14416.108325500005,3246.0
14416.108387997218,6506.0
14416.10845049443,8945.0
14416.108512991643,10236.0
14416.108575488854,10633.0
14416.108637986066,10428.0
14416.108700483279,10136.0
14416.108762980492,10254.0
14416.108825477704,11269.0
14416.108887974917,12664.0
14416.10895047213,13561.0
14416.109012969342,13365.0
14416.109075466555,12272.0
14416.109137963767,10540.0
14416.109200460978,8965.0
14416.10926295819,7940.0
14416.109325455403,7731.0
14416.109387952616,8161.0
14416.109450449829,8737.0
14416.109512947041,9167.0
14416.109575444254,9191.0
14416.109637941467,8558.0
14416.10970043868,7187.0
14416.109762935892,5311.0
14416.109825433105,3503.0
14416.109887930317,2520.0
14416.109950427528,2295.0
14416.11001292474,2739.0
14416.110075421953,3112.0
14416.110137919166,2895.0
14416.110200416379,1762.0
14416.110262913591,-96.0
14416.110325410804,-2481.0
14416.110387908016,-5240.0
14416.11045040523,-8293.0
14416.110512902442,-11556.0
14416.110575399653,-14694.0
14416.110637896865,-17489.0
14416.110700394078,-19896.0
14416.11076289129,-21789.0
14416.110825388503,-23232.0
14416.110887885716,-24498.0
14416.110950382928,-26215.0
14416.111012880141,-30259.0
14416.111075377354,-32768.0
14416.111137874566,-32585.0
14416.111200371779,-32768.0
14416.111262868992,-32334.0
14416.111325366202,-23711.0
14416.111387863415,-9762.0
14416.111450360628,3701.0
14416.11151285784,14440.0
14416.111575355053,19966.0
14416.111637852266,20682.0
14416.111700349478,17887.0
14416.11176284669,11271.0
14416.111825343904,2897.0
14416.111887841116,-4255.0
14416.111950338327,-8106.0
14416.11201283554,-8794.0
14416.112075332752,-7545.0
14416.112137829965,-5709.0
14416.112200327178,-4220.0
14416.11226282439,-3653.0
14416.112325321603,-3105.0
14416.112387818815,-1561.0
14416.112450316028,1600.0
14416.11251281324,5695.0
14416.112575310453,9770.0
14416.112637807666,13438.0
14416.112700304877,16029.0
14416.11276280209,16482.0
14416.112825299302,14663.0
14416.112887796515,10892.0
14416.112950293727,6163.0
14416.11301279094,1899.0
14416.113075288153,-579.0
14416.113137785365,-645.0
14416.113200282578,1230.0
14416.113262779789,4079.0
14416.113325277001,7056.0
14416.113387774214,9658.0
14416.113450271427,11339.0
14416.11351276864,11969.0
14416.113575265852,11693.0
14416.113637763065,11347.0
14416.113700260277,11525.0
14416.11376275749,12167.0
14416.113825254703,12929.0
14416.113887751915,12920.0
14416.113950249128,11999.0
14416.11401274634,10537.0
14416.114075243551,9083.0
14416.114137740764,8174.0
14416.114200237977,8005.0
14416.11426273519,8427.0
14416.114325232402,9083.0
14416.114387729614,9568.0
14416.114450226827,9653.0
14416.11451272404,9056.0
14416.114575221252,7924.0
14416.114637718463,6265.0
14416.114700215676,4402.0
14416.114762712888,2835.0
14416.114825210101,2057.0
14416.114887707314,1936.0
14416.114950204526,1941.0
14416.115012701739,1871.0
14416.115075198952,1345.0
14416.115137696164,65.0
14416.115200193377,-2091.0
14416.11526269059,-4631.0
14416.115325187802,-7292.0
14416.115387685015,-10118.0
14416.115450182226,-13370.0
14416.115512679438,-16683.0
14416.115575176651,-19771.0
14416.115637673864,-22306.0
14416.115700171076,-23991.0
14416.115762668289,-24981.0
14416.115825165502,-26129.0
14416.115887662714,-29569.0
14416.115950159927,-32768.0
14416.116012657138,-32751.0
14416.11607515435,-32673.0
14416.116137651563,-32768.0
14416.116200148776,-24832.0
14416.116262645988,-9087.0
14416.1163251432,5042.0
14416.116387640413,15233.0
14416.116450137626,20363.0
14416.116512634839,20812.0
14416.116575132051,17440.0
14416.116637629264,10559.0
14416.116700126477,2082.0
14416.116762623687,-5344.0
14416.1168251209,-9258.0
14416.116887618113,-9104.0
14416.116950115325,-6752.0
14416.117012612538,-3988.0
14416.11707510975,-2770.0
14416.117137606963,-3037.0
14416.117200104176,-3409.0
14416.117262601389,-2292.0
14416.117325098601,744.0
14416.117387595812,5057.0
14416.117450093025,9695.0
14416.117512590237,13703.0
14416.11757508745,16340.0
14416.117637584663,17143.0
14416.117700081875,15723.0
14416.117762579088,11903.0
14416.1178250763,6781.0
14416.117887573513,1839.0
14416.117950070726,-1301.0
14416.118012567938,-1422.0
14416.118075065151,1065.0
14416.118137562362,4495.0
14416.118200059575,7745.0
14416.118262556787,10241.0
14416.118325054,11671.0
14416.118387551212,11741.0
14416.118450048425,11346.0
14416.118512545638,11104.0
14416.11857504285,11296.0
14416.118637540063,11647.0
14416.118700037276,12159.0
14416.118762534486,12312.0
14416.118825031699,12100.0
14416.118887528912,11059.0
14416.118950026124,9693.0
14416.119012523337,8506.0
14416.11907502055,7925.0
14416.119137517762,7835.0
14416.119200014975,8313.0
14416.119262512188,8930.0
14416.1193250094,9133.0
14416.119387506613,8534.0
14416.119450003825,7191.0
14416.119512501036,5481.0
14416.119574998249,3735.0
14416.119637495462,2541.0
14416.119699992674,2126.0
14416.119762489887,2346.0
14416.1198249871,2840.0
14416.119887484312,3085.0
14416.119949981525,2627.0
14416.120012478737,1351.0
14416.12007497595,-826.0
14416.12013747316,-3459.0
14416.120199970374,-6224.0
14416.120262467586,-8993.0
14416.120324964799,-12192.0
14416.120387462011,-15618.0
14416.120449959224,-18964.0
14416.120512456437,-21891.0
14416.12057495365,-23982.0
14416.120637450862,-25234.0
14416.120699948075,-26119.0
14416.120762445287,-28238.0
14416.1208249425,-31677.0
14416.12088743971,-32768.0
14416.120949936923,-32523.0
14416.121012434136,-32768.0
14416.121074931349,-28771.0
14416.121137428561,-16382.0
14416.121199925774,-2166.0
14416.121262422987,10351.0
14416.1213249202,18385.0
14416.121387417412,20866.0
14416.121449914624,19521.0
14416.121512411835,14534.0
14416.121574909048,6554.0
14416.12163740626,-1631.0
14416.121699903473,-7162.0
14416.121762400686,-9120.0
14416.121824897898,-8279.0
14416.121887395111,-5910.0
14416.121949892324,-3735.0
14416.122012389536,-2658.0
14416.122074886749,-2718.0
14416.122137383962,-2355.0
14416.122199881174,-316.0
14416.122262378385,3303.0
14416.122324875598,7454.0
14416.12238737281,11685.0
14416.122449870023,15168.0
14416.122512367236,16916.0
14416.122574864448,16153.0
14416.122637361661,13294.0
14416.122699858874,8825.0
14416.122762356086,4152.0
14416.122824853299,450.0
14416.12288735051,-970.0
14416.122949847722,85.0
14416.123012344935,3038.0
14416.123074842148,6658.0
14416.12313733936,9902.0
14416.123199836573,12131.0
14416.123262333786,12813.0
14416.123324830998,12295.0
14416.12338732821,11555.0
14416.123449825423,11120.0
14416.123512322636,10913.0
14416.123574819849,10967.0
14416.12363731706,11338.0
14416.123699814272,11738.0
14416.123762311485,11558.0
14416.123824808697,10869.0
14416.12388730591,9788.0
14416.123949803123,8708.0
14416.124012300335,7862.0
14416.124074797548,7632.0
14416.12413729476,7965.0
14416.124199791971,8375.0
14416.124262289184,8223.0
14416.124324786397,7530.0
14416.12438728361,6322.0
14416.124449780822,4922.0
14416.124512278035,3477.0
14416.124574775247,2380.0
14416.12463727246,1850.0
14416.124699769673,1778.0
14416.124762266885,1800.0
14416.124824764098,1855.0
14416.12488726131,1369.0
14416.124949758523,-95.0
14416.125012255734,-2407.0
14416.125074752947,-5268.0
14416.12513725016,-8487.0
14416.125199747372,-12199.0
14416.125262244585,-16016.0
14416.125324741797,-19399.0
14416.12538723901,-22015.0
14416.125449736222,-24023.0
14416.125512233435,-25390.0
14416.125574730646,-26379.0
14416.125637227859,-28569.0
14416.125699725071,-32040.0
14416.125762222284,-32768.0
14416.125824719496,-32503.0
14416.125887216709,-32768.0
14416.125949713922,-28458.0
14416.126012211134,-15033.0
14416.126074708347,-285.0
14416.12613720556,11751.0
14416.126199702772,19395.0
14416.126262199985,21256.0
14416.126324697198,19261.0
14416.126387194408,13731.0
14416.126449691621,5180.0
14416.126512188834,-3633.0
14416.126574686046,-9141.0
14416.126637183259,-10102.0
14416.126699680472,-8102.0
14416.126762177684,-5112.0
14416.126824674897,-2405.0
14416.12688717211,-1215.0
14416.12694966932,-1400.0
14416.127012166533,-1037.0
14416.127074663746,989.0
14416.127137160958,4280.0
14416.12719965817,7809.0
14416.127262155384,11298.0
14416.127324652596,14482.0
14416.127387149809,16219.0
14416.127449647021,15590.0
14416.127512144234,12950.0
14416.127574641447,8667.0
14416.12763713866,3700.0
14416.12769963587,-252.0
14416.127762133083,-1278.0
14416.127824630295,636.0
14416.127887127508,3874.0
14416.12794962472,7053.0
14416.128012121933,9936.0
14416.128074619146,11838.0
14416.128137116359,12333.0
14416.128199613571,11914.0
14416.128262110784,11475.0
14416.128324607995,11109.0
14416.128387105207,10596.0
14416.12844960242,10268.0
14416.128512099633,10717.0
14416.128574596845,11194.0
14416.128637094058,11003.0
14416.12869959127,10311.0
14416.128762088483,9638.0
14416.128824585696,9077.0
14416.128887082908,8483.0
14416.128949580121,8267.0
14416.129012077334,8453.0
14416.129074574545,8398.0
14416.129137071757,7894.0
14416.12919956897,7099.0
14416.129262066182,6084.0
14416.129324563395,4819.0
14416.129387060608,3460.0
14416.12944955782,2572.0
14416.129512055033,2416.0
14416.129574552246,2595.0
14416.129637049458,2713.0
14416.12969954667,2493.0
14416.129762043882,1522.0
14416.129824541094,-310.0
14416.129887038307,-2850.0
14416.12994953552,-5810.0
14416.130012032732,-8988.0
14416.130074529945,-12626.0
14416.130137027158,-16261.0
14416.13019952437,-19383.0
14416.130262021583,-22012.0
14416.130324518796,-24189.0
14416.130387016008,-25712.0
14416.130449513219,-26740.0
14416.130512010432,-29197.0
14416.130574507644,-32425.0
14416.130637004857,-32768.0
14416.13069950207,-32703.0
14416.130761999282,-32768.0
14416.130824496495,-25535.0
14416.130886993707,-11346.0
14416.13094949092,1353.0
14416.131011988133,11323.0
14416.131074485344,17559.0
14416.131136982556,18983.0
14416.131199479769,17002.0
14416.131261976981,11618.0
14416.131324474194,4366.0
14416.131386971407,-3101.0
14416.13144946862,-7534.0
14416.131511965832,-8431.0
14416.131574463045,-6502.0
14416.131636960257,-4261.0
14416.13169945747,-2703.0
14416.131761954683,-2628.0
14416.131824451893,-2592.0
14416.131886949106,-1584.0
14416.131949446319,1148.0
14416.132011943531,5258.0
14416.132074440744,9408.0
14416.132136937957,12639.0
14416.13219943517,14867.0
14416.132261932382,15629.0
14416.132324429595,14426.0
14416.132386926807,11268.0
14416.132449424018,6802.0
14416.13251192123,2516.0
14416.132574418443,-418.0
14416.132636915656,-702.0
14416.132699412869,1334.0
14416.132761910081,4463.0
14416.132824407294,7544.0
14416.132886904506,10021.0
14416.132949401719,11358.0
14416.133011898932,11785.0
14416.133074396144,11496.0
14416.133136893357,11223.0
14416.133199390568,11208.0
14416.13326188778,11285.0
14416.133324384993,11359.0
14416.133386882206,11365.0
14416.133449379418,11080.0
14416.133511876631,10396.0
14416.133574373844,9416.0
14416.133636871056,8588.0
14416.133699368269,8148.0
14416.133761865482,8014.0
14416.133824362692,8426.0
14416.133886859905,9006.0
14416.133949357118,9041.0
14416.13401185433,8329.0
14416.134074351543,7011.0
14416.134136848756,5393.0
14416.134199345968,3803.0
14416.13426184318,2553.0
14416.134324340394,1970.0
14416.134386837606,1987.0
14416.134449334819,2341.0
14416.134511832031,2510.0
14416.134574329242,2294.0
14416.134636826455,1357.0
14416.134699323668,-439.0
14416.13476182088,-3166.0
14416.134824318093,-6385.0
14416.134886815305,-9667.0
14416.134949312518,-13302.0
14416.13501180973,-16975.0
14416.135074306943,-20489.0
14416.135136804154,-23390.0
14416.135199301367,-25619.0
14416.13526179858,-26988.0
14416.135324295792,-27782.0
14416.135386793005,-30076.0
14416.135449290217,-32644.0
14416.13551178743,-32626.0
14416.135574284643,-32768.0
14416.135636781855,-31457.0
14416.135699279068,-21230.0
14416.13576177628,-7338.0
14416.135824273493,4985.0
14416.135886770706,14697.0
14416.135949267917,19463.0
14416.13601176513,19387.0
14416.136074262342,16423.0
14416.136136759555,10187.0
14416.136199256767,2161.0
14416.13626175398,-5680.0
14416.136324251192,-9348.0
14416.136386748405,-8902.0
14416.136449245618,-6371.0
14416.136511742829,-3948.0
14416.136574240041,-1953.0
14416.136636737254,-1319.0
14416.136699234467,-1152.0
14416.13676173168,-216.0
14416.136824228892,2598.0
14416.136886726104,5978.0
14416.136949223317,9084.0
14416.13701172053,12003.0
14416.137074217742,14531.0
14416.137136714955,15510.0
14416.137199212168,14254.0
14416.13726170938,10980.0
14416.137324206591,6583.0
14416.137386703804,2445.0
14416.137449201016,-273.0
14416.137511698229,-479.0
14416.137574195442,1430.0
14416.137636692654,4309.0
14416.137699189867,7353.0
14416.13776168708,10197.0
14416.137824184292,12338.0
14416.137886681503,13396.0
14416.137949178716,13188.0
14416.138011675928,12291.0
14416.138074173141,10771.0
14416.138136670354,9682.0
14416.138199167566,9140.0
14416.138261664779,9556.0
14416.138324161991,9816.0
14416.138386659204,9902.0
14416.138449156417,9522.0
14416.13851165363,9256.0
14416.138574150842,9080.0
14416.138636648055,9062.0
14416.138699145265,8931.0
14416.138761642478,8676.0
14416.13882413969,8046.0
14416.138886636903,7320.0
14416.138949134116,6493.0
14416.139011631329,5516.0
14416.139074128541,4312.0
14416.139136625754,3014.0
14416.139199122967,2055.0
14416.139261620177,1541.0
14416.13932411739,1513.0
14416.139386614603,1561.0
14416.139449111815,1336.0
14416.139511609028,368.0
14416.13957410624,-1296.0
14416.139636603453,-3670.0
14416.139699100666,-6440.0
14416.139761597879,-9609.0
14416.139824095091,-13351.0
14416.139886592304,-17396.0
14416.139949089516,-21282.0
14416.140011586727,-24624.0
14416.14007408394,-27024.0
14416.140136581153,-28109.0
14416.140199078365,-28778.0
14416.140261575578,-30929.0
14416.14032407279,-32768.0
14416.140386570003,-32661.0
14416.140449067216,-32768.0
14416.140511564428,-28363.0
14416.140574061641,-16727.0
14416.140636558852,-4143.0
14416.140699056064,6101.0
14416.140761553277,13656.0
14416.14082405049,17273.0
14416.140886547702,17118.0
14416.140949044915,14076.0
14416.141011542128,7363.0
14416.14107403934,-214.0
14416.141136536553,-6464.0
14416.141199033766,-8382.0
14416.141261530978,-7286.0
14416.14132402819,-4603.0
14416.141386525402,-2573.0
14416.141449022614,-1483.0
14416.141511519827,-1545.0
14416.14157401704,-1070.0
14416.141636514252,344.0
14416.141699011465,3214.0
14416.141761508678,6349.0
14416.14182400589,9356.0
14416.141886503103,12058.0
14416.141949000315,14007.0
14416.142011497526,14498.0
14416.142073994739,12888.0
14416.142136491952,9520.0
14416.142198989164,5061.0
14416.142261486377,1429.0
14416.14232398359,-306.0
14416.142386480802,521.0
14416.142448978015,2573.0
14416.142511475227,5339.0
14416.14257397244,7826.0
14416.142636469653,9730.0
14416.142698966865,11270.0
14416.142761464076,12475.0
14416.142823961289,12567.0
14416.142886458501,11523.0
14416.142948955714,10211.0
14416.143011452927,9650.0
14416.14307395014,9698.0
14416.143136447352,10180.0
14416.143198944565,10392.0
14416.143261441777,10109.0
14416.14332393899,9414.0
14416.1433864362,8677.0
14416.143448933413,8448.0
14416.143511430626,8378.0
14416.143573927839,8273.0
14416.143636425051,7806.0
14416.143698922264,7118.0
14416.143761419477,6605.0
14416.14382391669,5972.0
14416.143886413902,5173.0
14416.143948911114,4196.0
14416.144011408327,3006.0
14416.14407390554,1957.0
14416.14413640275,1443.0
14416.144198899963,1417.0
14416.144261397176,1391.0
14416.144323894388,848.0
14416.144386391601,-349.0
14416.144448888814,-2268.0
14416.144511386026,-4813.0
14416.144573883239,-7661.0
14416.144636380452,-11147.0
14416.144698877664,-15346.0
14416.144761374875,-19692.0
14416.144823872088,-23611.0
14416.1448863693,-26395.0
14416.144948866513,-28092.0
14416.145011363726,-28725.0
14416.145073860938,-30141.0
14416.145136358151,-32514.0
14416.145198855364,-32682.0
14416.145261352576,-32768.0
14416.145323849789,-30842.0
14416.145386347001,-20960.0
14416.145448844214,-8417.0
14416.145511341425,2430.0
14416.145573838638,11582.0
14416.14563633585,17038.0
14416.145698833063,17727.0
14416.145761330275,15565.0
14416.145823827488,10290.0
14416.1458863247,3021.0
14416.145948821913,-4401.0
14416.146011319126,-8181.0
14416.146073816337,-8376.0
14416.14613631355,-6598.0
14416.146198810762,-4659.0
14416.146261307975,-2703.0
14416.146323805187,-1631.0
14416.1463863024,-743.0
14416.146448799613,414.0
14416.146511296825,3049.0
14416.146573794038,5947.0
14416.14663629125,8597.0
14416.146698788463,11020.0
14416.146761285676,13282.0
14416.146823782889,14340.0
14416.1468862801,13318.0
14416.146948777312,10508.0
14416.147011274525,6714.0
14416.147073771737,2941.0
14416.14713626895,223.0
14416.147198766163,-383.0
14416.147261263375,907.0
14416.147323760588,3358.0
14416.1473862578,5919.0
14416.147448755011,8529.0
14416.147511252224,10771.0
14416.147573749437,11989.0
14416.14763624665,12075.0
14416.147698743862,11741.0
14416.147761241074,10825.0
14416.147823738287,9855.0
14416.1478862355,9492.0
14416.147948732712,9697.0
14416.148011229925,10031.0
14416.148073727138,9906.0
14416.14813622435,9552.0
14416.148198721563,8918.0
14416.148261218774,8277.0
14416.148323715986,7878.0
14416.148386213199,7608.0
14416.148448710412,7363.0
14416.148511207624,7031.0
14416.148573704837,6456.0
14416.14863620205,5840.0
14416.148698699262,5237.0
14416.148761196475,4289.0
14416.148823693686,3317.0
14416.148886190898,2448.0
14416.148948688111,1715.0
14416.149011185324,1207.0
14416.149073682536,952.0
14416.149136179749,535.0
14416.149198676962,-388.0
14416.149261174174,-1931.0
14416.149323671387,-3927.0
14416.1493861686,-6230.0
14416.149448665812,-8658.0
14416.149511163025,-11793.0
14416.149573660237,-15550.0
14416.149636157448,-19720.0
14416.14969865466,-23783.0
14416.149761151873,-27094.0
14416.149823649086,-28990.0
14416.149886146299,-30000.0
14416.149948643511,-32060.0
14416.150011140724,-32768.0
14416.150073637937,-32585.0
14416.15013613515,-32768.0
14416.15019863236,-28489.0
14416.150261129573,-16068.0
14416.150323626785,-3307.0
14416.150386123998,7225.0
14416.15044862121,14942.0
14416.150511118423,18318.0
14416.150573615636,17925.0
14416.150636112849,14102.0
14416.150698610061,7791.0
14416.150761107274,-386.0
14416.150823604487,-6533.0
14416.1508861017,-9271.0
14416.15094859891,-8143.0
14416.151011096123,-5656.0
14416.151073593335,-3579.0
14416.151136090548,-2593.0
14416.15119858776,-1870.0
14416.151261084973,-978.0
14416.151323582186,802.0
14416.151386079398,3642.0
14416.151448576611,6878.0
14416.151511073824,9731.0
14416.151573571035,11930.0
14416.151636068247,13857.0
14416.15169856546,14360.0
14416.151761062672,12749.0
14416.151823559885,8817.0
14416.151886057098,4216.0
14416.15194855431,375.0
14416.152011051523,-1264.0
14416.152073548736,-823.0
14416.152136045948,1610.0
14416.152198543161,4524.0
14416.152261040374,7301.0
14416.152323537584,9451.0
14416.152386034797,11058.0
14416.15244853201,11826.0
14416.152511029222,11780.0
14416.152573526435,11085.0
14416.152636023648,10201.0
14416.15269852086,9633.0
14416.152761018073,9771.0
14416.152823515285,10227.0
14416.152886012498,10520.0
14416.152948509709,10050.0
14416.153011006922,9057.0
14416.153073504134,7988.0
14416.153136001347,7157.0
14416.15319849856,6892.0
14416.153260995772,6964.0
14416.153323492985,7059.0
14416.153385990197,6848.0
14416.15344848741,6314.0
14416.153510984623,5730.0
14416.153573481835,4903.0
14416.153635979048,3814.0
14416.153698476259,2767.0
14416.153760973471,1822.0
14416.153823470684,1305.0
14416.153885967897,1226.0
14416.15394846511,1177.0
14416.154010962322,889.0
14416.154073459535,-81.0
14416.154135956747,-1783.0
14416.15419845396,-4057.0
14416.154260951173,-6778.0
14416.154323448383,-9868.0
14416.154385945596,-13745.0
14416.154448442809,-18126.0
14416.154510940021,-22466.0
14416.154573437234,-26293.0
14416.154635934447,-29204.0
14416.15469843166,-30759.0
14416.154760928872,-32006.0
14416.154823426084,-32768.0
14416.154885923297,-32569.0
14416.15494842051,-32768.0
14416.155010917722,-31422.0
14416.155073414933,-21682.0
14416.155135912146,-8630.0
14416.155198409358,2921.0
14416.155260906571,11715.0
14416.155323403784,16795.0
14416.155385900996,17332.0
14416.155448398209,15171.0
14416.155510895422,10340.0
14416.155573392634,3594.0
14416.155635889847,-3776.0
14416.155698387058,-8475.0
14416.15576088427,-9420.0
14416.155823381483,-7766.0
14416.155885878696,-5468.0
14416.155948375908,-3627.0
14416.156010873121,-2134.0
14416.156073370334,-1284.0
14416.156135867546,50.0
14416.156198364759,2419.0
14416.156260861972,5695.0
14416.156323359184,8471.0
14416.156385856397,10882.0
14416.156448353608,12855.0
14416.15651085082,14054.0
14416.156573348033,12958.0
14416.156635845246,10185.0
14416.156698342458,6201.0
14416.15676083967,2362.0
14416.156823336883,-397.0
14416.156885834096,-915.0
14416.156948331309,388.0
14416.157010828521,2660.0
14416.157073325732,5312.0
14416.157135822945,8016.0
14416.157198320157,10111.0
14416.15726081737,11030.0
14416.157323314583,11147.0
14416.157385811795,10733.0
14416.157448309008,10073.0
14416.15751080622,9626.0
14416.157573303433,9787.0
14416.157635800646,10299.0
14416.157698297859,10591.0
14416.157760795071,10189.0
14416.157823292282,9344.0
14416.157885789495,8241.0
14416.157948286707,6988.0
14416.15801078392,6117.0
14416.158073281133,5907.0
14416.158135778345,6309.0
14416.158198275558,6795.0
14416.15826077277,7173.0
14416.158323269983,7141.0
14416.158385767194,6625.0
14416.158448264407,5254.0
14416.15851076162,3585.0
14416.158573258832,2017.0
14416.158635756045,968.0
14416.158698253257,417.0
14416.15876075047,342.0
14416.158823247682,502.0
14416.158885744895,398.0
14416.158948242108,-517.0
14416.15901073932,-2179.0
14416.159073236533,-4519.0
14416.159135733746,-7344.0
14416.159198230956,-10556.0
14416.15926072817,-14417.0
14416.159323225382,-18425.0
14416.159385722594,-22207.0
14416.159448219807,-25821.0
14416.15951071702,-28867.0
14416.159573214232,-30591.0
14416.159635711445,-32009.0
14416.159698208658,-32768.0
14416.159760705868,-32530.0
14416.159823203081,-32768.0
14416.159885700294,-30791.0
14416.159948197506,-20218.0
14416.160010694719,-6966.0
14416.160073191932,4596.0
14416.160135689144,12933.0
14416.160198186357,17119.0
14416.16026068357,16859.0
14416.160323180782,13862.0
14416.160385677995,9024.0
14416.160448175207,2511.0
14416.16051067242,-4145.0
14416.16057316963,-8107.0
14416.160635666844,-8460.0
14416.160698164056,-6237.0
14416.160760661269,-4338.0
14416.160823158481,-2648.0
14416.160885655694,-1997.0
14416.160948152907,-1897.0
14416.16101065012,-1074.0
14416.161073147332,1709.0
14416.161135644543,5191.0
14416.161198141755,8606.0
14416.161260638968,11146.0
14416.16132313618,13232.0
14416.161385633393,13890.0
14416.161448130606,12654.0
14416.161510627819,9661.0
14416.161573125031,5708.0
14416.161635622244,1802.0
14416.161698119457,-751.0
14416.16176061667,-1107.0
14416.161823113882,822.0
14416.161885611093,3514.0
14416.161948108305,5842.0
14416.162010605518,8009.0
14416.16207310273,9574.0
14416.162135599943,10199.0
14416.162198097156,10103.0
14416.162260594368,10080.0
14416.162323091581,10075.0
14416.162385588794,9928.0
14416.162448086006,9953.0
14416.162510583217,10342.0
14416.16257308043,10521.0
14416.162635577643,10050.0
14416.162698074855,9164.0
14416.162760572068,8216.0
14416.16282306928,7223.0
14416.162885566493,6414.0
14416.162948063706,6040.0
14416.163010560918,6347.0
14416.163073058131,6498.0
14416.163135555344,6328.0
14416.163198052556,6093.0
14416.163260549767,5616.0
14416.16332304698,4784.0
14416.163385544192,3798.0
14416.163448041405,3038.0
14416.163510538618,2602.0
14416.16357303583,2198.0
14416.163635533043,1785.0
14416.163698030256,1250.0
14416.163760527468,95.0
14416.16382302468,-1715.0
14416.163885521892,-3872.0
14416.163948019104,-6233.0
14416.164010516317,-8573.0
14416.16407301353,-11121.0
14416.164135510742,-14263.0
14416.164198007955,-17831.0
14416.164260505167,-21575.0
14416.16432300238,-25317.0
14416.164385499593,-28312.0
14416.164447996805,-30271.0
14416.164510494018,-32005.0
14416.16457299123,-32768.0
14416.164635488441,-32524.0
14416.164697985654,-32768.0
14416.164760482867,-30464.0
14416.16482298008,-19964.0
14416.164885477292,-7041.0
14416.164947974505,3914.0
14416.165010471717,11705.0
14416.16507296893,15736.0
14416.165135466143,15702.0
14416.165197963355,13653.0
14416.165260460566,9075.0
14416.165322957779,2595.0
14416.165385454991,-3991.0
14416.165447952204,-7461.0
14416.165510449417,-8154.0
14416.16557294663,-6593.0
14416.165635443842,-5006.0
14416.165697941055,-3601.0
14416.165760438267,-3518.0
14416.16582293548,-2990.0
14416.165885432692,-1257.0
14416.165947929905,2059.0
14416.166010427116,5841.0
14416.166072924329,9224.0
14416.166135421541,11715.0
14416.166197918754,13355.0
14416.166260415966,13693.0
14416.16632291318,12262.0
14416.166385410392,9119.0
14416.166447907604,4982.0
14416.166510404817,1315.0
14416.16657290203,-771.0
14416.16663539924,-621.0
14416.166697896453,1193.0
14416.166760393666,3708.0
14416.166822890878,5879.0
14416.166885388091,7704.0
14416.166947885304,8877.0
14416.167010382516,9758.0
14416.167072879729,9901.0
14416.167135376942,9945.0
14416.167197874154,10053.0
14416.167260371367,10419.0
14416.16732286858,10727.0
14416.16738536579,11065.0
14416.167447863003,10920.0
14416.167510360216,10016.0
14416.167572857428,8379.0
14416.16763535464,7106.0
14416.167697851854,6245.0
14416.167760349066,5976.0
14416.167822846279,6071.0
14416.167885343491,6533.0
14416.167947840704,6824.0
14416.168010337915,6722.0
14416.168072835128,6231.0
14416.16813533234,5430.0
14416.168197829553,4421.0
14416.168260326765,3402.0
14416.168322823978,2709.0
14416.16838532119,2581.0
14416.168447818403,2841.0
14416.168510315616,2765.0
14416.168572812829,2216.0
14416.168635310041,1002.0
14416.168697807254,-787.0
14416.168760304465,-3061.0
14416.168822801677,-5337.0
14416.16888529889,-7618.0
14416.168947796103,-9811.0
14416.169010293315,-12443.0
14416.169072790528,-15797.0
14416.16913528774,-19776.0
14416.169197784953,-23983.0
14416.169260282166,-27832.0
14416.169322779377,-30588.0
14416.16938527659,-32062.0
14416.169447773802,-32768.0
14416.169510271015,-32637.0
14416.169572768227,-32768.0
14416.16963526544,-32264.0
14416.169697762653,-24181.0
14416.169760259865,-11437.0
14416.169822757078,383.0
14416.16988525429,9547.0
14416.169947751503,15350.0
14416.170010248716,16502.0
14416.170072745928,14352.0
14416.17013524314,10417.0
14416.170197740352,4720.0
14416.170260237564,-1998.0
14416.170322734777,-6852.0
14416.17038523199,-8262.0
14416.170447729202,-6821.0
14416.170510226415,-4869.0
14416.170572723628,-3325.0
14416.17063522084,-2502.0
14416.170697718051,-2373.0
14416.170760215264,-1883.0
14416.170822712476,243.0
14416.170885209689,3950.0
14416.170947706902,7642.0
14416.171010204114,10554.0
14416.171072701327,12465.0
14416.17113519854,13623.0
14416.171197695752,12976.0
14416.171260192965,10590.0
14416.171322690177,6866.0
14416.17138518739,2987.0
14416.171447684603,-144.0
14416.171510181814,-1167.0
14416.171572679026,27.0
14416.171635176239,2600.0
14416.171697673451,5272.0
14416.171760170664,7408.0
14416.171822667877,8825.0
14416.17188516509,9589.0
14416.171947662302,9666.0
14416.172010159515,9630.0
14416.172072656726,9588.0
14416.172135153938,9818.0
14416.17219765115,10187.0
14416.172260148363,10533.0
14416.172322645576,10709.0
14416.172385142789,10391.0
14416.172447640001,9365.0
14416.172510137214,8210.0
14416.172572634427,7176.0
14416.17263513164,6504.0
14416.172697628852,6274.0
14416.172760126065,6434.0
14416.172822623275,6755.0
14416.172885120488,6673.0
14416.1729476177,6151.0
14416.173010114913,5549.0
14416.173072612126,4805.0
14416.173135109339,3940.0
14416.173197606551,3126.0
14416.173260103764,2621.0
14416.173322600976,2626.0
14416.17338509819,2613.0
14416.1734475954,2352.0
14416.173510092613,1568.0
14416.173572589825,101.0
14416.173635087038,-1933.0
14416.17369758425,-4191.0
14416.173760081463,-6438.0
14416.173822578676,-8560.0
14416.173885075888,-11111.0
14416.173947573101,-14476.0
14416.174010070314,-18622.0
14416.174072567526,-22899.0
14416.174135064739,-26845.0
14416.17419756195,-29749.0
14416.174260059162,-30983.0
14416.174322556375,-31937.0
14416.174385053588,-32768.0
14416.1744475508,-32636.0
14416.174510048013,-32768.0
14416.174572545226,-28507.0
14416.174635042438,-16956.0
14416.17469753965,-4990.0
14416.174760036864,5140.0
14416.174822534074,12049.0
14416.174885031287,15129.0
14416.1749475285,14554.0
14416.175010025712,12559.0
14416.175072522925,8647.0
14416.175135020138,2737.0
14416.17519751735,-3577.0
14416.175260014563,-7032.0
14416.175322511775,-7275.0
14416.175385008988,-5625.0
14416.1754475062,-4055.0
14416.175510003413,-3098.0
14416.175572500624,-3127.0
14416.175634997837,-3147.0
14416.17569749505,-1729.0
14416.175759992262,1664.0
14416.175822489475,5764.0
14416.175884986687,9187.0
14416.1759474839,11541.0
14416.176009981113,13165.0
14416.176072478325,13564.0
14416.176134975538,12196.0
14416.176197472749,9405.0
14416.176259969961,5588.0
14416.176322467174,2031.0
14416.176384964387,-126.0
14416.1764474616,-208.0
14416.176509958812,1334.0
14416.176572456025,3455.0
14416.176634953237,5299.0
14416.17669745045,6809.0
14416.176759947663,7855.0
14416.176822444875,8579.0
14416.176884942088,9041.0
14416.176947439299,9450.0
14416.177009936511,9942.0
14416.177072433724,10763.0
14416.177134930937,11840.0
14416.17719742815,12466.0
14416.177259925362,11940.0
14416.177322422574,10469.0
14416.177384919787,8802.0
14416.177447417,7151.0
14416.177509914212,6066.0
14416.177572411423,5724.0
14416.177634908636,5948.0
14416.177697405848,6445.0
14416.177759903061,6726.0
14416.177822400274,6656.0
14416.177884897486,6228.0
14416.177947394699,5224.0
14416.178009891912,3994.0
14416.178072389124,2865.0
14416.178134886337,2489.0
14416.17819738355,2781.0
14416.178259880762,3348.0
14416.178322377973,3664.0
14416.178384875186,3302.0
14416.178447372398,1996.0
14416.178509869611,-60.0
14416.178572366824,-2498.0
14416.178634864036,-4946.0
14416.178697361249,-7293.0
14416.178759858461,-9362.0
14416.178822355674,-11324.0
14416.178884852887,-13993.0
14416.178947350098,-17650.0
14416.17900984731,-21861.0
14416.179072344523,-26201.0
14416.179134841736,-29655.0
14416.179197338948,-31295.0
14416.17925983616,-32335.0
14416.179322333373,-32768.0
14416.179384830586,-32574.0
14416.179447327799,-32768.0
14416.179509825011,-28596.0
14416.179572322224,-16408.0
14416.179634819437,-3892.0
14416.179697316647,5865.0
14416.17975981386,11928.0
14416.179822311073,14617.0
14416.179884808285,14178.0
14416.179947305498,11923.0
14416.18000980271,7939.0
14416.180072299923,2187.0
14416.180134797136,-3862.0
14416.180197294349,-6959.0
14416.18025979156,-6656.0
14416.180322288772,-4456.0
14416.180384785985,-3200.0
14416.180447283197,-2958.0
14416.18050978041,-3530.0
14416.180572277623,-3512.0
14416.180634774835,-2019.0
14416.180697272048,1656.0
14416.18075976926,5838.0
14416.180822266473,9265.0
14416.180884763686,11363.0
14416.180947260898,12768.0
14416.181009758111,13279.0
14416.181072255322,12032.0
14416.181134752534,9115.0
14416.181197249747,5264.0
14416.18125974696,1757.0
14416.181322244172,-280.0
14416.181384741385,-104.0
14416.181447238598,1751.0
14416.18150973581,4040.0
14416.181572233023,5748.0
14416.181634730234,7058.0
14416.181697227446,8065.0
14416.181759724659,8757.0
14416.181822221872,9081.0
14416.181884719084,9410.0
14416.181947216297,9755.0
14416.18200971351,10505.0
14416.182072210722,11542.0
14416.182134707935,12266.0
14416.182197205148,12032.0
14416.18225970236,10650.0
14416.182322199573,8872.0
14416.182384696785,7251.0
14416.182447193996,6301.0
14416.182509691209,6011.0
14416.182572188422,6105.0
14416.182634685634,6152.0
14416.182697182847,6194.0
14416.18275968006,6082.0
14416.182822177272,5888.0
14416.182884674485,5607.0
14416.182947171697,4944.0
14416.183009668908,4057.0
14416.18307216612,3384.0
14416.183134663333,3202.0
14416.183197160546,3248.0
14416.183259657759,3240.0
14416.183322154971,2837.0
14416.183384652184,1745.0
14416.183447149397,40.0
14416.18350964661,-1876.0
14416.183572143822,-3807.0
14416.183634641035,-5676.0
14416.183697138247,-7678.0
14416.183759635458,-9864.0
14416.18382213267,-12737.0
14416.183884629883,-16344.0
14416.183947127096,-20424.0
14416.184009624309,-24470.0
14416.184072121521,-28034.0
14416.184134618734,-30123.0
14416.184197115947,-30957.0
14416.18425961316,-32309.0
14416.184322110372,-32704.0
14416.184384607583,-32768.0
14416.184447104795,-31516.0
14416.184509602008,-22277.0
14416.18457209922,-9869.0
14416.184634596433,1518.0
14416.184697093646,9953.0
14416.184759590858,14668.0
14416.184822088071,15436.0
14416.184884585284,13426.0
14416.184947082496,10439.0
14416.185009579709,5355.0
14416.185072076922,-758.0
14416.185134574132,-5772.0
14416.185197071345,-7389.0
14416.185259568558,-6314.0
14416.18532206577,-4530.0
14416.185384562983,-3365.0
14416.185447060196,-2817.0
14416.185509557408,-2938.0
14416.185572054621,-2357.0
14416.185634551834,-142.0
14416.185697049046,3908.0
14416.185759546257,7730.0
14416.18582204347,10535.0
14416.185884540682,12249.0
14416.185947037895,13224.0
14416.186009535108,12681.0
14416.18607203232,10598.0
14416.186134529533,7513.0
14416.186197026746,4222.0
14416.186259523958,1570.0
14416.18632202117,471.0
14416.186384518383,1374.0
14416.186447015596,3308.0
14416.186509512807,5168.0
14416.18657201002,6552.0
14416.186634507232,7628.0
14416.186697004445,8178.0
14416.186759501657,8452.0
14416.18682199887,8796.0
14416.186884496083,9492.0
14416.186946993295,10238.0
14416.187009490508,11269.0
14416.18707198772,12211.0
14416.187134484931,12448.0
14416.187196982144,11429.0
14416.187259479357,9801.0
14416.18732197657,8072.0
14416.187384473782,6774.0
14416.187446970995,6155.0
14416.187509468207,6154.0
14416.18757196542,6517.0
14416.187634462633,6741.0
14416.187696959845,6534.0
14416.187759457058,5994.0
14416.18782195427,5197.0
14416.187884451481,4187.0
14416.187946948694,3119.0
14416.188009445907,2621.0
14416.18807194312,3004.0
14416.188134440332,3804.0
14416.188196937544,4536.0
14416.188259434757,4608.0
14416.18832193197,3603.0
14416.188384429182,1525.0
14416.188446926395,-1035.0
14416.188509423606,-3704.0
14416.188571920819,-6160.0
14416.188634418031,-8323.0
14416.188696915244,-10101.0
14416.188759412456,-11815.0
14416.188821909669,-14293.0
14416.188884406882,-17677.0
14416.188946904094,-21589.0
14416.189009401307,-25521.0
14416.18907189852,-28859.0
14416.189134395732,-30708.0
14416.189196892945,-32185.0
14416.189259390156,-32768.0
14416.189321887368,-32768.0
14416.189384384581,-32452.0
14416.189446881794,-25482.0
14416.189509379006,-13241.0
14416.189571876219,-2301.0
14416.189634373432,6641.0
14416.189696870644,12713.0
14416.189759367857,14585.0
14416.18982186507,13037.0
14416.18988436228,10393.0
14416.189946859493,6931.0
14416.190009356706,1577.0
14416.190071853918,-3579.0
14416.19013435113,-5872.0
14416.190196848343,-5393.0
14416.190259345556,-4335.0
14416.190321842769,-3813.0
14416.190384339981,-3213.0
14416.190446837194,-2731.0
14416.190509334407,-2484.0
14416.19057183162,-592.0
14416.19063432883,3242.0
14416.190696826043,7432.0
14416.190759323255,10241.0
14416.190821820468,11930.0
14416.19088431768,13141.0
14416.190946814893,12979.0
14416.191009312106,11027.0
14416.191071809319,8137.0
14416.191134306531,4998.0
14416.191196803742,2125.0
14416.191259300955,536.0
14416.191321798167,952.0
14416.19138429538,2883.0
14416.191446792593,4848.0
14416.191509289805,6409.0
14416.191571787018,7797.0
14416.19163428423,8884.0
14416.191696781443,9384.0
14416.191759278656,9549.0
14416.191821775868,9703.0
14416.191884273081,9927.0
14416.191946770294,10306.0
14416.192009267505,11103.0
14416.192071764717,11767.0
14416.19213426193,11489.0
14416.192196759142,10332.0
14416.192259256355,8879.0
14416.192321753568,7480.0
14416.19238425078,6597.0
14416.192446747993,6058.0
14416.192509245206,5905.0
14416.192571742416,5863.0
14416.19263423963,5620.0
14416.192696736842,5452.0
14416.192759234054,5318.0
14416.192821731267,5042.0
14416.19288422848,4505.0
14416.192946725692,3908.0
14416.193009222905,3792.0
14416.193071720118,4029.0
14416.19313421733,4342.0
14416.193196714543,4328.0
14416.193259211756,3599.0
14416.193321708968,2052.0
14416.193384206179,-81.0
14416.193446703392,-2312.0
14416.193509200604,-4411.0
14416.193571697817,-6441.0
14416.19363419503,-8440.0
14416.193696692242,-10406.0
14416.193759189455,-12889.0
14416.193821686667,-16237.0
14416.19388418388,-20116.0
14416.19394668109,-23899.0
14416.194009178304,-26886.0
14416.194071675516,-28590.0
14416.194134172729,-28743.0
14416.194196669941,-29527.0
14416.194259167154,-31740.0
14416.194321664367,-32768.0
14416.19438416158,-31989.0
14416.194446658792,-23872.0
14416.194509156005,-11134.0
14416.194571653217,-296.0
14416.19463415043,8382.0
14416.194696647643,13255.0
14416.194759144853,14475.0
14416.194821642066,13097.0
14416.194884139279,10608.0
14416.194946636491,5904.0
14416.195009133704,-610.0
14416.195071630917,-5642.0
14416.19513412813,-6928.0
14416.195196625342,-5104.0
14416.195259122554,-2637.0
14416.195321619765,-1219.0
14416.195384116978,-963.0
14416.19544661419,-1714.0
14416.195509111403,-2132.0
14416.195571608616,-290.0
14416.195634105829,3381.0
14416.195696603041,7084.0
14416.195759100254,9377.0
14416.195821597466,11352.0
14416.195884094679,12806.0
14416.195946591892,12975.0
14416.196009089104,11244.0
14416.196071586315,8286.0
14416.196134083528,4376.0
14416.19619658074,1050.0
14416.196259077953,-241.0
14416.196321575166,1128.0
14416.196384072378,3796.0
14416.196446569591,6272.0
14416.196509066804,7954.0
14416.196571564016,9190.0
14416.196634061229,9858.0
14416.19669655844,10002.0
14416.196759055652,9738.0
14416.196821552865,9370.0
14416.196884050078,9156.0
14416.19694654729,9685.0
14416.197009044503,11033.0
14416.197071541716,12113.0
14416.197134038928,11854.0
14416.19719653614,10514.0
14416.197259033353,8771.0
14416.197321530566,7227.0
14416.197384027779,6258.0
14416.19744652499,5792.0
14416.197509022202,5681.0
14416.197571519415,5563.0
14416.197634016627,5387.0
14416.19769651384,5370.0
14416.197759011053,5372.0
14416.197821508265,5174.0
14416.197884005478,4619.0
14416.19794650269,3803.0
14416.198008999903,3407.0
14416.198071497114,3455.0
14416.198133994327,3769.0
14416.19819649154,3879.0
14416.198258988752,3157.0
14416.198321485965,1573.0
14416.198383983177,-679.0
14416.19844648039,-3242.0
14416.198508977603,-5718.0
14416.198571474815,-7877.0
14416.198633972028,-9927.0
14416.19869646924,-12556.0
14416.198758966453,-15858.0
14416.198821463664,-19330.0
14416.198883960877,-22674.0
14416.19894645809,-25520.0
14416.199008955302,-27418.0
14416.199071452515,-28182.0
14416.199133949727,-29530.0
14416.19919644694,-31856.0
14416.199258944152,-32768.0
14416.199321441365,-32743.0
14416.199383938578,-26539.0
14416.199446435789,-14101.0
14416.199508933001,-3074.0
14416.199571430214,5135.0
14416.199633927426,10883.0
14416.19969642464,13706.0
14416.199758921852,13316.0
14416.199821419064,11139.0
14416.199883916277,7117.0
14416.19994641349,1386.0
14416.200008910702,-3920.0
14416.200071407915,-5953.0
14416.200133905128,-4475.0
14416.200196402338,-2240.0
14416.200258899551,-1289.0
14416.200321396764,-1551.0
14416.200383893976,-2130.0
14416.200446391189,-2212.0
14416.200508888402,-973.0
14416.200571385614,2190.0
14416.200633882827,6001.0
14416.20069638004,8853.0
14416.200758877252,10740.0
14416.200821374463,12318.0
14416.200883871676,13069.0
14416.200946368888,11800.0
14416.2010088661,8843.0
14416.201071363314,5298.0
14416.201133860526,2417.0
14416.201196357739,894.0
14416.201258854951,1477.0
14416.201321352164,3670.0
14416.201383849377,5968.0
14416.20144634659,7539.0
14416.201508843802,8635.0
14416.201571341013,9412.0
14416.201633838225,9786.0
14416.201696335438,9844.0
14416.20175883265,9723.0
14416.201821329863,9548.0
14416.201883827076,9908.0
14416.201946324289,10896.0
14416.202008821501,11964.0
14416.202071318714,11973.0
14416.202133815925,10881.0
14416.202196313137,9171.0
14416.20225881035,7468.0
14416.202321307563,6307.0
14416.202383804775,5756.0
14416.202446301988,5706.0
14416.2025087992,5833.0
14416.202571296413,5866.0
14416.202633793626,6002.0
14416.202696290839,6247.0
14416.202758788051,6084.0
14416.202821285264,5418.0
14416.202883782476,4452.0
14416.202946279687,3754.0
14416.2030087769,3602.0
14416.203071274113,3788.0
14416.203133771325,3844.0
14416.203196268538,3354.0
14416.20325876575,1926.0
14416.203321262963,-188.0
14416.203383760176,-2609.0
14416.203446257388,-4875.0
14416.2035087546,-7100.0
14416.203571251812,-9196.0
14416.203633749024,-11203.0
14416.203696246237,-13559.0
14416.20375874345,-16505.0
14416.203821240662,-19756.0
14416.203883737875,-23036.0
14416.203946235088,-25907.0
14416.2040087323,-27865.0
14416.204071229513,-28750.0
14416.204133726726,-30285.0
14416.204196223938,-32155.0
14416.20425872115,-32768.0
14416.204321218362,-31135.0
14416.204383715574,-22225.0
14416.204446212787,-10512.0
14416.20450871,-685.0
14416.204571207212,7092.0
14416.204633704425,12137.0
14416.204696201637,13827.0
14416.20475869885,12689.0
14416.204821196063,10196.0
14416.204883693274,5832.0
14416.204946190486,89.0
14416.205008687699,-4248.0
14416.205071184912,-5079.0
14416.205133682124,-3682.0
14416.205196179337,-1940.0
14416.20525867655,-1340.0
14416.205321173762,-1090.0
14416.205383670975,-1469.0
14416.205446168187,-1291.0
14416.2055086654,351.0
14416.205571162613,3535.0
14416.205633659825,6580.0
14416.205696157036,8986.0
14416.205758654249,10877.0
14416.205821151461,12538.0
14416.205883648674,12662.0
14416.205946145887,10974.0
14416.2060086431,7973.0
14416.206071140312,4675.0
14416.206133637525,1992.0
14416.206196134737,1139.0
14416.206258631948,2368.0
14416.20632112916,4602.0
14416.206383626373,6664.0
14416.206446123586,8159.0
14416.206508620799,9223.0
14416.206571118011,9750.0
14416.206633615224,9859.0
14416.206696112436,9781.0
14416.20675860965,9530.0
14416.206821106862,9583.0
14416.206883604074,10371.0
14416.206946101287,11335.0
14416.207008598498,11879.0
14416.20707109571,11497.0
14416.207133592923,10265.0
14416.207196090136,8558.0
14416.207258587348,7015.0
14416.207321084561,6018.0
14416.207383581774,5657.0
14416.207446078986,5680.0
14416.207508576199,5825.0
14416.207571073412,5925.0
14416.207633570622,5977.0
14416.207696067835,5934.0
14416.207758565048,5498.0
14416.20782106226,5018.0
14416.207883559473,4597.0
14416.207946056686,4200.0
14416.208008553898,3987.0
14416.20807105111,3827.0
14416.208133548324,3391.0
14416.208196045536,2321.0
14416.208258542749,621.0
14416.208321039961,-1509.0
14416.208383537172,-3779.0
14416.208446034385,-5970.0
14416.208508531598,-7968.0
14416.20857102881,-9910.0
14416.208633526023,-12238.0
14416.208696023235,-15283.0
14416.208758520448,-18819.0
14416.20882101766,-22426.0
14416.208883514873,-25615.0
14416.208946012086,-27606.0
14416.209008509297,-28064.0
14416.20907100651,-28578.0
14416.209133503722,-30561.0
14416.209196000935,-32713.0
14416.209258498147,-32512.0
14416.20932099536,-26579.0
14416.209383492573,-15653.0
14416.209445989785,-5044.0
14416.209508486998,3660.0
14416.20957098421,9859.0
14416.209633481423,13297.0
14416.209695978636,13167.0
14416.209758475847,11403.0
14416.20982097306,7777.0
14416.209883470272,2786.0
14416.209945967485,-2514.0
14416.210008464697,-4867.0
14416.21007096191,-4301.0
14416.210133459123,-2624.0
14416.210195956335,-1684.0
14416.210258453548,-1371.0
14416.21032095076,-1670.0
14416.210383447971,-1734.0
14416.210445945184,-620.0
14416.210508442397,2261.0
14416.21057093961,5734.0
14416.210633436822,8418.0
14416.210695934034,10333.0
14416.210758431247,11794.0
14416.21082092846,12655.0
14416.210883425672,11822.0
14416.210945922885,9554.0
14416.211008420098,6416.0
14416.21107091731,3604.0
14416.211133414521,1801.0
14416.211195911734,2123.0
14416.211258408946,3713.0
14416.211320906159,5827.0
14416.211383403372,7451.0
14416.211445900584,8658.0
14416.211508397797,9337.0
14416.21157089501,9872.0
14416.211633392222,9870.0
14416.211695889435,9672.0
14416.211758386646,9405.0
14416.211820883858,9775.0
14416.211883381071,10726.0
14416.211945878284,11752.0
14416.212008375496,11877.0
14416.212070872709,10891.0
14416.212133369922,9151.0
14416.212195867134,7334.0
14416.212258364347,5998.0
14416.21232086156,5506.0
14416.212383358772,5516.0
14416.212445855985,5850.0
14416.212508353196,6166.0
14416.212570850408,6366.0
14416.21263334762,6304.0
14416.212695844833,5841.0
14416.212758342046,4999.0
14416.212820839259,4082.0
14416.212883336471,3536.0
14416.212945833684,3549.0
14416.213008330897,3868.0
14416.21307082811,4183.0
14416.21313332532,3876.0
14416.213195822533,2538.0
14416.213258319745,455.0
14416.213320816958,-2013.0
14416.21338331417,-4544.0
14416.213445811383,-6885.0
14416.213508308596,-8915.0
14416.213570805809,-10916.0
14416.213633303021,-13379.0
14416.213695800234,-16575.0
14416.213758297446,-19877.0
14416.21382079466,-23188.0
14416.21388329187,-26236.0
14416.213945789083,-28297.0
14416.214008286295,-28953.0
14416.214070783508,-29369.0
14416.21413328072,-31218.0
14416.214195777933,-32757.0
14416.214258275146,-30192.0
14416.214320772358,-21766.0
14416.214383269571,-11010.0
14416.214445766782,-1063.0
14416.214508263995,6897.0
14416.214570761207,12035.0
14416.21463325842,14018.0
14416.214695755632,12744.0
14416.214758252845,10355.0
14416.214820750058,6110.0
14416.21488324727,691.0
14416.214945744483,-3803.0
14416.215008241696,-5378.0
14416.215070738908,-4323.0
14416.21513323612,-2484.0
14416.215195733334,-1546.0
14416.215258230544,-948.0
14416.215320727757,-1150.0
14416.21538322497,-831.0
14416.215445722182,466.0
14416.215508219395,3352.0
14416.215570716608,6402.0
14416.21563321382,8934.0
14416.215695711033,10683.0
14416.215758208245,11938.0
14416.215820705456,12078.0
14416.215883202669,10902.0
14416.215945699882,8336.0
14416.216008197094,5188.0
14416.216070694307,2776.0
14416.21613319152,1869.0
14416.216195688732,2568.0
14416.216258185945,4397.0
14416.216320683157,6413.0
14416.21638318037,7933.0
14416.216445677583,8808.0
14416.216508174795,9265.0
14416.216570672008,9635.0
14416.216633169219,9711.0
14416.216695666431,9579.0
14416.216758163644,9518.0
14416.216820660857,10150.0
14416.21688315807,11104.0
14416.216945655282,11693.0
14416.217008152495,11341.0
14416.217070649707,10135.0
14416.21713314692,8271.0
14416.21719564413,6341.0
14416.217258141343,5149.0
14416.217320638556,4826.0
14416.217383135769,5105.0
14416.217445632981,5727.0
14416.217508130194,6451.0
14416.217570627407,7099.0
14416.21763312462,7180.0
14416.217695621832,6728.0
14416.217758119044,5732.0
14416.217820616257,4604.0
14416.21788311347,3748.0
14416.21794561068,3216.0
14416.218008107893,3037.0
14416.218070605106,2875.0
14416.218133102318,2199.0
14416.218195599531,807.0
14416.218258096744,-1211.0
14416.218320593956,-3587.0
14416.218383091169,-6091.0
14416.218445588382,-8332.0
14416.218508085594,-10096.0
14416.218570582805,-11931.0
14416.218633080018,-14524.0
14416.21869557723,-17593.0
14416.218758074443,-20704.0
14416.218820571656,-23461.0
14416.218883068868,-25475.0
14416.218945566081,-26591.0
14416.219008063294,-27676.0
14416.219070560506,-30317.0
14416.219133057719,-32634.0
14416.219195554932,-32768.0
14416.219258052144,-28412.0
14416.219320549355,-17551.0
14416.219383046568,-6277.0
14416.21944554378,3059.0
14416.219508040993,9775.0
14416.219570538206,13305.0
14416.219633035418,13699.0
14416.21969553263,12167.0
14416.219758029843,8748.0
14416.219820527056,3564.0
14416.219883024269,-1650.0
14416.21994552148,-4537.0
14416.220008018692,-4178.0
14416.220070515905,-1935.0
14416.220133013117,-454.0
14416.22019551033,-158.0
14416.220258007543,-847.0
14416.220320504755,-1575.0
14416.220383001968,-1433.0
14416.22044549918,540.0
14416.220507996393,3707.0
14416.220570493606,6750.0
14416.220632990819,9038.0
14416.22069548803,11053.0
14416.220757985242,12286.0
14416.220820482455,12181.0
14416.220882979667,10529.0
14416.22094547688,7626.0
14416.221007974093,4456.0
14416.221070471305,2234.0
14416.221132968518,2062.0
14416.22119546573,3629.0
14416.221257962943,5875.0
14416.221320460154,7662.0
14416.221382957367,8811.0
14416.22144545458,9280.0
14416.221507951792,9336.0
14416.221570449005,9101.0
14416.221632946217,8877.0
14416.22169544343,8803.0
14416.221757940642,9092.0
14416.221820437855,9982.0
14416.221882935068,11446.0
14416.22194543228,12246.0
14416.222007929493,11689.0
14416.222070426704,9957.0
14416.222132923916,7921.0
14416.222195421129,6248.0
14416.222257918342,5398.0
14416.222320415554,5372.0
14416.222382912767,5786.0
14416.22244540998,6123.0
14416.222507907192,6227.0
14416.222570404405,6306.0
14416.222632901618,6175.0
14416.222695398828,5705.0
14416.222757896041,4912.0
14416.222820393254,4196.0
14416.222882890466,3869.0
14416.222945387679,3799.0
14416.223007884892,3799.0
14416.223070382104,3415.0
14416.223132879317,2048.0
14416.22319537653,-269.0
14416.223257873742,-2942.0
14416.223320370955,-5262.0
14416.223382868167,-7153.0
14416.223445365378,-8696.0
14416.22350786259,-10197.0
14416.223570359803,-12118.0
14416.223632857016,-14893.0
14416.223695354229,-18373.0
14416.223757851441,-22092.0
14416.223820348654,-25392.0
14416.223882845867,-27729.0
14416.22394534308,-28952.0
14416.224007840292,-29557.0
14416.224070337503,-31169.0
14416.224132834715,-32570.0
14416.224195331928,-30271.0
14416.22425782914,-22384.0
14416.224320326353,-11992.0
14416.224382823566,-2080.0
14416.224445320779,5743.0
14416.224507817991,10854.0
14416.224570315204,13014.0
14416.224632812417,12596.0
14416.22469530963,10754.0
14416.224757806842,6922.0
14416.224820304053,1885.0
14416.224882801265,-2410.0
14416.224945298478,-4544.0
14416.22500779569,-4223.0
14416.225070292903,-2801.0
14416.225132790116,-1783.0
14416.225195287328,-1391.0
14416.225257784541,-1546.0
14416.225320281754,-1312.0
14416.225382778965,4.0
14416.225445276177,2942.0
14416.22550777339,6080.0
14416.225570270602,8732.0
14416.225632767815,10481.0
14416.225695265028,11865.0
14416.22575776224,12220.0
14416.225820259453,11444.0
14416.225882756666,9367.0
14416.225945253878,6538.0
14416.226007751091,3767.0
14416.226070248304,2218.0
14416.226132745516,2342.0
14416.226195242727,3951.0
14416.22625773994,5798.0
14416.226320237152,7285.0
14416.226382734365,8129.0
14416.226445231578,8603.0
14416.22650772879,8796.0
14416.226570226003,9017.0
14416.226632723216,9216.0
14416.226695220428,9471.0
14416.226757717639,9669.0
14416.226820214852,10328.0
14416.226882712064,11098.0
14416.226945209277,11304.0
14416.22700770649,10544.0
14416.227070203702,9102.0
14416.227132700915,7363.0
14416.227195198127,6085.0
14416.22725769534,5506.0
14416.227320192553,5680.0
14416.227382689765,6119.0
14416.227445186978,6348.0
14416.22750768419,6274.0
14416.227570181401,6075.0
14416.227632678614,5777.0
14416.227695175827,5304.0
14416.22775767304,4614.0
14416.227820170252,4125.0
14416.227882667465,3870.0
14416.227945164677,3761.0
14416.22800766189,3558.0
14416.228070159103,3029.0
14416.228132656313,1826.0
14416.228195153526,-58.0
14416.228257650739,-2323.0
14416.228320147951,-4490.0
14416.228382645164,-6438.0
14416.228445142377,-8199.0
14416.22850763959,-9703.0
14416.228570136802,-11353.0
14416.228632634015,-13666.0
14416.228695131227,-16660.0
14416.22875762844,-20099.0
14416.228820125652,-23594.0
14416.228882622863,-26435.0
14416.228945120076,-28243.0
14416.229007617289,-29364.0
14416.229070114501,-31055.0
14416.229132611714,-32760.0
14416.229195108926,-32184.0
14416.229257606139,-25915.0
14416.229320103352,-14955.0
14416.229382600564,-4549.0
14416.229445097777,4635.0
14416.229507594988,10924.0
14416.2295700922,13765.0
14416.229632589413,13440.0
14416.229695086626,11639.0
14416.229757583838,8447.0
14416.229820081051,3182.0
14416.229882578264,-1548.0
14416.229945075476,-4138.0
14416.230007572689,-4183.0
14416.230070069902,-2896.0
14416.230132567114,-2019.0
14416.230195064327,-1862.0
14416.230257561538,-2265.0
14416.23032005875,-2529.0
14416.230382555963,-1302.0
14416.230445053176,1621.0
14416.230507550388,5331.0
14416.2305700476,8203.0
14416.230632544813,10482.0
14416.230695042026,12201.0
14416.230757539239,13049.0
14416.230820036451,12344.0
14416.230882533662,10450.0
14416.230945030875,7409.0
14416.231007528088,4340.0
14416.2310700253,2309.0
14416.231132522513,2244.0
14416.231195019725,3691.0
14416.231257516938,5382.0
14416.23132001415,6711.0
14416.231382511363,7634.0
14416.231445008576,8152.0
14416.231507505789,8330.0
14416.231570003001,8506.0
14416.231632500212,8724.0
14416.231694997425,8844.0
14416.231757494637,9008.0
14416.23181999185,9709.0
14416.231882489063,10907.0
14416.231944986275,11665.0
14416.232007483488,11378.0
14416.2320699807,10079.0
14416.232132477913,8308.0
14416.232194975126,6781.0
14416.232257472337,5772.0
14416.23231996955,5562.0
14416.232382466762,5762.0
14416.232444963975,5836.0
14416.232507461187,5674.0
14416.2325699584,5556.0
14416.232632455612,5538.0
14416.232694952825,5306.0
14416.232757450038,4769.0
14416.23281994725,4299.0
14416.232882444463,3977.0
14416.232944941676,3655.0
14416.233007438886,3364.0
14416.2330699361,2919.0
14416.233132433312,1919.0
14416.233194930524,233.0
14416.233257427737,-1899.0
14416.23331992495,-3896.0
14416.233382422162,-5504.0
14416.233444919375,-6943.0
14416.233507416588,-8451.0
14416.2335699138,-10166.0
14416.233632411011,-12416.0
14416.233694908224,-15351.0
14416.233757405436,-18746.0
14416.233819902649,-22075.0
14416.233882399862,-24826.0
14416.233944897074,-26526.0
14416.234007394287,-27327.0
14416.2340698915,-28790.0
14416.234132388712,-31567.0
14416.234194885925,-32768.0
14416.234257383137,-29721.0
14416.23431988035,-20276.0
14416.23438237756,-9525.0
14416.234444874774,67.0
14416.234507371986,8024.0
14416.234569869199,13073.0
14416.234632366411,14573.0
