0,1,2,3,4
15069.160006296786,0.9188636541366577,1.0764057636260986,1.1727445125579834,1.439578652381897
15069.162006356848,0.9190255403518677,1.0762438774108887,1.1732302904129028,1.4384453296661377
15069.164006416908,0.9182159900665283,1.0760819911956787,1.1730684041976929,1.4376356601715088
15069.166006476968,0.9188636541366577,1.0757580995559692,1.1730684041976929,1.4374737739562988
15069.16800653703,0.9195113182067871,1.0755962133407593,1.1727445125579834,1.4377976655960083
15069.170006597089,0.9191874861717224,1.0749485492706299,1.172096848487854,1.4382833242416382
15069.172006657149,0.918701708316803,1.0755962133407593,1.172096848487854,1.439740538597107
15069.17400671721,0.9201589822769165,1.0764057636260986,1.1724207401275635,1.439578652381897
15069.17600677727,0.9203208684921265,1.077053427696228,1.1733921766281128,1.4384453296661377
15069.17800683733,0.9198351502418518,1.0760819911956787,1.1732302904129028,1.4384453296661377
15069.180006897392,0.9196732044219971,1.0765676498413086,1.1735540628433228,1.4390928745269775
15069.182006957451,0.9206447005271912,1.0764057636260986,1.1742017269134521,1.439416766166687
15069.184007017513,0.9203208684921265,1.0757580995559692,1.1733921766281128,1.4390928745269775
15069.186007077573,0.9201589822769165,1.0749485492706299,1.1730684041976929,1.439254879951477
15069.188007137633,0.9203208684921265,1.0752724409103394,1.1733921766281128,1.439578652381897
15069.190007197694,0.9203208684921265,1.0754343271255493,1.1725826263427734,1.4379595518112183
15069.192007257754,0.9206447005271912,1.0754343271255493,1.1725826263427734,1.4379595518112183
15069.194007317814,0.9229114651679993,1.0754343271255493,1.1725826263427734,1.4382833242416382
15069.196007377876,0.92194002866745,1.0760819911956787,1.1724207401275635,1.439578652381897
15069.198007437935,0.9217780828475952,1.0754343271255493,1.1727445125579834,1.4402263164520264
15069.200007497995,0.9212923645973206,1.07462477684021,1.1725826263427734,1.4405502080917358
15069.202007558057,0.9217780828475952,1.07478666305542,1.1727445125579834,1.4400644302368164
15069.204007618117,0.9199970364570618,1.0752724409103394,1.1730684041976929,1.439254879951477
15069.206007678178,0.9206447005271912,1.0751104354858398,1.172096848487854,1.4386072158813477
15069.208007738238,0.9211304187774658,1.073653221130371,1.1727445125579834,1.4384453296661377
15069.210007798298,0.9206447005271912,1.0734913349151611,1.1733921766281128,1.4379595518112183
15069.21200785836,0.9206447005271912,1.0739771127700806,1.172096848487854,1.4379595518112183
15069.21400791842,0.9214542508125305,1.07478666305542,1.171934962272644,1.4381214380264282
15069.21600797848,0.9211304187774658,1.0744627714157104,1.1727445125579834,1.4379595518112183
15069.21800803854,0.9217780828475952,1.0733294486999512,1.1729063987731934,1.4387691020965576
15069.2200080986,0.9229114651679993,1.0731675624847412,1.1722588539123535,1.439578652381897
15069.222008158662,0.923073410987854,1.0741389989852905,1.1724207401275635,1.439254879951477
15069.224008218722,0.9217780828475952,1.073653221130371,1.1730684041976929,1.4387691020965576
15069.226008278782,0.92194002866745,1.0734913349151611,1.1722588539123535,1.4381214380264282
15069.228008338843,0.9222638607025146,1.0728436708450317,1.1727445125579834,1.4379595518112183
15069.230008398903,0.9214542508125305,1.0728436708450317,1.1724207401275635,1.4366642236709595
15069.232008458963,0.9212923645973206,1.0730055570602417,1.171934962272644,1.437150001525879
15069.234008519024,0.9233972430229187,1.0728436708450317,1.171773076057434,1.4379595518112183
15069.236008579084,0.9229114651679993,1.0733294486999512,1.1712872982025146,1.4377976655960083
15069.238008639146,0.9224257469177246,1.0726817846298218,1.1704777479171753,1.4387691020965576
15069.240008699206,0.9225876927375793,1.0717103481292725,1.1699919700622559,1.4387691020965576
15069.242008759265,0.923073410987854,1.071224570274353,1.1708015203475952,1.4377976655960083
15069.244008819327,0.9214542508125305,1.0707387924194336,1.1708015203475952,1.4369879961013794
15069.246008879387,0.92194002866745,1.071062684059143,1.1704777479171753,1.4373118877410889
15069.248008939447,0.9224257469177246,1.0704150199890137,1.1699919700622559,1.4379595518112183
15069.250008999508,0.9217780828475952,1.0691196918487549,1.169830083847046,1.4369879961013794
15069.252009059568,0.9211304187774658,1.0694434642791748,1.169830083847046,1.4363404512405396
15069.254009119628,0.9225876927375793,1.0697673559188843,1.1701538562774658,1.437150001525879
15069.25600917969,0.9225876927375793,1.0700911283493042,1.1704777479171753,1.4387691020965576
15069.25800923975,0.9227495789527893,1.0700911283493042,1.1699919700622559,1.4386072158813477
15069.260009299811,0.9238829612731934,1.0692815780639648,1.1690205335617065,1.4384453296661377
15069.26200935987,0.9242067933082581,1.067986249923706,1.1690205335617065,1.4384453296661377
15069.26400941993,0.9222638607025146,1.0675004720687866,1.168696641921997,1.4376356601715088
15069.266009479992,0.9224257469177246,1.0671766996383667,1.168696641921997,1.4368261098861694
15069.268009540052,0.9237210750579834,1.0676624774932861,1.1680489778518677,1.4368261098861694
15069.270009600114,0.923073410987854,1.067824363708496,1.1678870916366577,1.4374737739562988
15069.272009660173,0.9227495789527893,1.0683101415634155,1.1678870916366577,1.4381214380264282
15069.274009720233,0.9243687391281128,1.0684720277786255,1.1682109832763672,1.4384453296661377
15069.276009780293,0.9243687391281128,1.068148136138916,1.168534755706787,1.4389309883117676
15069.278009840355,0.9240449070930481,1.0671766996383667,1.1680489778518677,1.4384453296661377
15069.280009900414,0.9251782894134521,1.0670148134231567,1.1670775413513184,1.4386072158813477
15069.282009960476,0.9255021214485168,1.0673385858535767,1.1678870916366577,1.4382833242416382
15069.284010020536,0.9245306253433228,1.067824363708496,1.1682109832763672,1.4377976655960083
15069.286010080596,0.9245306253433228,1.068148136138916,1.1680489778518677,1.4377976655960083
15069.288010140657,0.9240449070930481,1.067824363708496,1.1677252054214478,1.4373118877410889
15069.290010200717,0.923235297203064,1.0673385858535767,1.1675633192062378,1.4376356601715088
15069.292010260779,0.9235591292381287,1.0675004720687866,1.1675633192062378,1.4379595518112183
15069.294010320838,0.9251782894134521,1.067824363708496,1.1688586473464966,1.4377976655960083
15069.296010380898,0.9258259534835815,1.0670148134231567,1.1688586473464966,1.4387691020965576
15069.29801044096,0.9256640076637268,1.0676624774932861,1.168696641921997,1.4386072158813477
15069.30001050102,0.9264736175537109,1.067986249923706,1.1688586473464966,1.439254879951477
15069.30201056108,0.9279308319091797,1.0684720277786255,1.169668197631836,1.4386072158813477
15069.304010621141,0.9267974495887756,1.0673385858535767,1.1693443059921265,1.4382833242416382
15069.3060106812,0.9266355037689209,1.0671766996383667,1.169506311416626,1.4387691020965576
15069.30801074126,0.9267974495887756,1.0673385858535767,1.1691824197769165,1.4389309883117676
15069.310010801322,0.9266355037689209,1.0671766996383667,1.1703158617019653,1.4384453296661377
15069.312010861382,0.9274450540542603,1.0676624774932861,1.1703158617019653,1.4387691020965576
15069.314010921444,0.9292261004447937,1.0673385858535767,1.1709635257720947,1.4402263164520264
15069.316010981503,0.9293880462646484,1.0671766996383667,1.1711254119873047,1.4405502080917358
15069.318011041563,0.9298737645149231,1.0683101415634155,1.1711254119873047,1.4402263164520264
15069.320011101625,0.9301975965499878,1.068957805633545,1.1708015203475952,1.4402263164520264
15069.322011161685,0.9298737645149231,1.067986249923706,1.171773076057434,1.439578652381897
15069.324011221745,0.9292261004447937,1.0675004720687866,1.1725826263427734,1.4403882026672363
15069.326011281806,0.9301975965499878,1.067986249923706,1.1730684041976929,1.4402263164520264
15069.328011341866,0.9301975965499878,1.0671766996383667,1.1733921766281128,1.4403882026672363
15069.330011401926,0.9301975965499878,1.067824363708496,1.1740398406982422,1.439740538597107
15069.332011461987,0.9301975965499878,1.0675004720687866,1.1742017269134521,1.4402263164520264
15069.334011522047,0.9324644207954407,1.067824363708496,1.1738779544830322,1.4407120943069458
15069.336011582109,0.932140588760376,1.0683101415634155,1.1748493909835815,1.4405502080917358
15069.338011642169,0.932140588760376,1.068957805633545,1.1750112771987915,1.4407120943069458
15069.340011702228,0.9337596893310547,1.068957805633545,1.175173282623291,1.441845417022705
15069.34201176229,0.9345692992210388,1.068148136138916,1.175497055053711,1.4411978721618652
15069.34401182235,0.9337596893310547,1.0684720277786255,1.1764686107635498,1.4402263164520264
15069.346011882411,0.93327397108078,1.067986249923706,1.1761447191238403,1.4411978721618652
15069.348011942471,0.9339216351509094,1.067824363708496,1.1769542694091797,1.4415216445922852
15069.350012002531,0.9337596893310547,1.0684720277786255,1.1769542694091797,1.4415216445922852
15069.352012062593,0.93327397108078,1.0676624774932861,1.1766304969787598,1.4411978721618652
15069.354012122652,0.9353788495063782,1.0676624774932861,1.1769542694091797,1.4411978721618652
15069.356012182712,0.9352169632911682,1.067986249923706,1.1782495975494385,1.4411978721618652
15069.358012242774,0.9350550174713135,1.067986249923706,1.1779258251190186,1.4405502080917358
15069.360012302834,0.9360265135765076,1.0670148134231567,1.1771161556243896,1.4410358667373657
15069.362012362893,0.9357026815414429,1.0665290355682373,1.1774400472640991,1.4403882026672363
15069.364012422955,0.9347311854362488,1.0670148134231567,1.177601933479309,1.439740538597107
15069.366012483015,0.9353788495063782,1.0666909217834473,1.177601933479309,1.4399025440216064
15069.368012543076,0.9348931312561035,1.0676624774932861,1.1779258251190186,1.4400644302368164
15069.370012603136,0.9350550174713135,1.0673385858535767,1.1784114837646484,1.4400644302368164
15069.372012663196,0.9352169632911682,1.0670148134231567,1.1782495975494385,1.439740538597107
15069.374012723258,0.9369980096817017,1.0663671493530273,1.177601933479309,1.4400644302368164
15069.376012783317,0.9358645677566528,1.0662052631378174,1.1782495975494385,1.4411978721618652
15069.378012843377,0.9358645677566528,1.0653955936431885,1.1772781610488892,1.4403882026672363
15069.380012903439,0.9363503456115723,1.065557599067688,1.1766304969787598,1.439740538597107
15069.382012963499,0.9363503456115723,1.065719485282898,1.1771161556243896,1.439578652381897
15069.384013023559,0.9348931312561035,1.0650718212127686,1.1779258251190186,1.4387691020965576
15069.38601308362,0.9361883997917175,1.0647480487823486,1.1784114837646484,1.439416766166687
15069.38801314368,0.9365122318267822,1.0644241571426392,1.1788972616195679,1.4403882026672363
15069.390013203742,0.9348931312561035,1.0644241571426392,1.178573489189148,1.4403882026672363
15069.392013263801,0.9355407953262329,1.0637764930725098,1.1779258251190186,1.4402263164520264
15069.394013323861,0.9371598958969116,1.0639383792877197,1.1782495975494385,1.4403882026672363
15069.396013383923,0.9368360638618469,1.0639383792877197,1.1784114837646484,1.439740538597107
15069.398013443983,0.9363503456115723,1.0645860433578491,1.1784114837646484,1.439740538597107
15069.400013504042,0.937645673751831,1.0650718212127686,1.1784114837646484,1.439578652381897
15069.402013564104,0.937807559967041,1.0642622709274292,1.1779258251190186,1.4382833242416382
15069.404013624164,0.936674177646637,1.0642622709274292,1.1780877113342285,1.4384453296661377
15069.406013684224,0.9373218417167664,1.0649099349975586,1.178573489189148,1.4381214380264282
15069.408013744285,0.937807559967041,1.0650718212127686,1.1782495975494385,1.4382833242416382
15069.410013804345,0.9368360638618469,1.0649099349975586,1.178573489189148,1.4377976655960083
15069.412013864407,0.9369980096817017,1.0639383792877197,1.178735375404358,1.4384453296661377
15069.414013924466,0.9384552240371704,1.0639383792877197,1.1793830394744873,1.4390928745269775
15069.416013984526,0.9386171102523804,1.0650718212127686,1.1788972616195679,1.4389309883117676
15069.418014044588,0.937969446182251,1.0649099349975586,1.1793830394744873,1.4384453296661377
15069.420014104648,0.9392647743225098,1.0647480487823486,1.1795449256896973,1.4382833242416382
15069.42201416471,0.9389409422874451,1.0639383792877197,1.178735375404358,1.4379595518112183
15069.424014224769,0.9371598958969116,1.0637764930725098,1.1790591478347778,1.4390928745269775
15069.426014284829,0.9371598958969116,1.0642622709274292,1.1788972616195679,1.4390928745269775
15069.42801434489,0.9373218417167664,1.0636146068572998,1.1793830394744873,1.4377976655960083
15069.43001440495,0.9363503456115723,1.0634527206420898,1.1790591478347778,1.4373118877410889
15069.43201446501,0.9361883997917175,1.0631288290023804,1.1790591478347778,1.4374737739562988
15069.434014525072,0.9384552240371704,1.0631288290023804,1.1793830394744873,1.4386072158813477
15069.436014585131,0.9394267201423645,1.062319278717041,1.1790591478347778,1.4386072158813477
15069.438014645191,0.9392647743225098,1.0626431703567505,1.1795449256896973,1.4382833242416382
15069.440014705253,0.9381313920021057,1.0629669427871704,1.1788972616195679,1.4376356601715088
15069.442014765313,0.9382932782173157,1.0641003847122192,1.1788972616195679,1.437150001525879
15069.444014825374,0.9371598958969116,1.0639383792877197,1.1790591478347778,1.4376356601715088
15069.446014885434,0.9374837279319763,1.0632907152175903,1.1788972616195679,1.4376356601715088
15069.448014945494,0.937645673751831,1.0632907152175903,1.178735375404358,1.437150001525879
15069.450015005556,0.9365122318267822,1.0631288290023804,1.1792210340499878,1.4353688955307007
15069.452015065615,0.9365122318267822,1.0636146068572998,1.1788972616195679,1.4365023374557495
15069.454015125675,0.9373218417167664,1.0641003847122192,1.1784114837646484,1.4368261098861694
15069.456015185737,0.937645673751831,1.0647480487823486,1.1779258251190186,1.4374737739562988
15069.458015245797,0.9386171102523804,1.0644241571426392,1.178573489189148,1.4363404512405396
15069.460015305856,0.9394267201423645,1.0631288290023804,1.1797068119049072,1.4358546733856201
15069.462015365918,0.9394267201423645,1.0626431703567505,1.1798686981201172,1.4365023374557495
15069.464015425978,0.9381313920021057,1.062481164932251,1.1800307035446167,1.4368261098861694
15069.46601548604,0.9371598958969116,1.0632907152175903,1.1790591478347778,1.4365023374557495
15069.4680155461,0.9369980096817017,1.0631288290023804,1.1790591478347778,1.4355307817459106
15069.470015606159,0.9360265135765076,1.0618335008621216,1.1792210340499878,1.4358546733856201
15069.47201566622,0.9369980096817017,1.062319278717041,1.1798686981201172,1.4353688955307007
15069.47401572628,0.9387790560722351,1.0626431703567505,1.1795449256896973,1.43601655960083
15069.476015786342,0.9386171102523804,1.0628050565719604,1.1800307035446167,1.4365023374557495
15069.478015846402,0.9386171102523804,1.0631288290023804,1.1800307035446167,1.4358546733856201
15069.480015906462,0.9391028881072998,1.062157392501831,1.178573489189148,1.4363404512405396
15069.482015966521,0.9391028881072998,1.062319278717041,1.178735375404358,1.4358546733856201
15069.484016026583,0.9373218417167664,1.062157392501831,1.178735375404358,1.4348831176757812
15069.486016086643,0.937807559967041,1.062481164932251,1.1795449256896973,1.4350451231002808
15069.488016146704,0.937645673751831,1.062319278717041,1.1792210340499878,1.4355307817459106
15069.490016206764,0.9368360638618469,1.0615097284317017,1.1790591478347778,1.4347212314605713
15069.492016266824,0.9373218417167664,1.0615097284317017,1.1790591478347778,1.4342354536056519
15069.494016326886,0.937969446182251,1.0615097284317017,1.1788972616195679,1.4342354536056519
15069.496016386945,0.9382932782173157,1.0616716146469116,1.178735375404358,1.4356927871704102
15069.498016447007,0.9389409422874451,1.061995506286621,1.1788972616195679,1.4355307817459106
15069.500016507067,0.9399124383926392,1.0626431703567505,1.1801925897598267,1.43601655960083
15069.502016567127,0.9394267201423645,1.0629669427871704,1.1803544759750366,1.43601655960083
15069.504016627188,0.937969446182251,1.062319278717041,1.1795449256896973,1.4352070093154907
15069.506016687248,0.9384552240371704,1.0618335008621216,1.1793830394744873,1.4352070093154907
15069.508016747308,0.9389409422874451,1.0618335008621216,1.1793830394744873,1.4353688955307007
15069.51001680737,0.9384552240371704,1.062481164932251,1.1801925897598267,1.4352070093154907
15069.51201686743,0.9387790560722351,1.062319278717041,1.180840253829956,1.4365023374557495
15069.51401692749,0.9407219886779785,1.0616716146469116,1.180678367614746,1.4366642236709595
15069.51601698755,0.9407219886779785,1.061995506286621,1.1805163621902466,1.43617844581604
15069.51801704761,0.9403981566429138,1.0616716146469116,1.1803544759750366,1.4369879961013794
15069.520017107672,0.9410458207130432,1.0618335008621216,1.180678367614746,1.4365023374557495
15069.522017167732,0.9403981566429138,1.0611858367919922,1.181164026260376,1.4358546733856201
15069.524017227792,0.9402362704277039,1.0610239505767822,1.180840253829956,1.4356927871704102
15069.526017287853,0.9407219886779785,1.0610239505767822,1.181002140045166,1.4366642236709595
15069.528017347913,0.9402362704277039,1.0616716146469116,1.1818116903305054,1.4368261098861694
15069.530017407973,0.9387790560722351,1.0628050565719604,1.1821355819702148,1.4365023374557495
15069.532017468035,0.9394267201423645,1.062319278717041,1.181002140045166,1.43617844581604
15069.534017528094,0.9400743842124939,1.0629669427871704,1.1803544759750366,1.4368261098861694
15069.536017588154,0.9397505521774292,1.062319278717041,1.181164026260376,1.43617844581604
15069.538017648216,0.9399124383926392,1.062319278717041,1.1813260316848755,1.4368261098861694
15069.540017708276,0.9410458207130432,1.062157392501831,1.1818116903305054,1.4373118877410889
15069.542017768337,0.941207766532898,1.062319278717041,1.1813260316848755,1.4368261098861694
15069.544017828397,0.9407219886779785,1.0626431703567505,1.1814879179000854,1.4369879961013794
15069.546017888457,0.9403981566429138,1.061995506286621,1.181164026260376,1.4369879961013794
15069.548017948518,0.9415315985679626,1.0615097284317017,1.1824593544006348,1.43617844581604
15069.550018008578,0.9402362704277039,1.0611858367919922,1.1816498041152954,1.4358546733856201
15069.55201806864,0.9399124383926392,1.061995506286621,1.1798686981201172,1.4363404512405396
15069.5540181287,0.9410458207130432,1.0626431703567505,1.1793830394744873,1.4368261098861694
15069.55601818876,0.941207766532898,1.0626431703567505,1.1798686981201172,1.4374737739562988
15069.558018248821,0.9416934847831726,1.062481164932251,1.1797068119049072,1.4373118877410889
15069.56001830888,0.9418554306030273,1.062319278717041,1.1790591478347778,1.4369879961013794
15069.56201836894,0.9413696527481079,1.0615097284317017,1.1790591478347778,1.43617844581604
15069.564018429002,0.9402362704277039,1.0618335008621216,1.1792210340499878,1.4356927871704102
15069.566018489062,0.9403981566429138,1.061995506286621,1.1790591478347778,1.4355307817459106
15069.568018549122,0.9399124383926392,1.0616716146469116,1.178735375404358,1.43617844581604
15069.570018609184,0.9384552240371704,1.0611858367919922,1.178735375404358,1.4356927871704102
15069.572018669243,0.9392647743225098,1.0618335008621216,1.1780877113342285,1.4356927871704102
15069.574018729305,0.9395886063575745,1.062157392501831,1.177763819694519,1.43617844581604
15069.576018789365,0.9391028881072998,1.0611858367919922,1.1763066053390503,1.4363404512405396
15069.578018849425,0.9400743842124939,1.0611858367919922,1.177601933479309,1.4369879961013794
15069.580018909486,0.941207766532898,1.0616716146469116,1.1774400472640991,1.4368261098861694
15069.582018969546,0.941207766532898,1.0616716146469116,1.1767923831939697,1.4363404512405396
15069.584019029606,0.9389409422874451,1.0611858367919922,1.1769542694091797,1.4358546733856201
15069.586019089667,0.9395886063575745,1.0607001781463623,1.1764686107635498,1.43601655960083
15069.588019149727,0.9400743842124939,1.0607001781463623,1.1758209466934204,1.4366642236709595
15069.590019209787,0.9386171102523804,1.0610239505767822,1.175335168838501,1.4365023374557495
15069.592019269849,0.9387790560722351,1.0602144002914429,1.175497055053711,1.4368261098861694
15069.594019329908,0.9395886063575745,1.0608620643615723,1.1746875047683716,1.4366642236709595
15069.59601938997,0.9402362704277039,1.0613478422164917,1.175658941268921,1.4368261098861694
15069.59801945003,0.9400743842124939,1.0608620643615723,1.175658941268921,1.4376356601715088
15069.60001951009,0.9399124383926392,1.0605382919311523,1.1746875047683716,1.4382833242416382
15069.602019570151,0.9395886063575745,1.0602144002914429,1.1742017269134521,1.4374737739562988
15069.604019630211,0.9384552240371704,1.0587571859359741,1.1748493909835815,1.4373118877410889
15069.606019690273,0.9384552240371704,1.0587571859359741,1.1748493909835815,1.4366642236709595
15069.608019750332,0.937969446182251,1.0602144002914429,1.1745256185531616,1.4365023374557495
15069.610019810392,0.9371598958969116,1.0603762865066528,1.1743637323379517,1.4368261098861694
15069.612019870452,0.937807559967041,1.0607001781463623,1.1733921766281128,1.4369879961013794
15069.614019930514,0.9387790560722351,1.0597286224365234,1.1730684041976929,1.4365023374557495
15069.616019990573,0.9395886063575745,1.0597286224365234,1.1738779544830322,1.4368261098861694
15069.618020050635,0.9382932782173157,1.060052514076233,1.1737160682678223,1.4366642236709595
15069.620020110695,0.9394267201423645,1.060052514076233,1.1737160682678223,1.4368261098861694
15069.622020170755,0.9397505521774292,1.059890627861023,1.1742017269134521,1.4363404512405396
15069.624020230816,0.9382932782173157,1.060052514076233,1.1742017269134521,1.4365023374557495
15069.626020290876,0.9382932782173157,1.059890627861023,1.1746875047683716,1.437150001525879
15069.628020350938,0.937969446182251,1.0592429637908936,1.1746875047683716,1.4376356601715088
15069.630020410998,0.9374837279319763,1.0592429637908936,1.1745256185531616,1.4376356601715088
15069.632020471057,0.9382932782173157,1.0595667362213135,1.1743637323379517,1.4379595518112183
15069.634020531119,0.9397505521774292,1.0610239505767822,1.1740398406982422,1.4373118877410889
15069.636020591179,0.9399124383926392,1.0605382919311523,1.1727445125579834,1.4368261098861694
15069.638020651239,0.9392647743225098,1.060052514076233,1.1738779544830322,1.4368261098861694
15069.6400207113,0.9400743842124939,1.0592429637908936,1.1742017269134521,1.4369879961013794
15069.64202077136,0.9399124383926392,1.0587571859359741,1.1740398406982422,1.437150001525879
15069.64402083142,0.9384552240371704,1.0587571859359741,1.1730684041976929,1.4369879961013794
15069.646020891481,0.9382932782173157,1.0595667362213135,1.1738779544830322,1.4381214380264282
15069.648020951541,0.9382932782173157,1.060052514076233,1.1743637323379517,1.4382833242416382
15069.650021011603,0.937645673751831,1.059890627861023,1.1743637323379517,1.4374737739562988
15069.652021071663,0.9384552240371704,1.0594048500061035,1.1743637323379517,1.4376356601715088
15069.654021131722,0.9394267201423645,1.058919072151184,1.1742017269134521,1.4381214380264282
15069.656021191784,0.9405601024627686,1.0595667362213135,1.1727445125579834,1.4381214380264282
15069.658021251844,0.9397505521774292,1.0597286224365234,1.1725826263427734,1.4384453296661377
15069.660021311904,0.9402362704277039,1.0603762865066528,1.1730684041976929,1.4389309883117676
15069.662021371965,0.9391028881072998,1.0607001781463623,1.1722588539123535,1.4386072158813477
15069.664021432025,0.9382932782173157,1.0607001781463623,1.171773076057434,1.4389309883117676
15069.666021492085,0.9382932782173157,1.0603762865066528,1.1722588539123535,1.4389309883117676
15069.668021552146,0.9387790560722351,1.0607001781463623,1.171773076057434,1.4389309883117676
15069.670021612206,0.937645673751831,1.0602144002914429,1.1716111898422241,1.4382833242416382
15069.672021672268,0.9382932782173157,1.0602144002914429,1.1708015203475952,1.4389309883117676
15069.674021732328,0.9394267201423645,1.0603762865066528,1.1714491844177246,1.4387691020965576
15069.676021792387,0.9386171102523804,1.0603762865066528,1.171773076057434,1.439740538597107
15069.67802185245,0.9391028881072998,1.0602144002914429,1.171773076057434,1.439740538597107
15069.680021912509,0.9394267201423645,1.059890627861023,1.1711254119873047,1.4402263164520264
15069.68202197257,0.9392647743225098,1.059890627861023,1.1714491844177246,1.439254879951477
15069.68402203263,0.9381313920021057,1.0605382919311523,1.171773076057434,1.4384453296661377
15069.68602209269,0.9381313920021057,1.060052514076233,1.1701538562774658,1.4390928745269775
15069.688022152752,0.937645673751831,1.0595667362213135,1.1699919700622559,1.439254879951477
15069.690022212812,0.9368360638618469,1.059890627861023,1.1699919700622559,1.439740538597107
15069.692022272871,0.937969446182251,1.060052514076233,1.1708015203475952,1.4408739805221558
15069.694022332933,0.9389409422874451,1.0602144002914429,1.1701538562774658,1.439578652381897
15069.696022392993,0.9384552240371704,1.0607001781463623,1.1706396341323853,1.439740538597107
15069.698022453053,0.9394267201423645,1.060052514076233,1.1709635257720947,1.4400644302368164
15069.700022513114,0.9395886063575745,1.0595667362213135,1.1711254119873047,1.4400644302368164
15069.702022573174,0.9392647743225098,1.0607001781463623,1.1708015203475952,1.4400644302368164
15069.704022633236,0.9381313920021057,1.0605382919311523,1.169830083847046,1.4400644302368164
15069.706022693295,0.937969446182251,1.0605382919311523,1.1704777479171753,1.4400644302368164
15069.708022753355,0.9384552240371704,1.059890627861023,1.1699919700622559,1.4402263164520264
15069.710022813417,0.937645673751831,1.060052514076233,1.169830083847046,1.439254879951477
15069.712022873477,0.9374837279319763,1.0594048500061035,1.169668197631836,1.4402263164520264
15069.714022933536,0.9382932782173157,1.0597286224365234,1.169830083847046,1.4402263164520264
15069.716022993598,0.9391028881072998,1.0602144002914429,1.169668197631836,1.4405502080917358
15069.718023053658,0.9387790560722351,1.0610239505767822,1.1699919700622559,1.4408739805221558
15069.720023113718,0.9394267201423645,1.0611858367919922,1.1701538562774658,1.4407120943069458
15069.72202317378,0.9384552240371704,1.0605382919311523,1.1709635257720947,1.4402263164520264
15069.724023233839,0.937645673751831,1.0611858367919922,1.1701538562774658,1.4399025440216064
15069.7260232939,0.9374837279319763,1.061995506286621,1.169668197631836,1.4399025440216064
15069.72802335396,0.937645673751831,1.062319278717041,1.1704777479171753,1.439740538597107
15069.73002341402,0.9369980096817017,1.0626431703567505,1.1701538562774658,1.439740538597107
15069.732023474082,0.937645673751831,1.0626431703567505,1.169830083847046,1.4405502080917358
15069.734023534142,0.9386171102523804,1.0626431703567505,1.169830083847046,1.4407120943069458
15069.736023594201,0.9384552240371704,1.062157392501831,1.1711254119873047,1.4408739805221558
15069.738023654263,0.9386171102523804,1.0629669427871704,1.1722588539123535,1.4415216445922852
15069.740023714323,0.9394267201423645,1.062481164932251,1.1716111898422241,1.441845417022705
15069.742023774383,0.9395886063575745,1.0628050565719604,1.1716111898422241,1.4413597583770752
15069.744023834444,0.937969446182251,1.0629669427871704,1.1711254119873047,1.4408739805221558
15069.746023894504,0.937807559967041,1.062481164932251,1.1699919700622559,1.4408739805221558
15069.748023954566,0.937969446182251,1.0616716146469116,1.1703158617019653,1.4411978721618652
15069.750024014626,0.9371598958969116,1.062319278717041,1.1706396341323853,1.4403882026672363
15069.752024074685,0.937645673751831,1.0613478422164917,1.1711254119873047,1.4411978721618652
15069.754024134747,0.9386171102523804,1.0615097284317017,1.1704777479171753,1.441845417022705
15069.756024194807,0.9386171102523804,1.0618335008621216,1.169668197631836,1.441845417022705
15069.758024254868,0.9395886063575745,1.0631288290023804,1.169830083847046,1.4421693086624146
15069.760024314928,0.9387790560722351,1.0632907152175903,1.1703158617019653,1.4424930810928345
15069.762024374988,0.937807559967041,1.0631288290023804,1.1699919700622559,1.4416835308074951
15069.76402443505,0.9374837279319763,1.0636146068572998,1.1701538562774658,1.4416835308074951
15069.76602449511,0.936674177646637,1.0632907152175903,1.1693443059921265,1.4413597583770752
15069.76802455517,0.9365122318267822,1.062157392501831,1.169668197631836,1.4411978721618652
15069.77002461523,0.9358645677566528,1.0616716146469116,1.1703158617019653,1.4407120943069458
15069.77202467529,0.9358645677566528,1.061995506286621,1.169668197631836,1.4411978721618652
15069.77402473535,0.936674177646637,1.0626431703567505,1.1699919700622559,1.4413597583770752
15069.776024795412,0.936674177646637,1.0629669427871704,1.169506311416626,1.4403882026672363
15069.778024855472,0.9363503456115723,1.062157392501831,1.169668197631836,1.4403882026672363
15069.780024915533,0.9369980096817017,1.062319278717041,1.169830083847046,1.4416835308074951
15069.782024975593,0.9365122318267822,1.062481164932251,1.1699919700622559,1.4410358667373657
15069.784025035653,0.9355407953262329,1.0631288290023804,1.1701538562774658,1.4411978721618652
15069.786025095715,0.9355407953262329,1.0631288290023804,1.1699919700622559,1.4413597583770752
15069.788025155774,0.9360265135765076,1.062481164932251,1.1706396341323853,1.4416835308074951
15069.790025215834,0.9352169632911682,1.062319278717041,1.1699919700622559,1.4411978721618652
15069.792025275896,0.9353788495063782,1.061995506286621,1.1701538562774658,1.4415216445922852
15069.794025335956,0.936674177646637,1.062157392501831,1.1701538562774658,1.4407120943069458
15069.796025396015,0.9360265135765076,1.0616716146469116,1.169668197631836,1.4405502080917358
15069.798025456077,0.9360265135765076,1.0618335008621216,1.1693443059921265,1.4403882026672363
15069.800025516137,0.9363503456115723,1.061995506286621,1.1693443059921265,1.4408739805221558
15069.802025576199,0.9357026815414429,1.062319278717041,1.168534755706787,1.4399025440216064
15069.804025636258,0.9345692992210388,1.0615097284317017,1.1677252054214478,1.4410358667373657
15069.806025696318,0.9353788495063782,1.0616716146469116,1.1682109832763672,1.4411978721618652
15069.80802575638,0.9360265135765076,1.061995506286621,1.1675633192062378,1.4407120943069458
15069.81002581644,0.9352169632911682,1.0626431703567505,1.168696641921997,1.4407120943069458
15069.812025876501,0.9357026815414429,1.0634527206420898,1.1690205335617065,1.4408739805221558
15069.814025936561,0.9361883997917175,1.0626431703567505,1.1693443059921265,1.4405502080917358
15069.81602599662,0.936674177646637,1.0628050565719604,1.168696641921997,1.4405502080917358
15069.81802605668,0.9361883997917175,1.0631288290023804,1.1682109832763672,1.4407120943069458
15069.820026116742,0.9363503456115723,1.0634527206420898,1.1677252054214478,1.4421693086624146
15069.822026176802,0.9352169632911682,1.0634527206420898,1.1683728694915771,1.4411978721618652
15069.824026236864,0.9348931312561035,1.0631288290023804,1.1677252054214478,1.4415216445922852
15069.826026296923,0.9344073534011841,1.0631288290023804,1.1677252054214478,1.4407120943069458
15069.828026356983,0.9345692992210388,1.0631288290023804,1.1683728694915771,1.4410358667373657
15069.830026417045,0.9342454671859741,1.0629669427871704,1.1675633192062378,1.4408739805221558
15069.832026477105,0.9342454671859741,1.062481164932251,1.1672394275665283,1.4415216445922852
15069.834026537166,0.9345692992210388,1.0626431703567505,1.1674014329910278,1.4411978721618652
15069.836026597226,0.9357026815414429,1.0631288290023804,1.1667537689208984,1.4405502080917358
15069.838026657286,0.9361883997917175,1.0631288290023804,1.166267991065979,1.4403882026672363
15069.840026717347,0.9365122318267822,1.0628050565719604,1.1672394275665283,1.4411978721618652
15069.842026777407,0.9350550174713135,1.062319278717041,1.1672394275665283,1.4405502080917358
15069.844026837467,0.9340835213661194,1.0626431703567505,1.1672394275665283,1.4416835308074951
15069.846026897529,0.9342454671859741,1.062481164932251,1.1674014329910278,1.441845417022705
15069.848026957588,0.9342454671859741,1.0631288290023804,1.1667537689208984,1.4416835308074951
15069.850027017648,0.9329501390457153,1.0626431703567505,1.1670775413513184,1.4403882026672363
15069.85202707771,0.9334359169006348,1.0626431703567505,1.166267991065979,1.4405502080917358
15069.85402713777,0.9345692992210388,1.0632907152175903,1.166267991065979,1.4405502080917358
15069.856027197831,0.9340835213661194,1.0636146068572998,1.1669156551361084,1.4408739805221558
15069.858027257891,0.9335978031158447,1.0632907152175903,1.166429877281189,1.4415216445922852
15069.86002731795,0.9345692992210388,1.0632907152175903,1.1669156551361084,1.4413597583770752
15069.862027378012,0.93327397108078,1.0636146068572998,1.1667537689208984,1.4408739805221558
15069.864027438072,0.9323024749755859,1.0626431703567505,1.166429877281189,1.4405502080917358
15069.866027498132,0.9319786429405212,1.062157392501831,1.1667537689208984,1.4420074224472046
15069.868027558194,0.9329501390457153,1.061995506286621,1.166429877281189,1.4423311948776245
15069.870027618254,0.9329501390457153,1.0626431703567505,1.166591763496399,1.441845417022705
15069.872027678313,0.93327397108078,1.0628050565719604,1.166429877281189,1.4423311948776245
15069.874027738375,0.9335978031158447,1.062481164932251,1.166429877281189,1.4424930810928345
15069.876027798435,0.9344073534011841,1.0632907152175903,1.1669156551361084,1.442978858947754
15069.878027858496,0.9337596893310547,1.0636146068572998,1.1680489778518677,1.442978858947754
15069.880027918556,0.9350550174713135,1.0634527206420898,1.1670775413513184,1.442978858947754
15069.882027978616,0.9335978031158447,1.0637764930725098,1.1669156551361084,1.4423311948776245
15069.884028038678,0.9327882528305054,1.0631288290023804,1.1672394275665283,1.4420074224472046
15069.886028098737,0.9335978031158447,1.0642622709274292,1.1678870916366577,1.442655086517334
15069.888028158799,0.9334359169006348,1.0642622709274292,1.1672394275665283,1.4424930810928345
15069.890028218859,0.9335978031158447,1.0644241571426392,1.1672394275665283,1.441845417022705
15069.892028278919,0.9345692992210388,1.0647480487823486,1.166591763496399,1.4434646368026733
15069.89402833898,0.9345692992210388,1.0644241571426392,1.1667537689208984,1.4436265230178833
15069.89602839904,0.9339216351509094,1.0637764930725098,1.1670775413513184,1.442816972732544
15069.8980284591,0.9337596893310547,1.0637764930725098,1.1674014329910278,1.4423311948776245
15069.900028519161,0.9340835213661194,1.0641003847122192,1.1677252054214478,1.442655086517334
15069.902028579221,0.9342454671859741,1.0644241571426392,1.1678870916366577,1.442978858947754
15069.904028639281,0.9335978031158447,1.0644241571426392,1.1677252054214478,1.4431407451629639
15069.906028699343,0.9344073534011841,1.0647480487823486,1.1675633192062378,1.4433027505874634
15069.908028759402,0.9342454671859741,1.0652337074279785,1.1667537689208984,1.4433027505874634
15069.910028819464,0.9337596893310547,1.0649099349975586,1.1670775413513184,1.4431407451629639
15069.912028879524,0.9342454671859741,1.0644241571426392,1.1675633192062378,1.4442741870880127
15069.914028939584,0.9347311854362488,1.0632907152175903,1.1670775413513184,1.444921851158142
15069.916028999645,0.9340835213661194,1.0626431703567505,1.166591763496399,1.444921851158142
15069.918029059705,0.93327397108078,1.0632907152175903,1.1674014329910278,1.4455695152282715
15069.920029119765,0.9337596893310547,1.0644241571426392,1.1677252054214478,1.4457314014434814
15069.922029179826,0.93327397108078,1.0642622709274292,1.1669156551361084,1.4445979595184326
15069.924029239886,0.9334359169006348,1.0650718212127686,1.166429877281189,1.4441123008728027
15069.926029299946,0.9337596893310547,1.0650718212127686,1.166267991065979,1.4447599649429321
15069.928029360008,0.9334359169006348,1.0647480487823486,1.1672394275665283,1.4445979595184326
15069.930029420068,0.9329501390457153,1.0647480487823486,1.1675633192062378,1.4445979595184326
15069.93202948013,0.9339216351509094,1.0649099349975586,1.166591763496399,1.4441123008728027
15069.934029540189,0.9344073534011841,1.0650718212127686,1.1667537689208984,1.4444360733032227
15069.936029600249,0.9342454671859741,1.0652337074279785,1.1670775413513184,1.445245623588562
15069.93802966031,0.9345692992210388,1.0645860433578491,1.1669156551361084,1.4462171792984009
15069.94002972037,0.9350550174713135,1.0642622709274292,1.1669156551361084,1.4454076290130615
15069.942029780432,0.9348931312561035,1.0647480487823486,1.1667537689208984,1.4454076290130615
15069.944029840492,0.9342454671859741,1.0645860433578491,1.166267991065979,1.445083737373352
15069.946029900551,0.9337596893310547,1.0647480487823486,1.1669156551361084,1.4444360733032227
15069.948029960611,0.9326263070106506,1.0647480487823486,1.1669156551361084,1.4441123008728027
15069.950030020673,0.9326263070106506,1.0647480487823486,1.1672394275665283,1.4437884092330933
15069.952030080733,0.9335978031158447,1.0649099349975586,1.166591763496399,1.4441123008728027
15069.954030140794,0.9335978031158447,1.0647480487823486,1.166591763496399,1.4439502954483032
15069.956030200854,0.9335978031158447,1.0644241571426392,1.166267991065979,1.4436265230178833
15069.958030260914,0.9340835213661194,1.0645860433578491,1.166591763496399,1.444921851158142
15069.960030320975,0.9340835213661194,1.0645860433578491,1.166429877281189,1.4455695152282715
15069.962030381035,0.9331120848655701,1.0641003847122192,1.1652965545654297,1.4441123008728027
15069.964030441097,0.9331120848655701,1.0637764930725098,1.166429877281189,1.4441123008728027
15069.966030501157,0.9335978031158447,1.0639383792877197,1.1667537689208984,1.4445979595184326
15069.968030561216,0.9335978031158447,1.0642622709274292,1.166267991065979,1.4442741870880127
15069.970030621278,0.93327397108078,1.0639383792877197,1.1667537689208984,1.445083737373352
15069.972030681338,0.9347311854362488,1.0641003847122192,1.1659440994262695,1.4463790655136108
15069.974030741398,0.9357026815414429,1.0639383792877197,1.1651345491409302,1.4467028379440308
15069.97603080146,0.9350550174713135,1.0639383792877197,1.1656203269958496,1.4458932876586914
15069.978030861519,0.9352169632911682,1.0642622709274292,1.166591763496399,1.4457314014434814
15069.980030921579,0.9355407953262329,1.0641003847122192,1.166591763496399,1.4458932876586914
15069.98203098164,0.9345692992210388,1.0636146068572998,1.1654584407806396,1.445083737373352
15069.9840310417,0.9331120848655701,1.0632907152175903,1.1648107767105103,1.4447599649429321
15069.986031101762,0.9334359169006348,1.0631288290023804,1.1651345491409302,1.4441123008728027
15069.988031161822,0.93327397108078,1.0637764930725098,1.166106104850769,1.4437884092330933
15069.990031221882,0.9324644207954407,1.0634527206420898,1.1656203269958496,1.4439502954483032
15069.992031281943,0.9339216351509094,1.0632907152175903,1.1643249988555908,1.444921851158142
15069.994031342003,0.9358645677566528,1.0632907152175903,1.1651345491409302,1.445083737373352
15069.996031402063,0.9347311854362488,1.062319278717041,1.1654584407806396,1.4454076290130615
15069.998031462124,0.9337596893310547,1.0628050565719604,1.1646488904953003,1.4457314014434814
15070.000031522184,0.9350550174713135,1.062481164932251,1.1636773347854614,1.4457314014434814
15070.002031582244,0.9339216351509094,1.0629669427871704,1.164001226425171,1.4455695152282715
15070.004031642306,0.9327882528305054,1.0632907152175903,1.1646488904953003,1.4454076290130615
15070.006031702365,0.9342454671859741,1.0626431703567505,1.1646488904953003,1.4457314014434814
15070.008031762427,0.9344073534011841,1.062157392501831,1.1651345491409302,1.444921851158142
15070.010031822487,0.93327397108078,1.0615097284317017,1.164001226425171,1.444921851158142
15070.012031882547,0.9339216351509094,1.062157392501831,1.1635154485702515,1.4462171792984009
15070.014031942608,0.9342454671859741,1.0610239505767822,1.1648107767105103,1.4467028379440308
15070.016032002668,0.9342454671859741,1.0615097284317017,1.1644868850708008,1.4462171792984009
15070.01803206273,0.9342454671859741,1.062157392501831,1.164001226425171,1.4460551738739014
15070.02003212279,0.9348931312561035,1.0631288290023804,1.163029670715332,1.4470267295837402
15070.02203218285,0.9344073534011841,1.0626431703567505,1.1625440120697021,1.4460551738739014
15070.02403224291,0.9350550174713135,1.062319278717041,1.1633535623550415,1.4454076290130615
15070.02603230297,0.9347311854362488,1.0616716146469116,1.1636773347854614,1.4455695152282715
15070.02803236303,0.9345692992210388,1.0611858367919922,1.1631916761398315,1.4460551738739014
15070.030032423092,0.9340835213661194,1.0615097284317017,1.1636773347854614,1.4463790655136108
15070.032032483152,0.9347311854362488,1.0608620643615723,1.1636773347854614,1.4465409517288208
15070.034032543212,0.9348931312561035,1.0613478422164917,1.1638392210006714,1.4467028379440308
15070.036032603273,0.9357026815414429,1.0618335008621216,1.1638392210006714,1.4463790655136108
15070.038032663333,0.9358645677566528,1.062481164932251,1.1638392210006714,1.4460551738739014
15070.040032723395,0.936674177646637,1.061995506286621,1.1641631126403809,1.4465409517288208
15070.042032783454,0.9355407953262329,1.0611858367919922,1.1636773347854614,1.4454076290130615
15070.044032843514,0.9345692992210388,1.0611858367919922,1.1625440120697021,1.4467028379440308
15070.046032903576,0.9347311854362488,1.0615097284317017,1.1610867977142334,1.4467028379440308
15070.048032963636,0.9350550174713135,1.061995506286621,1.1614105701446533,1.4473505020141602
15070.050033023696,0.9342454671859741,1.0613478422164917,1.162705898284912,1.4468648433685303
15070.052033083757,0.9350550174713135,1.0611858367919922,1.1638392210006714,1.4478362798690796
15070.054033143817,0.9352169632911682,1.0615097284317017,1.1646488904953003,1.448160171508789
15070.056033203877,0.9357026815414429,1.0613478422164917,1.1638392210006714,1.448322057723999
15070.058033263938,0.9360265135765076,1.0608620643615723,1.1635154485702515,1.448322057723999
15070.060033323998,0.9369980096817017,1.0603762865066528,1.163029670715332,1.4479981660842896
15070.06203338406,0.9365122318267822,1.0605382919311523,1.1641631126403809,1.4471886157989502
15070.06403344412,0.9353788495063782,1.0605382919311523,1.1635154485702515,1.448322057723999
15070.06603350418,0.9353788495063782,1.0602144002914429,1.163029670715332,1.448807716369629
15070.068033564241,0.9361883997917175,1.0607001781463623,1.1623820066452026,1.4479981660842896
15070.0700336243,0.9347311854362488,1.0592429637908936,1.1612486839294434,1.4479981660842896
15070.07203368436,0.9358645677566528,1.0607001781463623,1.160601019859314,1.448322057723999
15070.074033744422,0.9363503456115723,1.0608620643615723,1.1609247922897339,1.448160171508789
15070.076033804482,0.9353788495063782,1.0610239505767822,1.1610867977142334,1.448322057723999
15070.078033864542,0.9361883997917175,1.0603762865066528,1.1615724563598633,1.448483943939209
15070.080033924603,0.9373218417167664,1.0602144002914429,1.160762906074524,1.4489697217941284
15070.082033984663,0.9358645677566528,1.0594048500061035,1.160762906074524,1.448160171508789
15070.084034044725,0.9347311854362488,1.0592429637908936,1.1601152420043945,1.448807716369629
15070.086034104785,0.9350550174713135,1.0594048500061035,1.1602771282196045,1.448322057723999
15070.088034164844,0.9357026815414429,1.059890627861023,1.1589818000793457,1.4479981660842896
15070.090034224906,0.9352169632911682,1.0597286224365234,1.1583342552185059,1.448160171508789
15070.092034284966,0.9355407953262329,1.0587571859359741,1.1580103635787964,1.448160171508789
15070.094034345027,0.9360265135765076,1.0581095218658447,1.1578484773635864,1.448645830154419
15070.096034405087,0.9355407953262329,1.059080958366394,1.1589818000793457,1.448483943939209
15070.098034465147,0.9357026815414429,1.0581095218658447,1.1597914695739746,1.448483943939209
15070.100034525209,0.9368360638618469,1.0577857494354248,1.159629464149475,1.4475125074386597
15070.102034585268,0.9360265135765076,1.0577857494354248,1.1599533557891846,1.4475125074386597
15070.104034645328,0.9350550174713135,1.058919072151184,1.1588199138641357,1.448160171508789
15070.10603470539,0.9347311854362488,1.0587571859359741,1.1584961414337158,1.448807716369629
15070.10803476545,0.9347311854362488,1.0587571859359741,1.1588199138641357,1.4491316080093384
15070.11003482551,0.9345692992210388,1.0595667362213135,1.1591438055038452,1.4491316080093384
15070.112034885571,0.9360265135765076,1.058919072151184,1.1583342552185059,1.4504269361495972
15070.114034945631,0.9369980096817017,1.0581095218658447,1.1589818000793457,1.4499411582946777
15070.116035005693,0.9369980096817017,1.0576237440109253,1.1597914695739746,1.4502650499343872
15070.118035065752,0.9382932782173157,1.0576237440109253,1.1597914695739746,1.451884150505066
15070.120035125812,0.9395886063575745,1.0585952997207642,1.1591438055038452,1.4523699283599854
15070.122035185874,0.9381313920021057,1.0594048500061035,1.1586580276489258,1.4513983726501465
15070.124035245934,0.936674177646637,1.0594048500061035,1.1586580276489258,1.4510746002197266
15070.126035305993,0.9368360638618469,1.0585952997207642,1.1586580276489258,1.451722264289856
15070.128035366055,0.9373218417167664,1.0584334135055542,1.1583342552185059,1.4515602588653564
15070.130035426115,0.9369980096817017,1.0579476356506348,1.1588199138641357,1.4513983726501465
15070.132035486175,0.9384552240371704,1.0576237440109253,1.1588199138641357,1.4523699283599854
15070.134035546236,0.9394267201423645,1.056814193725586,1.1594675779342651,1.4531794786453247
15070.136035606296,0.9384552240371704,1.056976079940796,1.1589818000793457,1.4535032510757446
15070.138035666358,0.937645673751831,1.0571380853652954,1.1581722497940063,1.4525318145751953
15070.140035726417,0.9387790560722351,1.0572999715805054,1.1578484773635864,1.4531794786453247
15070.142035786477,0.9394267201423645,1.0574618577957153,1.1578484773635864,1.4525318145751953
15070.144035846539,0.9394267201423645,1.0572999715805054,1.1578484773635864,1.4523699283599854
15070.146035906599,0.9387790560722351,1.0571380853652954,1.157038927078247,1.4528555870056152
15070.14803596666,0.9382932782173157,1.0577857494354248,1.157200813293457,1.4523699283599854
15070.15003602672,0.9381313920021057,1.0571380853652954,1.157038927078247,1.451722264289856
15070.15203608678,0.9391028881072998,1.056490421295166,1.1568769216537476,1.4528555870056152
15070.154036146841,0.9391028881072998,1.056490421295166,1.157524585723877,1.4533413648605347
15070.156036206901,0.9391028881072998,1.056814193725586,1.1583342552185059,1.4533413648605347
15070.158036266961,0.9395886063575745,1.056652307510376,1.157524585723877,1.4528555870056152
15070.160036327023,0.9403981566429138,1.056328535079956,1.1562293767929077,1.4533413648605347
15070.162036387082,0.9395886063575745,1.056328535079956,1.1557435989379883,1.4525318145751953
15070.164036447142,0.9386171102523804,1.0561665296554565,1.1560673713684082,1.4528555870056152
15070.166036507204,0.9386171102523804,1.056652307510376,1.1567150354385376,1.4536651372909546
15070.168036567264,0.9400743842124939,1.056976079940796,1.1560673713684082,1.4536651372909546
15070.170036627325,0.9395886063575745,1.056490421295166,1.1555817127227783,1.4531794786453247
15070.172036687385,0.9400743842124939,1.056328535079956,1.1565531492233276,1.4533413648605347
15070.174036747445,0.9402362704277039,1.056490421295166,1.157200813293457,1.4531794786453247
15070.176036807507,0.9405601024627686,1.0558427572250366,1.1562293767929077,1.4530174732208252
15070.178036867566,0.9399124383926392,1.0550332069396973,1.1559054851531982,1.4531794786453247
15070.180036927626,0.9410458207130432,1.0555188655853271,1.1563912630081177,1.453827142715454
15070.182036987688,0.9407219886779785,1.0560046434402466,1.1554197072982788,1.4536651372909546
15070.184037047748,0.9399124383926392,1.0553569793701172,1.1554197072982788,1.4531794786453247
15070.186037107807,0.9391028881072998,1.0555188655853271,1.1547720432281494,1.4526937007904053
15070.188037167869,0.9391028881072998,1.0551950931549072,1.1552578210830688,1.4525318145751953
15070.190037227929,0.9384552240371704,1.0550332069396973,1.1547720432281494,1.4530174732208252
15070.19203728799,0.9394267201423645,1.0548712015151978,1.1544482707977295,1.453827142715454
15070.19403734805,0.9392647743225098,1.0545474290847778,1.1550959348678589,1.453827142715454
15070.19603740811,0.9397505521774292,1.053252100944519,1.154934048652649,1.453827142715454
15070.198037468172,0.9400743842124939,1.053413987159729,1.154934048652649,1.4530174732208252
15070.200037528231,0.9418554306030273,1.0542235374450684,1.1541244983673096,1.4526937007904053
15070.202037588291,0.9400743842124939,1.0542235374450684,1.15396249294281,1.4520460367202759
15070.204037648353,0.9391028881072998,1.0547093152999878,1.1542863845825195,1.4531794786453247
15070.206037708413,0.9389409422874451,1.0547093152999878,1.15396249294281,1.4528555870056152
15070.208037768472,0.9395886063575745,1.0545474290847778,1.1536387205123901,1.451722264289856
15070.210037828534,0.9384552240371704,1.0538997650146484,1.1533148288726807,1.4522079229354858
15070.212037888594,0.9382932782173157,1.053090214729309,1.1528291702270508,1.4536651372909546
15070.214037948655,0.9399124383926392,1.0527663230895996,1.1533148288726807,1.4536651372909546
15070.216038008715,0.9399124383926392,1.0521186590194702,1.1536387205123901,1.4536651372909546
15070.218038068775,0.9394267201423645,1.0516330003738403,1.1538006067276,1.4535032510757446
15070.220038128837,0.9395886063575745,1.0519567728042603,1.1534768342971802,1.4530174732208252
15070.222038188896,0.9387790560722351,1.0524425506591797,1.1528291702270508,1.4515602588653564
15070.224038248958,0.937969446182251,1.0517948865890503,1.1534768342971802,1.4522079229354858
15070.226038309018,0.9394267201423645,1.050985336303711,1.1523433923721313,1.4536651372909546
15070.228038369078,0.9400743842124939,1.0521186590194702,1.1520196199417114,1.454150915145874
15070.23003842914,0.9391028881072998,1.0516330003738403,1.151857614517212,1.453989028930664
15070.2320384892,0.9407219886779785,1.0527663230895996,1.1525052785873413,1.4544748067855835
15070.234038549259,0.9410458207130432,1.0524425506591797,1.1526671648025513,1.453989028930664
15070.23603860932,0.9407219886779785,1.0521186590194702,1.151857614517212,1.4530174732208252
15070.23803866938,0.9400743842124939,1.0513091087341309,1.1512099504470825,1.4536651372909546
15070.24003872944,0.941207766532898,1.0517948865890503,1.1508861780166626,1.4544748067855835
15070.242038789502,0.9405601024627686,1.0526044368743896,1.1521815061569214,1.453989028930664
15070.244038849562,0.9394267201423645,1.0524425506591797,1.151695728302002,1.455122470855713
15070.246038909623,0.9399124383926392,1.0519567728042603,1.151533842086792,1.454312801361084
15070.248038969683,0.9405601024627686,1.0519567728042603,1.1521815061569214,1.453827142715454
15070.250039029743,0.9403981566429138,1.0517948865890503,1.1525052785873413,1.4526937007904053
15070.252039089804,0.9413696527481079,1.050823450088501,1.1521815061569214,1.453989028930664
15070.254039149864,0.942503035068512,1.050823450088501,1.151371955871582,1.4549604654312134
15070.256039209924,0.9428268671035767,1.0516330003738403,1.151533842086792,1.4547985792160034
15070.258039269986,0.9416934847831726,1.0517948865890503,1.151533842086792,1.4544748067855835
15070.260039330045,0.9416934847831726,1.0514711141586304,1.1510480642318726,1.4547985792160034
15070.262039390105,0.9407219886779785,1.0514711141586304,1.1507242918014526,1.4547985792160034
15070.264039450167,0.9407219886779785,1.051147222518921,1.1507242918014526,1.4552843570709229
15070.266039510227,0.9413696527481079,1.0513091087341309,1.1512099504470825,1.4554462432861328
15070.268039570288,0.9415315985679626,1.0519567728042603,1.1507242918014526,1.4552843570709229
15070.270039630348,0.9399124383926392,1.0524425506591797,1.1505622863769531,1.4552843570709229
15070.272039690408,0.9403981566429138,1.0513091087341309,1.1505622863769531,1.4562557935714722
15070.27403975047,0.942341148853302,1.0504995584487915,1.1512099504470825,1.4562557935714722
15070.27603981053,0.9431506991386414,1.0513091087341309,1.1510480642318726,1.4562557935714722
15070.27803987059,0.943474531173706,1.0517948865890503,1.1502385139465332,1.4560939073562622
15070.28003993065,0.9441221952438354,1.0522806644439697,1.1508861780166626,1.4560939073562622
15070.28203999071,0.9431506991386414,1.0519567728042603,1.151857614517212,1.4554462432861328
15070.28404005077,0.9420173168182373,1.0522806644439697,1.151533842086792,1.4557700157165527
15070.286040110832,0.9410458207130432,1.0516330003738403,1.1523433923721313,1.4564176797866821
15070.288040170892,0.941207766532898,1.0513091087341309,1.1520196199417114,1.4567415714263916
15070.290040230953,0.9403981566429138,1.050985336303711,1.1523433923721313,1.4567415714263916
15070.292040291013,0.9426649808883667,1.050823450088501,1.1523433923721313,1.457389235496521
15070.294040351073,0.943474531173706,1.0516330003738403,1.151857614517212,1.4580368995666504
15070.296040411135,0.9437983632087708,1.0519567728042603,1.151533842086792,1.4580368995666504
15070.298040471194,0.9436364769935608,1.0527663230895996,1.151857614517212,1.4586845636367798
15070.300040531256,0.9447698593139648,1.053090214729309,1.151857614517212,1.4593322277069092
15070.302040591316,0.9446079134941101,1.0535759925842285,1.1525052785873413,1.4581987857818604
15070.304040651376,0.9437983632087708,1.0537378787994385,1.1538006067276,1.4583606719970703
15070.306040711437,0.9444460272789001,1.053413987159729,1.1531529426574707,1.4586845636367798
15070.308040771497,0.9449317455291748,1.053090214729309,1.1529910564422607,1.4588464498519897
15070.310040831557,0.9442841410636902,1.0521186590194702,1.1534768342971802,1.457713007926941
15070.312040891618,0.9449317455291748,1.0522806644439697,1.1536387205123901,1.4583606719970703
15070.314040951678,0.9452555775642395,1.0526044368743896,1.1529910564422607,1.4585225582122803
15070.316041011738,0.9447698593139648,1.053252100944519,1.1538006067276,1.4588464498519897
15070.3180410718,0.9447698593139648,1.053413987159729,1.1536387205123901,1.4601417779922485
15070.32004113186,0.9455794095993042,1.0545474290847778,1.1528291702270508,1.4593322277069092
15070.322041191921,0.9444460272789001,1.0542235374450684,1.151533842086792,1.4586845636367798
15070.32404125198,0.9442841410636902,1.0538997650146484,1.151371955871582,1.4585225582122803
15070.32604131204,0.9454175233840942,1.0542235374450684,1.1520196199417114,1.4581987857818604
15070.328041372102,0.9444460272789001,1.0540616512298584,1.1520196199417114,1.4578748941421509
15070.330041432162,0.943474531173706,1.053090214729309,1.1520196199417114,1.4583606719970703
15070.332041492222,0.9449317455291748,1.0522806644439697,1.1525052785873413,1.4593322277069092
15070.334041552283,0.9455794095993042,1.0514711141586304,1.151695728302002,1.4591702222824097
15070.336041612343,0.9446079134941101,1.0521186590194702,1.1523433923721313,1.4585225582122803
15070.338041672403,0.9442841410636902,1.0524425506591797,1.1523433923721313,1.4581987857818604
15070.340041732465,0.9457413554191589,1.0535759925842285,1.151857614517212,1.4586845636367798
15070.342041792524,0.9437983632087708,1.0542235374450684,1.151533842086792,1.4585225582122803
15070.344041852586,0.942503035068512,1.0545474290847778,1.151857614517212,1.4585225582122803
15070.346041912646,0.9428268671035767,1.053090214729309,1.1512099504470825,1.4588464498519897
15070.348041972706,0.9431506991386414,1.0522806644439697,1.1512099504470825,1.4581987857818604
15070.350042032767,0.942179262638092,1.0524425506591797,1.1507242918014526,1.4581987857818604
15070.352042092827,0.9426649808883667,1.0522806644439697,1.1504004001617432,1.4591702222824097
15070.354042152889,0.9437983632087708,1.0519567728042603,1.1508861780166626,1.4593322277069092
15070.356042212949,0.9428268671035767,1.0514711141586304,1.1505622863769531,1.4586845636367798
15070.358042273008,0.942179262638092,1.0516330003738403,1.1508861780166626,1.4581987857818604
15070.36004233307,0.9428268671035767,1.0517948865890503,1.1499146223068237,1.4580368995666504
15070.36204239313,0.9420173168182373,1.0522806644439697,1.1495908498764038,1.457713007926941
15070.36404245319,0.9408839344978333,1.053090214729309,1.1500766277313232,1.4585225582122803
15070.366042513251,0.9415315985679626,1.053090214729309,1.1497527360916138,1.4578748941421509
15070.368042573311,0.9416934847831726,1.0524425506591797,1.1494289636611938,1.457227349281311
15070.37004263337,0.9405601024627686,1.0522806644439697,1.148457407951355,1.4569034576416016
15070.372042693432,0.9408839344978333,1.0529283285140991,1.148295521736145,1.4578748941421509
15070.374042753492,0.942179262638092,1.0517948865890503,1.148295521736145,1.4583606719970703
15070.376042813554,0.9416934847831726,1.0519567728042603,1.1497527360916138,1.4578748941421509
15070.378042873614,0.9415315985679626,1.0521186590194702,1.1494289636611938,1.457713007926941
15070.380042933673,0.9429888129234314,1.0524425506591797,1.148457407951355,1.4588464498519897
15070.382042993735,0.9416934847831726,1.0517948865890503,1.1486194133758545,1.4586845636367798
15070.384043053795,0.9407219886779785,1.0517948865890503,1.1489431858062744,1.457551121711731
15070.386043113855,0.9405601024627686,1.0527663230895996,1.1495908498764038,1.4570653438568115
15070.388043173916,0.9410458207130432,1.0538997650146484,1.1500766277313232,1.4581987857818604
15070.390043233976,0.9397505521774292,1.053252100944519,1.1504004001617432,1.4580368995666504
15070.392043294036,0.9408839344978333,1.0527663230895996,1.1497527360916138,1.4581987857818604
15070.394043354097,0.9418554306030273,1.0524425506591797,1.1495908498764038,1.4585225582122803
15070.396043414157,0.9418554306030273,1.0526044368743896,1.1499146223068237,1.4583606719970703
15070.398043474219,0.9420173168182373,1.0524425506591797,1.1492670774459839,1.457713007926941
15070.400043534279,0.942179262638092,1.053413987159729,1.1492670774459839,1.4583606719970703
15070.402043594338,0.9408839344978333,1.053252100944519,1.1495908498764038,1.4578748941421509
15070.4040436544,0.9391028881072998,1.0529283285140991,1.1491050720214844,1.4583606719970703
15070.40604371446,0.9397505521774292,1.053413987159729,1.148133635520935,1.4586845636367798
15070.40804377452,0.9408839344978333,1.053413987159729,1.1492670774459839,1.4586845636367798
15070.410043834581,0.9392647743225098,1.0540616512298584,1.148295521736145,1.4581987857818604
15070.412043894641,0.9400743842124939,1.0535759925842285,1.1487812995910645,1.4588464498519897
15070.4140439547,0.9407219886779785,1.053413987159729,1.1497527360916138,1.4585225582122803
15070.416044014763,0.9402362704277039,1.0537378787994385,1.1504004001617432,1.4593322277069092
15070.418044074822,0.9407219886779785,1.0545474290847778,1.1500766277313232,1.4583606719970703
15070.420044134884,0.9416934847831726,1.0543855428695679,1.1505622863769531,1.4591702222824097
15070.422044194944,0.941207766532898,1.0545474290847778,1.1505622863769531,1.4581987857818604
15070.424044255004,0.9405601024627686,1.0535759925842285,1.1508861780166626,1.4580368995666504
15070.426044315065,0.9407219886779785,1.0537378787994385,1.1495908498764038,1.4586845636367798
15070.428044375125,0.9407219886779785,1.053252100944519,1.1494289636611938,1.4586845636367798
15070.430044435187,0.9389409422874451,1.0537378787994385,1.1497527360916138,1.4585225582122803
15070.432044495246,0.9392647743225098,1.053252100944519,1.1491050720214844,1.4591702222824097
15070.434044555306,0.9403981566429138,1.0535759925842285,1.1494289636611938,1.4586845636367798
15070.436044615368,0.9402362704277039,1.0547093152999878,1.1495908498764038,1.4590083360671997
15070.438044675428,0.9402362704277039,1.0543855428695679,1.1494289636611938,1.4593322277069092
15070.440044735487,0.9407219886779785,1.0545474290847778,1.1494289636611938,1.459656000137329
15070.442044795549,0.9400743842124939,1.0545474290847778,1.1492670774459839,1.4585225582122803
15070.444044855609,0.9392647743225098,1.0540616512298584,1.1494289636611938,1.4578748941421509
15070.446044915669,0.9391028881072998,1.053090214729309,1.1492670774459839,1.4591702222824097
15070.44804497573,0.9394267201423645,1.0538997650146484,1.1491050720214844,1.4590083360671997
15070.45004503579,0.9391028881072998,1.0550332069396973,1.1497527360916138,1.4588464498519897
15070.452045095852,0.9402362704277039,1.0548712015151978,1.1497527360916138,1.4588464498519897
15070.454045155911,0.9395886063575745,1.0548712015151978,1.1499146223068237,1.4585225582122803
15070.456045215971,0.9399124383926392,1.0555188655853271,1.1495908498764038,1.4586845636367798
15070.458045276033,0.9395886063575745,1.056328535079956,1.1497527360916138,1.4590083360671997
15070.460045336093,0.9400743842124939,1.0555188655853271,1.1502385139465332,1.4591702222824097
15070.462045396152,0.9389409422874451,1.0558427572250366,1.1504004001617432,1.4583606719970703
15070.464045456214,0.937969446182251,1.056490421295166,1.1508861780166626,1.4591702222824097
15070.466045516274,0.9371598958969116,1.056976079940796,1.1502385139465332,1.459656000137329
15070.468045576334,0.937807559967041,1.0558427572250366,1.1500766277313232,1.4586845636367798
15070.470045636395,0.937807559967041,1.0558427572250366,1.1499146223068237,1.4588464498519897
15070.472045696455,0.9389409422874451,1.0555188655853271,1.1491050720214844,1.4591702222824097
15070.474045756517,0.9392647743225098,1.0555188655853271,1.1489431858062744,1.459656000137329
15070.476045816577,0.9386171102523804,1.056328535079956,1.1495908498764038,1.459656000137329
15070.478045876636,0.9386171102523804,1.0574618577957153,1.1487812995910645,1.4593322277069092
15070.480045936698,0.9395886063575745,1.0576237440109253,1.1487812995910645,1.4590083360671997
15070.482045996758,0.937645673751831,1.056490421295166,1.1476478576660156,1.457713007926941
15070.48404605682,0.9374837279319763,1.0561665296554565,1.1471621990203857,1.4580368995666504
15070.48604611688,0.9371598958969116,1.056652307510376,1.1478097438812256,1.4588464498519897
15070.488046176939,0.936674177646637,1.0571380853652954,1.1491050720214844,1.4580368995666504
15070.490046237,0.936674177646637,1.0572999715805054,1.1497527360916138,1.457713007926941
15070.49204629706,0.9374837279319763,1.0579476356506348,1.1499146223068237,1.4586845636367798
15070.49404635712,0.9382932782173157,1.0577857494354248,1.1492670774459839,1.4586845636367798
15070.496046417182,0.9373218417167664,1.0572999715805054,1.1491050720214844,1.4581987857818604
15070.498046477242,0.9361883997917175,1.0571380853652954,1.1500766277313232,1.4578748941421509
15070.500046537301,0.9374837279319763,1.056814193725586,1.1497527360916138,1.457551121711731
15070.502046597363,0.9360265135765076,1.0558427572250366,1.1487812995910645,1.457389235496521
15070.504046657423,0.9355407953262329,1.056328535079956,1.148457407951355,1.4581987857818604
15070.506046717484,0.9357026815414429,1.0561665296554565,1.1486194133758545,1.4593322277069092
15070.508046777544,0.9358645677566528,1.0561665296554565,1.1492670774459839,1.4590083360671997
15070.510046837604,0.9350550174713135,1.056490421295166,1.1491050720214844,1.4581987857818604
15070.512046897666,0.9365122318267822,1.0572999715805054,1.1499146223068237,1.4593322277069092
15070.514046957725,0.936674177646637,1.0579476356506348,1.1495908498764038,1.4585225582122803
15070.516047017785,0.9373218417167664,1.0572999715805054,1.1495908498764038,1.4581987857818604
15070.518047077847,0.9371598958969116,1.056976079940796,1.1499146223068237,1.4578748941421509
15070.520047137907,0.9371598958969116,1.0574618577957153,1.1491050720214844,1.4586845636367798
15070.522047197966,0.9352169632911682,1.0579476356506348,1.1486194133758545,1.4580368995666504
15070.524047258028,0.9344073534011841,1.0582714080810547,1.148295521736145,1.457713007926941
15070.526047318088,0.9352169632911682,1.0581095218658447,1.148295521736145,1.4583606719970703
15070.52804737815,0.9350550174713135,1.0584334135055542,1.148133635520935,1.4581987857818604
15070.53004743821,0.9342454671859741,1.0582714080810547,1.1487812995910645,1.457713007926941
15070.53204749827,0.9363503456115723,1.0579476356506348,1.1491050720214844,1.4581987857818604
15070.53404755833,0.9352169632911682,1.0582714080810547,1.1494289636611938,1.4578748941421509
15070.53604761839,0.9348931312561035,1.0582714080810547,1.1491050720214844,1.457713007926941
15070.53804767845,0.9347311854362488,1.0574618577957153,1.1486194133758545,1.4580368995666504
15070.540047738512,0.9361883997917175,1.0579476356506348,1.148295521736145,1.4581987857818604
15070.542047798572,0.9344073534011841,1.0579476356506348,1.148295521736145,1.457227349281311
15070.544047858632,0.9340835213661194,1.0577857494354248,1.147971749305725,1.457389235496521
15070.546047918693,0.9344073534011841,1.0576237440109253,1.1476478576660156,1.4567415714263916
15070.548047978753,0.9344073534011841,1.058919072151184,1.148295521736145,1.4559320211410522
15070.550048038815,0.9339216351509094,1.0587571859359741,1.1494289636611938,1.4557700157165527
15070.552048098874,0.9344073534011841,1.0587571859359741,1.1492670774459839,1.4565796852111816
15070.554048158934,0.9335978031158447,1.0584334135055542,1.1486194133758545,1.457227349281311
15070.556048218996,0.9335978031158447,1.0584334135055542,1.148133635520935,1.4567415714263916
15070.558048279056,0.9335978031158447,1.058919072151184,1.148295521736145,1.4567415714263916
15070.560048339117,0.9347311854362488,1.0582714080810547,1.1492670774459839,1.4565796852111816
15070.562048399177,0.9339216351509094,1.0581095218658447,1.1505622863769531,1.4562557935714722
15070.564048459237,0.9334359169006348,1.0585952997207642,1.1502385139465332,1.4557700157165527
15070.566048519298,0.9335978031158447,1.0585952997207642,1.1500766277313232,1.4565796852111816
15070.568048579358,0.93327397108078,1.0592429637908936,1.1497527360916138,1.4565796852111816
15070.570048639418,0.9324644207954407,1.058919072151184,1.1492670774459839,1.4562557935714722
15070.57204869948,0.9340835213661194,1.0587571859359741,1.1494289636611938,1.4564176797866821
15070.57404875954,0.9352169632911682,1.0592429637908936,1.1500766277313232,1.4564176797866821
15070.5760488196,0.9347311854362488,1.0592429637908936,1.1495908498764038,1.4557700157165527
15070.57804887966,0.9339216351509094,1.059890627861023,1.1502385139465332,1.4565796852111816
15070.58004893972,0.9353788495063782,1.0597286224365234,1.151371955871582,1.457713007926941
15070.582048999782,0.9342454671859741,1.0592429637908936,1.151857614517212,1.4570653438568115
15070.584049059842,0.93327397108078,1.0594048500061035,1.151857614517212,1.4567415714263916
15070.586049119902,0.9329501390457153,1.0607001781463623,1.151857614517212,1.4565796852111816
15070.588049179963,0.93327397108078,1.060052514076233,1.151533842086792,1.4564176797866821
15070.590049240023,0.9324644207954407,1.059890627861023,1.151533842086792,1.455122470855713
15070.592049300083,0.9337596893310547,1.0608620643615723,1.1520196199417114,1.4567415714263916
15070.594049360145,0.9348931312561035,1.0602144002914429,1.1525052785873413,1.4569034576416016
15070.596049420205,0.9348931312561035,1.0610239505767822,1.1526671648025513,1.4569034576416016
15070.598049480264,0.9339216351509094,1.0610239505767822,1.1526671648025513,1.4569034576416016
15070.600049540326,0.9345692992210388,1.0608620643615723,1.1521815061569214,1.457551121711731
15070.602049600386,0.9329501390457153,1.0616716146469116,1.151695728302002,1.4569034576416016
15070.604049660447,0.9326263070106506,1.0611858367919922,1.151533842086792,1.4557700157165527
15070.606049720507,0.9323024749755859,1.0615097284317017,1.151371955871582,1.4557700157165527
15070.608049780567,0.9326263070106506,1.0608620643615723,1.151371955871582,1.4562557935714722
15070.610049840629,0.9316548109054565,1.0602144002914429,1.1533148288726807,1.4556081295013428
15070.612049900688,0.93327397108078,1.0613478422164917,1.1531529426574707,1.4556081295013428
15070.61404996075,0.9342454671859741,1.0611858367919922,1.1523433923721313,1.4560939073562622
15070.61605002081,0.9347311854362488,1.0610239505767822,1.1526671648025513,1.4560939073562622
15070.61805008087,0.9337596893310547,1.0616716146469116,1.1533148288726807,1.4557700157165527
15070.62005014093,0.9347311854362488,1.0611858367919922,1.1529910564422607,1.457227349281311
15070.622050200991,0.9340835213661194,1.0610239505767822,1.1525052785873413,1.4562557935714722
15070.62405026105,0.9326263070106506,1.0618335008621216,1.1529910564422607,1.4559320211410522
15070.626050321112,0.9316548109054565,1.0632907152175903,1.1533148288726807,1.4564176797866821
15070.628050381172,0.9316548109054565,1.0626431703567505,1.1533148288726807,1.4560939073562622
15070.630050441232,0.9310072064399719,1.061995506286621,1.1528291702270508,1.4554462432861328
15070.632050501294,0.9319786429405212,1.0618335008621216,1.1525052785873413,1.4564176797866821
15070.634050561353,0.9329501390457153,1.0616716146469116,1.1528291702270508,1.4567415714263916
15070.636050621415,0.9327882528305054,1.0613478422164917,1.1531529426574707,1.4564176797866821
15070.638050681475,0.9331120848655701,1.0613478422164917,1.1533148288726807,1.4560939073562622
15070.640050741535,0.9344073534011841,1.0615097284317017,1.1533148288726807,1.4562557935714722
15070.642050801596,0.9335978031158447,1.062157392501831,1.1529910564422607,1.4556081295013428
15070.644050861656,0.9327882528305054,1.062157392501831,1.1521815061569214,1.4549604654312134
15070.646050921716,0.9324644207954407,1.062319278717041,1.1525052785873413,1.4549604654312134
15070.648050981777,0.9318167567253113,1.062319278717041,1.1531529426574707,1.4546366930007935
15070.650051041837,0.9310072064399719,1.061995506286621,1.1533148288726807,1.454312801361084
15070.652051101897,0.9326263070106506,1.061995506286621,1.1531529426574707,1.4546366930007935
15070.654051161959,0.9327882528305054,1.062157392501831,1.1534768342971802,1.4554462432861328
15070.656051222019,0.9319786429405212,1.062319278717041,1.1526671648025513,1.4554462432861328
15070.65805128208,0.9308452606201172,1.0626431703567505,1.1529910564422607,1.4554462432861328
15070.66005134214,0.9314929246902466,1.062481164932251,1.1521815061569214,1.4557700157165527
15070.6620514022,0.9308452606201172,1.062157392501831,1.1523433923721313,1.455122470855713
15070.664051462261,0.9311690926551819,1.062319278717041,1.1523433923721313,1.4559320211410522
15070.666051522321,0.9308452606201172,1.061995506286621,1.1521815061569214,1.4557700157165527
15070.668051582381,0.9303595423698425,1.0618335008621216,1.1521815061569214,1.4556081295013428
15070.670051642443,0.9289023280143738,1.0613478422164917,1.151857614517212,1.454312801361084
15070.672051702502,0.9305214285850525,1.061995506286621,1.1520196199417114,1.4546366930007935
15070.674051762562,0.9318167567253113,1.062157392501831,1.151371955871582,1.454312801361084
15070.676051822624,0.9313310384750366,1.062319278717041,1.151371955871582,1.4544748067855835
15070.678051882684,0.9300357103347778,1.061995506286621,1.151371955871582,1.4536651372909546
15070.680051942745,0.9311690926551819,1.0618335008621216,1.1510480642318726,1.4547985792160034
15070.682052002805,0.9295499324798584,1.0616716146469116,1.1526671648025513,1.454312801361084
15070.684052062865,0.928740382194519,1.062157392501831,1.1521815061569214,1.4546366930007935
15070.686052122926,0.9293880462646484,1.061995506286621,1.1512099504470825,1.4536651372909546
15070.688052182986,0.9292261004447937,1.0618335008621216,1.151533842086792,1.454312801361084
15070.690052243048,0.9279308319091797,1.061995506286621,1.1521815061569214,1.453827142715454
15070.692052303108,0.9292261004447937,1.0616716146469116,1.1520196199417114,1.453989028930664
15070.694052363167,0.9293880462646484,1.0615097284317017,1.1512099504470825,1.454312801361084
15070.696052423229,0.9289023280143738,1.0616716146469116,1.151533842086792,1.454150915145874
15070.698052483289,0.9292261004447937,1.062481164932251,1.1520196199417114,1.454150915145874
15070.700052543349,0.9305214285850525,1.0618335008621216,1.1521815061569214,1.4533413648605347
15070.70205260341,0.9292261004447937,1.0615097284317017,1.151695728302002,1.4530174732208252
15070.70405266347,0.928740382194519,1.0613478422164917,1.1521815061569214,1.4544748067855835
15070.70605272353,0.9284165501594543,1.0610239505767822,1.151857614517212,1.4544748067855835
15070.708052783591,0.928740382194519,1.0613478422164917,1.151371955871582,1.453989028930664
15070.710052843651,0.9272831678390503,1.0615097284317017,1.151533842086792,1.4526937007904053
15070.712052903713,0.9279308319091797,1.061995506286621,1.1507242918014526,1.453827142715454
15070.714052963773,0.9285784959793091,1.062481164932251,1.1512099504470825,1.4547985792160034
15070.716053023833,0.9292261004447937,1.0618335008621216,1.1523433923721313,1.454150915145874
15070.718053083894,0.9289023280143738,1.062481164932251,1.1520196199417114,1.453827142715454
15070.720053143954,0.9306833744049072,1.0629669427871704,1.1508861780166626,1.4547985792160034
15070.722053204014,0.9298737645149231,1.0629669427871704,1.1520196199417114,1.4547985792160034
15070.724053264075,0.9289023280143738,1.0632907152175903,1.1520196199417114,1.4549604654312134
15070.726053324135,0.9289023280143738,1.0637764930725098,1.151371955871582,1.4552843570709229
15070.728053384195,0.9282546639442444,1.0634527206420898,1.1528291702270508,1.454312801361084
15070.730053444257,0.9272831678390503,1.062481164932251,1.1534768342971802,1.4528555870056152
15070.732053504316,0.9293880462646484,1.0626431703567505,1.1533148288726807,1.454312801361084
15070.734053564378,0.9297118782997131,1.0626431703567505,1.1534768342971802,1.4544748067855835
15070.736053624438,0.9297118782997131,1.0626431703567505,1.1526671648025513,1.454312801361084
15070.738053684498,0.9295499324798584,1.062481164932251,1.1526671648025513,1.454150915145874
15070.74005374456,0.9305214285850525,1.0631288290023804,1.1526671648025513,1.4549604654312134
15070.742053804619,0.9295499324798584,1.0636146068572998,1.1531529426574707,1.455122470855713
15070.744053864679,0.928740382194519,1.0637764930725098,1.1534768342971802,1.4544748067855835
15070.74605392474,0.9295499324798584,1.0631288290023804,1.15396249294281,1.4549604654312134
15070.7480539848,0.9297118782997131,1.0637764930725098,1.15396249294281,1.4546366930007935
15070.75005404486,0.9295499324798584,1.0634527206420898,1.1536387205123901,1.455122470855713
15070.752054104922,0.9293880462646484,1.0632907152175903,1.1525052785873413,1.4547985792160034
15070.754054164981,0.9297118782997131,1.0637764930725098,1.1528291702270508,1.4547985792160034
15070.756054225043,0.9289023280143738,1.0647480487823486,1.1534768342971802,1.4557700157165527
15070.758054285103,0.9292261004447937,1.0645860433578491,1.1538006067276,1.4559320211410522
15070.760054345163,0.9297118782997131,1.0641003847122192,1.1529910564422607,1.4554462432861328
15070.762054405224,0.928740382194519,1.0637764930725098,1.1533148288726807,1.4549604654312134
15070.764054465284,0.9285784959793091,1.0639383792877197,1.1531529426574707,1.4557700157165527
15070.766054525346,0.9280927181243896,1.0641003847122192,1.1536387205123901,1.4560939073562622
15070.768054585405,0.9282546639442444,1.0636146068572998,1.1534768342971802,1.4560939073562622
15070.770054645465,0.9274450540542603,1.0634527206420898,1.1534768342971802,1.4546366930007935
15070.772054705527,0.9290642142295837,1.0637764930725098,1.1531529426574707,1.4562557935714722
15070.774054765587,0.9289023280143738,1.0632907152175903,1.1526671648025513,1.4557700157165527
15070.776054825646,0.928740382194519,1.0632907152175903,1.1520196199417114,1.4549604654312134
15070.778054885708,0.9290642142295837,1.0639383792877197,1.151533842086792,1.454312801361084
15070.780054945768,0.9298737645149231,1.0637764930725098,1.1510480642318726,1.4547985792160034
15070.782055005828,0.928740382194519,1.0628050565719604,1.151371955871582,1.4556081295013428
15070.78405506589,0.9285784959793091,1.0637764930725098,1.1526671648025513,1.4557700157165527
15070.78605512595,0.9282546639442444,1.0637764930725098,1.1529910564422607,1.4552843570709229
15070.78805518601,0.927768886089325,1.0628050565719604,1.1521815061569214,1.4546366930007935
15070.79005524607,0.9279308319091797,1.0626431703567505,1.151371955871582,1.4544748067855835
15070.79205530613,0.9290642142295837,1.0637764930725098,1.151371955871582,1.4549604654312134
15070.794055366192,0.9295499324798584,1.0644241571426392,1.151533842086792,1.455122470855713
15070.796055426252,0.9293880462646484,1.0632907152175903,1.1520196199417114,1.4554462432861328
15070.798055486312,0.928740382194519,1.061995506286621,1.1526671648025513,1.4544748067855835
15070.800055546373,0.9292261004447937,1.061995506286621,1.1521815061569214,1.454150915145874
15070.802055606433,0.9280927181243896,1.062319278717041,1.151371955871582,1.4536651372909546
15070.804055666493,0.927606999874115,1.0632907152175903,1.1505622863769531,1.453827142715454
15070.806055726554,0.927768886089325,1.0629669427871704,1.1512099504470825,1.4554462432861328
15070.808055786614,0.927606999874115,1.0629669427871704,1.151857614517212,1.4552843570709229
15070.810055846676,0.9272831678390503,1.0636146068572998,1.1520196199417114,1.455122470855713
15070.812055906736,0.9282546639442444,1.0634527206420898,1.151371955871582,1.4556081295013428
15070.814055966795,0.9280927181243896,1.0639383792877197,1.1508861780166626,1.455122470855713
15070.816056026857,0.9269593358039856,1.0641003847122192,1.1510480642318726,1.4554462432861328
15070.818056086917,0.9271212220191956,1.0642622709274292,1.1521815061569214,1.4544748067855835
15070.820056146978,0.9289023280143738,1.0639383792877197,1.151857614517212,1.4552843570709229
15070.822056207038,0.927768886089325,1.0639383792877197,1.151857614517212,1.4546366930007935
15070.824056267098,0.9272831678390503,1.0632907152175903,1.1523433923721313,1.4549604654312134
15070.82605632716,0.9280927181243896,1.0637764930725098,1.1521815061569214,1.4549604654312134
15070.82805638722,0.928740382194519,1.0629669427871704,1.1523433923721313,1.4554462432861328
15070.83005644728,0.9271212220191956,1.062481164932251,1.1508861780166626,1.4552843570709229
15070.83205650734,0.9282546639442444,1.0629669427871704,1.1507242918014526,1.4557700157165527
15070.8340565674,0.9282546639442444,1.0636146068572998,1.151533842086792,1.4557700157165527
15070.83605662746,0.9284165501594543,1.0642622709274292,1.1520196199417114,1.4562557935714722
15070.838056687522,0.927768886089325,1.0644241571426392,1.151533842086792,1.4557700157165527
15070.840056747582,0.9280927181243896,1.0639383792877197,1.151371955871582,1.4552843570709229
15070.842056807644,0.9269593358039856,1.0639383792877197,1.1520196199417114,1.4544748067855835
15070.844056867703,0.927768886089325,1.0637764930725098,1.151857614517212,1.4547985792160034
15070.846056927763,0.9280927181243896,1.0642622709274292,1.1525052785873413,1.4554462432861328
15070.848056987825,0.9284165501594543,1.0642622709274292,1.1521815061569214,1.4549604654312134
15070.850057047885,0.927606999874115,1.0645860433578491,1.1521815061569214,1.4547985792160034
15070.852057107944,0.9284165501594543,1.0650718212127686,1.151371955871582,1.4556081295013428
15070.854057168006,0.927606999874115,1.0649099349975586,1.1512099504470825,1.4559320211410522
15070.856057228066,0.927768886089325,1.0644241571426392,1.1510480642318726,1.4560939073562622
15070.858057288126,0.927768886089325,1.0644241571426392,1.151533842086792,1.4562557935714722
15070.860057348187,0.9289023280143738,1.0641003847122192,1.1520196199417114,1.4559320211410522
15070.862057408247,0.9274450540542603,1.0639383792877197,1.1525052785873413,1.4549604654312134
15070.864057468309,0.9272831678390503,1.0645860433578491,1.1523433923721313,1.455122470855713
15070.866057528368,0.9271212220191956,1.0650718212127686,1.1525052785873413,1.4552843570709229
15070.868057588428,0.9271212220191956,1.0647480487823486,1.1523433923721313,1.453989028930664
15070.87005764849,0.9261497855186462,1.0639383792877197,1.1525052785873413,1.4544748067855835
15070.87205770855,0.9274450540542603,1.0647480487823486,1.1531529426574707,1.4560939073562622
15070.87405776861,0.9282546639442444,1.0650718212127686,1.1529910564422607,1.4554462432861328
15070.876057828671,0.9279308319091797,1.0647480487823486,1.1521815061569214,1.455122470855713
15070.87805788873,0.9280927181243896,1.0639383792877197,1.1521815061569214,1.4544748067855835
15070.88005794879,0.9297118782997131,1.0649099349975586,1.1523433923721313,1.4557700157165527
15070.882058008852,0.9282546639442444,1.0652337074279785,1.1526671648025513,1.4552843570709229
15070.884058068912,0.927768886089325,1.0660432577133179,1.1531529426574707,1.4554462432861328
15070.886058128974,0.9284165501594543,1.0650718212127686,1.1526671648025513,1.4559320211410522
15070.888058189033,0.928740382194519,1.0650718212127686,1.151857614517212,1.4552843570709229
15070.890058249093,0.9267974495887756,1.0660432577133179,1.1512099504470825,1.454312801361084
15070.892058309155,0.9274450540542603,1.0650718212127686,1.1520196199417114,1.455122470855713
15070.894058369215,0.927606999874115,1.0662052631378174,1.151857614517212,1.4546366930007935
15070.896058429276,0.927606999874115,1.065881371498108,1.151857614517212,1.4549604654312134
15070.898058489336,0.9274450540542603,1.065557599067688,1.1512099504470825,1.4546366930007935
15070.900058549396,0.9284165501594543,1.0649099349975586,1.151857614517212,1.4549604654312134
15070.902058609458,0.9267974495887756,1.0647480487823486,1.1523433923721313,1.4536651372909546
15070.904058669517,0.9263116717338562,1.065881371498108,1.1520196199417114,1.454312801361084
15070.906058729577,0.9259878396987915,1.0653955936431885,1.1523433923721313,1.4544748067855835
15070.908058789639,0.9266355037689209,1.0652337074279785,1.1525052785873413,1.4536651372909546
15070.910058849699,0.9255021214485168,1.0647480487823486,1.1520196199417114,1.454150915145874
15070.912058909758,0.9264736175537109,1.0647480487823486,1.151533842086792,1.4546366930007935
15070.91405896982,0.9263116717338562,1.0649099349975586,1.151857614517212,1.4552843570709229
15070.91605902988,0.9267974495887756,1.0649099349975586,1.151371955871582,1.4559320211410522
15070.918059089941,0.9274450540542603,1.0645860433578491,1.151371955871582,1.4556081295013428
15070.920059150001,0.9279308319091797,1.0650718212127686,1.1510480642318726,1.4554462432861328
15070.922059210061,0.9259878396987915,1.0665290355682373,1.151533842086792,1.4547985792160034
15070.924059270123,0.9248544573783875,1.0663671493530273,1.1521815061569214,1.4547985792160034
15070.926059330182,0.9253401756286621,1.065557599067688,1.1525052785873413,1.4554462432861328
15070.928059390242,0.9256640076637268,1.065557599067688,1.1531529426574707,1.4556081295013428
15070.930059450304,0.9243687391281128,1.065881371498108,1.1526671648025513,1.454312801361084
15070.932059510364,0.9264736175537109,1.0653955936431885,1.1523433923721313,1.4547985792160034
15070.934059570423,0.9263116717338562,1.065881371498108,1.1512099504470825,1.4549604654312134
15070.936059630485,0.9264736175537109,1.065557599067688,1.1505622863769531,1.4552843570709229
15070.938059690545,0.9269593358039856,1.0650718212127686,1.151857614517212,1.4544748067855835
15070.940059750606,0.9280927181243896,1.0652337074279785,1.1523433923721313,1.454312801361084
15070.942059810666,0.9261497855186462,1.065719485282898,1.1529910564422607,1.4536651372909546
15070.944059870726,0.9258259534835815,1.0665290355682373,1.1525052785873413,1.453827142715454
15070.946059930788,0.9255021214485168,1.0652337074279785,1.1523433923721313,1.4535032510757446
15070.948059990847,0.9261497855186462,1.0649099349975586,1.1526671648025513,1.4544748067855835
15070.950060050909,0.9255021214485168,1.0652337074279785,1.1534768342971802,1.454312801361084
15070.952060110969,0.9272831678390503,1.0652337074279785,1.1526671648025513,1.4544748067855835
15070.954060171029,0.927606999874115,1.0644241571426392,1.1525052785873413,1.4536651372909546
15070.956060231088,0.9259878396987915,1.0652337074279785,1.1531529426574707,1.4535032510757446
15070.95806029115,0.9259878396987915,1.0660432577133179,1.1538006067276,1.4536651372909546
15070.96006035121,0.9267974495887756,1.0665290355682373,1.1536387205123901,1.454150915145874
15070.962060411272,0.9250163435935974,1.065881371498108,1.1531529426574707,1.4533413648605347
15070.964060471331,0.9251782894134521,1.0660432577133179,1.151857614517212,1.4535032510757446
15070.966060531391,0.9250163435935974,1.0653955936431885,1.1520196199417114,1.4523699283599854
15070.968060591453,0.9251782894134521,1.065881371498108,1.1525052785873413,1.4528555870056152
15070.970060651513,0.9248544573783875,1.0666909217834473,1.1526671648025513,1.4525318145751953
15070.972060711574,0.9264736175537109,1.0660432577133179,1.1529910564422607,1.4535032510757446
15070.974060771634,0.9263116717338562,1.0645860433578491,1.1523433923721313,1.4530174732208252
15070.976060831694,0.9264736175537109,1.0650718212127686,1.1520196199417114,1.4531794786453247
15070.978060891755,0.9258259534835815,1.0653955936431885,1.151695728302002,1.4536651372909546
15070.980060951815,0.9266355037689209,1.065557599067688,1.1526671648025513,1.4536651372909546
15070.982061011875,0.9246925711631775,1.0653955936431885,1.1525052785873413,1.4528555870056152
15070.984061071937,0.9245306253433228,1.065719485282898,1.1521815061569214,1.4531794786453247
15070.986061131996,0.9251782894134521,1.065557599067688,1.1523433923721313,1.4536651372909546
15070.988061192056,0.9245306253433228,1.0660432577133179,1.1528291702270508,1.4530174732208252
15070.990061252118,0.9242067933082581,1.0665290355682373,1.1529910564422607,1.4528555870056152
15070.992061312178,0.9255021214485168,1.0668529272079468,1.1525052785873413,1.4535032510757446
15070.99406137224,0.9255021214485168,1.0665290355682373,1.1533148288726807,1.4528555870056152
15070.996061432299,0.9255021214485168,1.0662052631378174,1.1529910564422607,1.4530174732208252
15070.998061492359,0.9248544573783875,1.065881371498108,1.1533148288726807,1.454150915145874
15071.00006155242,0.9251782894134521,1.0665290355682373,1.1529910564422607,1.453827142715454
15071.00206161248,0.9237210750579834,1.0670148134231567,1.1534768342971802,1.451884150505066
15071.00406167254,0.9233972430229187,1.0665290355682373,1.1528291702270508,1.4523699283599854
15071.006061732602,0.9242067933082581,1.0670148134231567,1.1533148288726807,1.4528555870056152
15071.008061792661,0.9235591292381287,1.0665290355682373,1.1533148288726807,1.4531794786453247
15071.010061852721,0.9233972430229187,1.0665290355682373,1.1528291702270508,1.4523699283599854
15071.012061912783,0.9248544573783875,1.0663671493530273,1.1526671648025513,1.4525318145751953
15071.014061972843,0.9255021214485168,1.065719485282898,1.1529910564422607,1.4528555870056152
15071.016062032904,0.9245306253433228,1.0662052631378174,1.1533148288726807,1.4530174732208252
15071.018062092964,0.9246925711631775,1.0665290355682373,1.1533148288726807,1.4530174732208252
15071.020062153024,0.9258259534835815,1.0670148134231567,1.1541244983673096,1.4526937007904053
15071.022062213086,0.9238829612731934,1.0671766996383667,1.1533148288726807,1.4515602588653564
15071.024062273145,0.9225876927375793,1.0668529272079468,1.1534768342971802,1.451722264289856
15071.026062333207,0.9227495789527893,1.0668529272079468,1.1538006067276,1.451722264289856
15071.028062393267,0.9233972430229187,1.0673385858535767,1.1541244983673096,1.4512364864349365
15071.030062453327,0.9224257469177246,1.0663671493530273,1.1533148288726807,1.451884150505066
15071.032062513388,0.9240449070930481,1.0668529272079468,1.1531529426574707,1.4536651372909546
15071.034062573448,0.9238829612731934,1.065881371498108,1.1528291702270508,1.4535032510757446
15071.036062633508,0.9251782894134521,1.065881371498108,1.1533148288726807,1.4535032510757446
15071.03806269357,0.9251782894134521,1.0668529272079468,1.1536387205123901,1.4535032510757446
15071.04006275363,0.9269593358039856,1.0671766996383667,1.1544482707977295,1.4528555870056152
15071.042062813689,0.9251782894134521,1.0668529272079468,1.154934048652649,1.4520460367202759
15071.04406287375,0.9246925711631775,1.0676624774932861,1.154934048652649,1.4526937007904053
15071.04606293381,0.9245306253433228,1.0676624774932861,1.1544482707977295,1.4533413648605347
15071.048062993872,0.9250163435935974,1.0675004720687866,1.15396249294281,1.4533413648605347
15071.050063053932,0.9251782894134521,1.0665290355682373,1.15396249294281,1.4533413648605347
15071.052063113992,0.9274450540542603,1.0675004720687866,1.15396249294281,1.4533413648605347
15071.054063174053,0.927768886089325,1.067986249923706,1.1542863845825195,1.4528555870056152
15071.056063234113,0.9266355037689209,1.0673385858535767,1.1555817127227783,1.4523699283599854
15071.058063294173,0.9259878396987915,1.0671766996383667,1.1559054851531982,1.4531794786453247
15071.060063354234,0.9271212220191956,1.0676624774932861,1.1550959348678589,1.4536651372909546
15071.062063414294,0.9255021214485168,1.0673385858535767,1.1567150354385376,1.4533413648605347
15071.064063474354,0.9253401756286621,1.0676624774932861,1.1565531492233276,1.4535032510757446
15071.066063534416,0.9258259534835815,1.067824363708496,1.1563912630081177,1.4526937007904053
15071.068063594475,0.9250163435935974,1.067986249923706,1.1563912630081177,1.4530174732208252
15071.070063654537,0.9245306253433228,1.067824363708496,1.1560673713684082,1.4530174732208252
15071.072063714597,0.9258259534835815,1.0675004720687866,1.1550959348678589,1.4533413648605347
15071.074063774657,0.9261497855186462,1.067824363708496,1.1550959348678589,1.4528555870056152
15071.076063834718,0.9261497855186462,1.067986249923706,1.1555817127227783,1.4526937007904053
15071.078063894778,0.9255021214485168,1.0683101415634155,1.1562293767929077,1.4531794786453247
15071.08006395484,0.9272831678390503,1.068148136138916,1.1563912630081177,1.4535032510757446
15071.0820640149,0.9259878396987915,1.067824363708496,1.1557435989379883,1.4530174732208252
15071.08406407496,0.9263116717338562,1.0675004720687866,1.1562293767929077,1.4528555870056152
15071.08606413502,0.9258259534835815,1.0670148134231567,1.157038927078247,1.4528555870056152
15071.08806419508,0.9256640076637268,1.0673385858535767,1.1563912630081177,1.4536651372909546
15071.09006425514,0.9246925711631775,1.0671766996383667,1.1562293767929077,1.4528555870056152
15071.092064315202,0.9261497855186462,1.067986249923706,1.1552578210830688,1.4525318145751953
15071.094064375262,0.9263116717338562,1.0676624774932861,1.1547720432281494,1.4523699283599854
15071.096064435322,0.9256640076637268,1.0671766996383667,1.1552578210830688,1.4522079229354858
15071.098064495383,0.9261497855186462,1.0676624774932861,1.1557435989379883,1.4533413648605347
15071.100064555443,0.9272831678390503,1.067824363708496,1.1560673713684082,1.4522079229354858
15071.102064615505,0.9251782894134521,1.0671766996383667,1.1554197072982788,1.4512364864349365
15071.104064675565,0.9240449070930481,1.0671766996383667,1.1552578210830688,1.4510746002197266
15071.106064735624,0.9245306253433228,1.0663671493530273,1.1544482707977295,1.451722264289856
15071.108064795686,0.9250163435935974,1.0665290355682373,1.1550959348678589,1.4515602588653564
15071.110064855746,0.9246925711631775,1.0662052631378174,1.1552578210830688,1.4515602588653564
15071.112064915806,0.9264736175537109,1.0673385858535767,1.1550959348678589,1.4520460367202759
15071.114064975867,0.9258259534835815,1.0676624774932861,1.1541244983673096,1.4528555870056152
15071.116065035927,0.9251782894134521,1.0671766996383667,1.1536387205123901,1.4526937007904053
15071.118065095987,0.9251782894134521,1.0676624774932861,1.1542863845825195,1.4520460367202759
15071.120065156048,0.9259878396987915,1.0670148134231567,1.1547720432281494,1.4522079229354858
15071.122065216108,0.9242067933082581,1.0665290355682373,1.1544482707977295,1.450912594795227
15071.12406527617,0.9237210750579834,1.0660432577133179,1.1541244983673096,1.450750708580017
15071.12606533623,0.923235297203064,1.0665290355682373,1.1525052785873413,1.4505888223648071
15071.12806539629,0.9243687391281128,1.0663671493530273,1.1538006067276,1.4505888223648071
15071.130065456351,0.9233972430229187,1.0662052631378174,1.1534768342971802,1.4502650499343872
15071.13206551641,0.9248544573783875,1.0662052631378174,1.151857614517212,1.4504269361495972
15071.13406557647,0.9245306253433228,1.065881371498108,1.1523433923721313,1.4505888223648071
15071.136065636532,0.9248544573783875,1.065557599067688,1.1533148288726807,1.4505888223648071
15071.138065696592,0.9242067933082581,1.065557599067688,1.1534768342971802,1.450750708580017
15071.140065756652,0.9255021214485168,1.0662052631378174,1.1544482707977295,1.450750708580017
15071.142065816714,0.9240449070930481,1.0665290355682373,1.15396249294281,1.4504269361495972
15071.144065876773,0.923073410987854,1.0666909217834473,1.1542863845825195,1.4505888223648071
15071.146065936835,0.9227495789527893,1.0665290355682373,1.1541244983673096,1.4497792720794678
15071.148065996895,0.9229114651679993,1.0665290355682373,1.15396249294281,1.4499411582946777
15071.150066056955,0.9229114651679993,1.0660432577133179,1.1538006067276,1.4499411582946777
15071.152066117016,0.9246925711631775,1.065881371498108,1.1533148288726807,1.4505888223648071
15071.154066177076,0.9240449070930481,1.0671766996383667,1.1536387205123901,1.4489697217941284
15071.156066237138,0.9240449070930481,1.0665290355682373,1.15396249294281,1.448322057723999
15071.158066297197,0.9235591292381287,1.0668529272079468,1.1536387205123901,1.448645830154419
15071.160066357257,0.9250163435935974,1.0670148134231567,1.1534768342971802,1.4494553804397583
15071.162066417319,0.9237210750579834,1.0673385858535767,1.1533148288726807,1.4505888223648071
15071.164066477379,0.9237210750579834,1.0675004720687866,1.1536387205123901,1.4504269361495972
15071.166066537438,0.9240449070930481,1.0673385858535767,1.1542863845825195,1.4502650499343872
15071.1680665975,0.9235591292381287,1.0668529272079468,1.1538006067276,1.450912594795227
15071.17006665756,0.9224257469177246,1.065719485282898,1.1544482707977295,1.4512364864349365
15071.17206671762,0.9245306253433228,1.0660432577133179,1.15396249294281,1.4502650499343872
15071.174066777681,0.9250163435935974,1.0663671493530273,1.1547720432281494,1.4492934942245483
15071.176066837741,0.9251782894134521,1.0670148134231567,1.1559054851531982,1.4502650499343872
15071.178066897803,0.9255021214485168,1.0673385858535767,1.1563912630081177,1.450750708580017
15071.180066957862,0.9258259534835815,1.0662052631378174,1.1565531492233276,1.4512364864349365
15071.182067017922,0.9246925711631775,1.065557599067688,1.1565531492233276,1.4494553804397583
15071.184067077984,0.9240449070930481,1.0662052631378174,1.1559054851531982,1.4494553804397583
15071.186067138044,0.9243687391281128,1.0668529272079468,1.1547720432281494,1.450750708580017
15071.188067198103,0.9245306253433228,1.0668529272079468,1.1550959348678589,1.4501030445098877
15071.190067258165,0.9237210750579834,1.0662052631378174,1.1555817127227783,1.4502650499343872
15071.192067318225,0.9259878396987915,1.0663671493530273,1.1552578210830688,1.4505888223648071
15071.194067378285,0.9255021214485168,1.0663671493530273,1.1559054851531982,1.4505888223648071
15071.196067438346,0.9263116717338562,1.065719485282898,1.1557435989379883,1.4513983726501465
15071.198067498406,0.9259878396987915,1.0660432577133179,1.1559054851531982,1.4515602588653564
15071.200067558468,0.9269593358039856,1.0665290355682373,1.1559054851531982,1.4513983726501465
15071.202067618528,0.9251782894134521,1.0671766996383667,1.1555817127227783,1.4502650499343872
15071.204067678587,0.9245306253433228,1.0676624774932861,1.1563912630081177,1.4502650499343872
15071.206067738649,0.9255021214485168,1.068148136138916,1.1568769216537476,1.4502650499343872
15071.208067798709,0.9253401756286621,1.0673385858535767,1.1563912630081177,1.4504269361495972
15071.210067858769,0.9253401756286621,1.0668529272079468,1.1568769216537476,1.4501030445098877
15071.21206791883,0.9267974495887756,1.0673385858535767,1.157038927078247,1.451722264289856
15071.21406797889,0.9267974495887756,1.067986249923706,1.157200813293457,1.4512364864349365
15071.21606803895,0.9266355037689209,1.0675004720687866,1.157362699508667,1.4512364864349365
15071.218068099011,0.9267974495887756,1.0673385858535767,1.1578484773635864,1.4510746002197266
15071.220068159071,0.927606999874115,1.0662052631378174,1.1576865911483765,1.4510746002197266
15071.222068219133,0.9259878396987915,1.065719485282898,1.157362699508667,1.450912594795227
15071.224068279193,0.9263116717338562,1.0660432577133179,1.157200813293457,1.450912594795227
15071.226068339252,0.9266355037689209,1.0673385858535767,1.157200813293457,1.450750708580017
15071.228068399314,0.9256640076637268,1.067824363708496,1.1563912630081177,1.4504269361495972
15071.230068459374,0.9256640076637268,1.0675004720687866,1.157200813293457,1.4501030445098877
15071.232068519435,0.9267974495887756,1.0676624774932861,1.157362699508667,1.4515602588653564
15071.234068579495,0.9263116717338562,1.0671766996383667,1.157200813293457,1.451722264289856
15071.236068639555,0.9256640076637268,1.0665290355682373,1.157524585723877,1.4505888223648071
15071.238068699617,0.9261497855186462,1.0673385858535767,1.1568769216537476,1.4505888223648071
15071.240068759676,0.9271212220191956,1.0675004720687866,1.157524585723877,1.4513983726501465
15071.242068819736,0.9261497855186462,1.0670148134231567,1.1567150354385376,1.4504269361495972
15071.244068879798,0.9256640076637268,1.0668529272079468,1.1563912630081177,1.4491316080093384
15071.246068939858,0.9258259534835815,1.0666909217834473,1.1568769216537476,1.4497792720794678
15071.248068999917,0.9258259534835815,1.0668529272079468,1.1567150354385376,1.4501030445098877
15071.250069059979,0.9243687391281128,1.0666909217834473,1.157038927078247,1.4501030445098877
15071.252069120039,0.9255021214485168,1.065881371498108,1.1567150354385376,1.4502650499343872
15071.2540691801,0.9263116717338562,1.065719485282898,1.1568769216537476,1.450750708580017
15071.25606924016,0.9266355037689209,1.065881371498108,1.1578484773635864,1.4499411582946777
15071.25806930022,0.9274450540542603,1.0665290355682373,1.1576865911483765,1.4502650499343872
15071.260069360282,0.9284165501594543,1.0653955936431885,1.1576865911483765,1.4504269361495972
15071.262069420342,0.9259878396987915,1.0653955936431885,1.157200813293457,1.4501030445098877
15071.264069480401,0.9256640076637268,1.065881371498108,1.157362699508667,1.4501030445098877
15071.266069540463,0.9266355037689209,1.0662052631378174,1.157362699508667,1.4497792720794678
15071.268069600523,0.9263116717338562,1.0665290355682373,1.157200813293457,1.4501030445098877
15071.270069660583,0.9261497855186462,1.0662052631378174,1.1563912630081177,1.4501030445098877
15071.272069720644,0.9271212220191956,1.065881371498108,1.1565531492233276,1.4510746002197266
15071.274069780704,0.9263116717338562,1.065881371498108,1.1580103635787964,1.450750708580017
15071.276069840766,0.9253401756286621,1.0663671493530273,1.1581722497940063,1.4501030445098877
15071.278069900825,0.9266355037689209,1.0665290355682373,1.1581722497940063,1.450750708580017
15071.280069960885,0.9272831678390503,1.0665290355682373,1.1580103635787964,1.4510746002197266
15071.282070020947,0.9266355037689209,1.0666909217834473,1.1576865911483765,1.4501030445098877
15071.284070081007,0.9261497855186462,1.0663671493530273,1.157038927078247,1.4497792720794678
15071.286070141068,0.9266355037689209,1.065557599067688,1.1567150354385376,1.4502650499343872
15071.288070201128,0.9266355037689209,1.065881371498108,1.1559054851531982,1.4502650499343872
15071.290070261188,0.9256640076637268,1.0660432577133179,1.1565531492233276,1.4502650499343872
15071.292070321248,0.9267974495887756,1.065881371498108,1.157200813293457,1.4512364864349365
15071.29407038131,0.9264736175537109,1.065557599067688,1.157362699508667,1.4499411582946777
15071.296070441369,0.9258259534835815,1.065881371498108,1.1578484773635864,1.4501030445098877
15071.29807050143,0.9266355037689209,1.0666909217834473,1.1580103635787964,1.4501030445098877
15071.30007056149,0.927768886089325,1.0670148134231567,1.157200813293457,1.4504269361495972
15071.30207062155,0.9261497855186462,1.0665290355682373,1.1581722497940063,1.4494553804397583
15071.304070681612,0.9258259534835815,1.065881371498108,1.1586580276489258,1.4494553804397583
15071.306070741672,0.9263116717338562,1.0660432577133179,1.1584961414337158,1.4502650499343872
15071.308070801733,0.9267974495887756,1.0653955936431885,1.1576865911483765,1.4499411582946777
15071.310070861793,0.9256640076637268,1.0650718212127686,1.157362699508667,1.4496173858642578
15071.312070921853,0.9267974495887756,1.065557599067688,1.1578484773635864,1.4502650499343872
15071.314070981914,0.9269593358039856,1.0666909217834473,1.1578484773635864,1.4505888223648071
15071.316071041974,0.9272831678390503,1.0665290355682373,1.1578484773635864,1.4505888223648071
15071.318071102034,0.9271212220191956,1.065881371498108,1.1584961414337158,1.4502650499343872
15071.320071162096,0.928740382194519,1.065881371498108,1.1584961414337158,1.4494553804397583
15071.322071222156,0.9272831678390503,1.0665290355682373,1.1586580276489258,1.4496173858642578
15071.324071282215,0.9272831678390503,1.0665290355682373,1.157524585723877,1.4502650499343872
15071.326071342277,0.9280927181243896,1.0668529272079468,1.1578484773635864,1.4501030445098877
15071.328071402337,0.9282546639442444,1.0673385858535767,1.1588199138641357,1.4494553804397583
15071.330071462398,0.9266355037689209,1.0666909217834473,1.1593056917190552,1.448807716369629
15071.332071522458,0.9285784959793091,1.0662052631378174,1.1584961414337158,1.4489697217941284
15071.334071582518,0.9285784959793091,1.0663671493530273,1.1588199138641357,1.4494553804397583
15071.33607164258,0.9290642142295837,1.0662052631378174,1.1584961414337158,1.4504269361495972
15071.33807170264,0.9285784959793091,1.0665290355682373,1.1583342552185059,1.4505888223648071
15071.3400717627,0.9292261004447937,1.0666909217834473,1.1586580276489258,1.4502650499343872
15071.34207182276,0.927606999874115,1.0665290355682373,1.1581722497940063,1.4489697217941284
15071.34407188282,0.9269593358039856,1.0663671493530273,1.157200813293457,1.4489697217941284
15071.34607194288,0.927768886089325,1.065719485282898,1.1580103635787964,1.4491316080093384
15071.348072002942,0.927606999874115,1.0653955936431885,1.1597914695739746,1.4491316080093384
15071.350072063002,0.9267974495887756,1.0649099349975586,1.1597914695739746,1.4494553804397583
15071.352072123063,0.9284165501594543,1.0650718212127686,1.1589818000793457,1.4502650499343872
15071.354072183123,0.9280927181243896,1.065557599067688,1.1588199138641357,1.4502650499343872
15071.356072243183,0.9279308319091797,1.065719485282898,1.1588199138641357,1.450750708580017
15071.358072303245,0.9292261004447937,1.0650718212127686,1.1584961414337158,1.450912594795227
15071.360072363304,0.9300357103347778,1.0652337074279785,1.1588199138641357,1.4505888223648071
15071.362072423366,0.9280927181243896,1.0653955936431885,1.1588199138641357,1.4505888223648071
15071.364072483426,0.9279308319091797,1.0652337074279785,1.1584961414337158,1.450750708580017
15071.366072543486,0.927606999874115,1.0652337074279785,1.1588199138641357,1.4497792720794678
15071.368072603547,0.9279308319091797,1.0653955936431885,1.1591438055038452,1.448807716369629
15071.370072663607,0.9274450540542603,1.065719485282898,1.1591438055038452,1.4489697217941284
15071.372072723667,0.9280927181243896,1.065881371498108,1.1593056917190552,1.4499411582946777
15071.374072783728,0.9282546639442444,1.0663671493530273,1.1591438055038452,1.4504269361495972
15071.376072843788,0.928740382194519,1.0665290355682373,1.1589818000793457,1.4512364864349365
15071.378072903848,0.928740382194519,1.0670148134231567,1.1583342552185059,1.4510746002197266
15071.38007296391,0.9300357103347778,1.0662052631378174,1.1589818000793457,1.4504269361495972
15071.38207302397,0.9285784959793091,1.0650718212127686,1.1599533557891846,1.4491316080093384
15071.384073084031,0.9282546639442444,1.0644241571426392,1.1597914695739746,1.448645830154419
15071.386073144091,0.9272831678390503,1.0644241571426392,1.1591438055038452,1.4491316080093384
15071.38807320415,0.927768886089325,1.0650718212127686,1.1584961414337158,1.4494553804397583
15071.390073264212,0.927606999874115,1.0652337074279785,1.1591438055038452,1.4494553804397583
15071.392073324272,0.9282546639442444,1.0652337074279785,1.1588199138641357,1.4501030445098877
15071.394073384332,0.9279308319091797,1.0652337074279785,1.1586580276489258,1.4501030445098877
15071.396073444394,0.9293880462646484,1.0650718212127686,1.1589818000793457,1.4510746002197266
15071.398073504453,0.9297118782997131,1.0650718212127686,1.1593056917190552,1.4502650499343872
15071.400073564513,0.9298737645149231,1.0645860433578491,1.1597914695739746,1.4499411582946777
15071.402073624575,0.9289023280143738,1.0652337074279785,1.159629464149475,1.4489697217941284
15071.404073684635,0.9292261004447937,1.065557599067688,1.159629464149475,1.4489697217941284
15071.406073744696,0.9284165501594543,1.065719485282898,1.1594675779342651,1.4491316080093384
15071.408073804756,0.927768886089325,1.065881371498108,1.159629464149475,1.4499411582946777
15071.410073864816,0.9267974495887756,1.065719485282898,1.1586580276489258,1.4499411582946777
15071.412073924877,0.9280927181243896,1.0652337074279785,1.1597914695739746,1.4501030445098877
15071.414073984937,0.9284165501594543,1.0653955936431885,1.1597914695739746,1.4496173858642578
15071.416074044999,0.928740382194519,1.0653955936431885,1.1593056917190552,1.4491316080093384
15071.418074105059,0.9292261004447937,1.065719485282898,1.1594675779342651,1.4501030445098877
15071.420074165118,0.9300357103347778,1.065719485282898,1.1591438055038452,1.4492934942245483
15071.422074225178,0.9279308319091797,1.0653955936431885,1.1589818000793457,1.448645830154419
15071.42407428524,0.928740382194519,1.0647480487823486,1.1602771282196045,1.448807716369629
15071.4260743453,0.9297118782997131,1.0649099349975586,1.160762906074524,1.448645830154419
15071.428074405361,0.9298737645149231,1.0650718212127686,1.160762906074524,1.4496173858642578
15071.430074465421,0.9280927181243896,1.0647480487823486,1.160439133644104,1.4499411582946777
15071.43207452548,0.9293880462646484,1.0649099349975586,1.1609247922897339,1.4505888223648071
15071.434074585542,0.9293880462646484,1.065557599067688,1.1610867977142334,1.4505888223648071
15071.436074645602,0.9292261004447937,1.0662052631378174,1.1602771282196045,1.4499411582946777
15071.438074705664,0.9300357103347778,1.0660432577133179,1.1599533557891846,1.4497792720794678
15071.440074765724,0.9306833744049072,1.065881371498108,1.1609247922897339,1.4491316080093384
15071.442074825783,0.9289023280143738,1.0652337074279785,1.160601019859314,1.448807716369629
15071.444074885845,0.9293880462646484,1.0645860433578491,1.1601152420043945,1.4494553804397583
15071.446074945905,0.9293880462646484,1.0641003847122192,1.1594675779342651,1.4497792720794678
15071.448075005965,0.9293880462646484,1.0649099349975586,1.1594675779342651,1.4497792720794678
15071.450075066026,0.9279308319091797,1.065557599067688,1.159629464149475,1.4497792720794678
15071.452075126086,0.9303595423698425,1.065557599067688,1.1602771282196045,1.4489697217941284
15071.454075186146,0.9301975965499878,1.0645860433578491,1.1609247922897339,1.4499411582946777
15071.456075246208,0.9305214285850525,1.0647480487823486,1.1609247922897339,1.4499411582946777
15071.458075306267,0.9301975965499878,1.0653955936431885,1.1602771282196045,1.4501030445098877
15071.460075366329,0.9311690926551819,1.0649099349975586,1.1601152420043945,1.4502650499343872
15071.462075426389,0.9298737645149231,1.0634527206420898,1.160439133644104,1.4497792720794678
15071.464075486449,0.9293880462646484,1.0631288290023804,1.1602771282196045,1.4496173858642578
15071.46607554651,0.9285784959793091,1.0629669427871704,1.159629464149475,1.4492934942245483
15071.46807560657,0.9290642142295837,1.0647480487823486,1.159629464149475,1.448645830154419
15071.47007566663,0.9292261004447937,1.065557599067688,1.1599533557891846,1.448160171508789
15071.472075726691,0.9308452606201172,1.0642622709274292,1.1602771282196045,1.4492934942245483
15071.474075786751,0.9313310384750366,1.0637764930725098,1.1602771282196045,1.4497792720794678
15071.476075846811,0.9310072064399719,1.0641003847122192,1.160601019859314,1.4497792720794678
15071.478075906873,0.9305214285850525,1.0641003847122192,1.1602771282196045,1.4499411582946777
15071.480075966932,0.9316548109054565,1.0634527206420898,1.160439133644104,1.4499411582946777
15071.482076026994,0.9301975965499878,1.0642622709274292,1.1602771282196045,1.4489697217941284
15071.484076087054,0.9298737645149231,1.0647480487823486,1.160439133644104,1.4496173858642578
15071.486076147114,0.9303595423698425,1.0647480487823486,1.1609247922897339,1.448160171508789
15071.488076207175,0.9298737645149231,1.0645860433578491,1.1612486839294434,1.448645830154419
15071.490076267235,0.9292261004447937,1.0647480487823486,1.160762906074524,1.4494553804397583
15071.492076327297,0.9314929246902466,1.0637764930725098,1.1597914695739746,1.4494553804397583
15071.494076387356,0.9305214285850525,1.0641003847122192,1.1601152420043945,1.4491316080093384
15071.496076447416,0.9300357103347778,1.0642622709274292,1.1602771282196045,1.4501030445098877
15071.498076507478,0.9305214285850525,1.0639383792877197,1.1602771282196045,1.450750708580017
15071.500076567538,0.9308452606201172,1.0641003847122192,1.160762906074524,1.4504269361495972
15071.502076627597,0.9303595423698425,1.0634527206420898,1.1610867977142334,1.4494553804397583
15071.50407668766,0.9298737645149231,1.0632907152175903,1.160601019859314,1.4479981660842896
15071.506076747719,0.9297118782997131,1.0636146068572998,1.159629464149475,1.448807716369629
15071.508076807779,0.9293880462646484,1.0631288290023804,1.1594675779342651,1.4489697217941284
15071.51007686784,0.9292261004447937,1.0641003847122192,1.1599533557891846,1.4494553804397583
15071.5120769279,0.9316548109054565,1.0642622709274292,1.159629464149475,1.448483943939209
15071.514076987962,0.9313310384750366,1.0636146068572998,1.1614105701446533,1.448645830154419
15071.516077048022,0.9313310384750366,1.0632907152175903,1.1617343425750732,1.4491316080093384
15071.518077108081,0.9316548109054565,1.0641003847122192,1.1609247922897339,1.4496173858642578
15071.520077168143,0.9326263070106506,1.0639383792877197,1.160762906074524,1.4496173858642578
15071.522077228203,0.9303595423698425,1.0636146068572998,1.1609247922897339,1.448322057723999
15071.524077288263,0.9297118782997131,1.0626431703567505,1.1609247922897339,1.448483943939209
15071.526077348324,0.9303595423698425,1.0628050565719604,1.1618963479995728,1.448807716369629
15071.528077408384,0.9313310384750366,1.0629669427871704,1.1615724563598633,1.4489697217941284
15071.530077468444,0.9308452606201172,1.0628050565719604,1.1615724563598633,1.4489697217941284
15071.532077528505,0.9319786429405212,1.0629669427871704,1.1617343425750732,1.4491316080093384
15071.534077588565,0.9319786429405212,1.062481164932251,1.1610867977142334,1.448483943939209
15071.536077648627,0.9323024749755859,1.0628050565719604,1.1602771282196045,1.4491316080093384
15071.538077708687,0.9327882528305054,1.0626431703567505,1.1591438055038452,1.4501030445098877
15071.540077768746,0.9323024749755859,1.062319278717041,1.1602771282196045,1.4499411582946777
15071.542077828808,0.9313310384750366,1.062481164932251,1.1614105701446533,1.4496173858642578
15071.544077888868,0.9319786429405212,1.0628050565719604,1.1615724563598633,1.4496173858642578
15071.546077948928,0.9323024749755859,1.0626431703567505,1.1615724563598633,1.4499411582946777
15071.54807800899,0.9318167567253113,1.062481164932251,1.1614105701446533,1.4497792720794678
15071.550078069049,0.9311690926551819,1.061995506286621,1.1610867977142334,1.4496173858642578
15071.552078129109,0.9324644207954407,1.062157392501831,1.1614105701446533,1.4504269361495972
15071.55407818917,0.932140588760376,1.062157392501831,1.1620582342147827,1.450750708580017
15071.55607824923,0.932140588760376,1.0616716146469116,1.1625440120697021,1.4501030445098877
15071.558078309292,0.93327397108078,1.0611858367919922,1.1610867977142334,1.4494553804397583
15071.560078369352,0.9344073534011841,1.0615097284317017,1.1612486839294434,1.4496173858642578
15071.562078429411,0.9327882528305054,1.061995506286621,1.1614105701446533,1.4491316080093384
15071.564078489473,0.9323024749755859,1.062481164932251,1.1614105701446533,1.4494553804397583
15071.566078549533,0.9329501390457153,1.062319278717041,1.1622201204299927,1.4502650499343872
15071.568078609595,0.9331120848655701,1.062319278717041,1.1615724563598633,1.4501030445098877
15071.570078669654,0.9324644207954407,1.0626431703567505,1.1609247922897339,1.4494553804397583
15071.572078729714,0.9337596893310547,1.0615097284317017,1.160601019859314,1.4499411582946777
15071.574078789776,0.9340835213661194,1.0611858367919922,1.1610867977142334,1.4504269361495972
15071.576078849836,0.9345692992210388,1.0615097284317017,1.1610867977142334,1.4504269361495972
15071.578078909895,0.9352169632911682,1.0616716146469116,1.1612486839294434,1.4505888223648071
15071.580078969957,0.9348931312561035,1.062157392501831,1.1614105701446533,1.450750708580017
15071.582079030017,0.9324644207954407,1.0628050565719604,1.1620582342147827,1.4501030445098877
15071.584079090077,0.9326263070106506,1.0636146068572998,1.1614105701446533,1.4505888223648071
15071.586079150138,0.9334359169006348,1.062319278717041,1.1612486839294434,1.4501030445098877
15071.588079210198,0.9340835213661194,1.062319278717041,1.1612486839294434,1.4491316080093384
15071.59007927026,0.9326263070106506,1.062319278717041,1.1614105701446533,1.4494553804397583
15071.59207933032,0.9334359169006348,1.062481164932251,1.160762906074524,1.4494553804397583
15071.59407939038,0.9334359169006348,1.0628050565719604,1.159629464149475,1.4502650499343872
15071.59607945044,0.9329501390457153,1.062319278717041,1.1597914695739746,1.4492934942245483
15071.5980795105,0.9329501390457153,1.0610239505767822,1.1599533557891846,1.4494553804397583
15071.60007957056,0.9344073534011841,1.0605382919311523,1.1599533557891846,1.4499411582946777
15071.602079630622,0.9324644207954407,1.0605382919311523,1.1601152420043945,1.4494553804397583
15071.604079690682,0.9331120848655701,1.0607001781463623,1.1597914695739746,1.4494553804397583
15071.606079750742,0.9331120848655701,1.0613478422164917,1.1597914695739746,1.4491316080093384
15071.608079810803,0.9331120848655701,1.0607001781463623,1.1601152420043945,1.4491316080093384
15071.610079870863,0.9323024749755859,1.0613478422164917,1.1602771282196045,1.4492934942245483
15071.612079930925,0.9337596893310547,1.0607001781463623,1.1617343425750732,1.4501030445098877
15071.614079990984,0.9339216351509094,1.0608620643615723,1.1612486839294434,1.4496173858642578
15071.616080051044,0.9337596893310547,1.0605382919311523,1.1614105701446533,1.4497792720794678
15071.618080111106,0.9340835213661194,1.0607001781463623,1.160762906074524,1.4505888223648071
15071.620080171166,0.9347311854362488,1.0602144002914429,1.1601152420043945,1.450750708580017
15071.622080231227,0.9331120848655701,1.0607001781463623,1.1597914695739746,1.4494553804397583
15071.624080291287,0.9334359169006348,1.0615097284317017,1.1599533557891846,1.4501030445098877
15071.626080351347,0.93327397108078,1.0605382919311523,1.1602771282196045,1.4499411582946777
15071.628080411407,0.9329501390457153,1.0607001781463623,1.160439133644104,1.4499411582946777
15071.630080471468,0.9326263070106506,1.0611858367919922,1.160601019859314,1.4492934942245483
15071.632080531528,0.9340835213661194,1.0607001781463623,1.1609247922897339,1.4502650499343872
15071.63408059159,0.9348931312561035,1.0605382919311523,1.1612486839294434,1.4510746002197266
15071.63608065165,0.9342454671859741,1.059890627861023,1.1602771282196045,1.4504269361495972
15071.63808071171,0.9339216351509094,1.0603762865066528,1.1591438055038452,1.4501030445098877
15071.640080771771,0.9344073534011841,1.0613478422164917,1.1597914695739746,1.4497792720794678
15071.64208083183,0.9327882528305054,1.0616716146469116,1.1599533557891846,1.4496173858642578
15071.644080891892,0.9331120848655701,1.0615097284317017,1.160601019859314,1.4499411582946777
15071.646080951952,0.93327397108078,1.0611858367919922,1.159629464149475,1.4504269361495972
15071.648081012012,0.9324644207954407,1.0607001781463623,1.1597914695739746,1.4502650499343872
15071.650081072074,0.932140588760376,1.0607001781463623,1.1594675779342651,1.4497792720794678
15071.652081132133,0.9335978031158447,1.0605382919311523,1.1591438055038452,1.4505888223648071
15071.654081192193,0.9337596893310547,1.0608620643615723,1.1589818000793457,1.4510746002197266
15071.656081252255,0.9340835213661194,1.0605382919311523,1.1591438055038452,1.4497792720794678
15071.658081312315,0.9348931312561035,1.0597286224365234,1.1602771282196045,1.4510746002197266
15071.660081372374,0.9352169632911682,1.0597286224365234,1.159629464149475,1.4505888223648071
15071.662081432436,0.9337596893310547,1.0602144002914429,1.1599533557891846,1.4502650499343872
15071.664081492496,0.9339216351509094,1.0605382919311523,1.160601019859314,1.4504269361495972
15071.666081552557,0.9340835213661194,1.0605382919311523,1.160439133644104,1.4502650499343872
15071.668081612617,0.93327397108078,1.0602144002914429,1.1602771282196045,1.4496173858642578
15071.670081672677,0.9327882528305054,1.0605382919311523,1.1602771282196045,1.450750708580017
15071.672081732739,0.9348931312561035,1.0607001781463623,1.1593056917190552,1.4515602588653564
15071.674081792798,0.9348931312561035,1.0603762865066528,1.1591438055038452,1.4504269361495972
15071.676081852858,0.9342454671859741,1.0602144002914429,1.1591438055038452,1.4502650499343872
15071.67808191292,0.9344073534011841,1.059890627861023,1.1588199138641357,1.4505888223648071
15071.68008197298,0.9353788495063782,1.0602144002914429,1.1589818000793457,1.4505888223648071
15071.68208203304,0.9337596893310547,1.0597286224365234,1.1597914695739746,1.4505888223648071
15071.684082093101,0.9344073534011841,1.0597286224365234,1.160439133644104,1.450750708580017
15071.68608215316,0.9339216351509094,1.0594048500061035,1.1594675779342651,1.4499411582946777
15071.688082213223,0.9331120848655701,1.059890627861023,1.1594675779342651,1.4499411582946777
15071.690082273282,0.9326263070106506,1.0603762865066528,1.160601019859314,1.4496173858642578
15071.692082333342,0.9339216351509094,1.0602144002914429,1.160439133644104,1.4505888223648071
15071.694082393404,0.9348931312561035,1.0595667362213135,1.160762906074524,1.4510746002197266
15071.696082453464,0.9350550174713135,1.0592429637908936,1.1601152420043945,1.4505888223648071
15071.698082513525,0.9345692992210388,1.0597286224365234,1.159629464149475,1.4513983726501465
15071.700082573585,0.9355407953262329,1.0603762865066528,1.1591438055038452,1.4505888223648071
15071.702082633645,0.9335978031158447,1.0607001781463623,1.1586580276489258,1.4499411582946777
15071.704082693706,0.9335978031158447,1.0611858367919922,1.1591438055038452,1.4501030445098877
15071.706082753766,0.9334359169006348,1.0608620643615723,1.1589818000793457,1.4496173858642578
15071.708082813826,0.9329501390457153,1.0602144002914429,1.159629464149475,1.4502650499343872
15071.710082873888,0.9323024749755859,1.0602144002914429,1.1594675779342651,1.4502650499343872
