0,1,2,3,4,5,6,7,8,9,10
13973.33738266913,387.88604736328125,308.9420166015625,33.2587776184082,-400.5937805175781,-12.064262390136719,62.73775100708008,29.279626846313477,84.10417175292969,16383.5,65535.0
13973.33778267776,377.0748291015625,310.8484191894531,43.91365051269531,-402.56536865234375,-8.825543403625488,67.91065979003906,31.935546875,89.84656524658203,16383.5,65535.0
13973.338182686388,360.82891845703125,309.5728454589844,49.124122619628906,-408.36175537109375,-11.017243385314941,69.2870101928711,30.713871002197266,89.707763671875,16383.5,65535.0
13973.338582695018,341.7680358886719,306.1067810058594,53.34025573730469,-424.2347106933594,-14.842547416687012,66.1151351928711,30.774517059326172,87.63650512695312,16383.5,65535.0
13973.338982703648,330.5267639160156,307.992431640625,48.5572509765625,-443.49224853515625,-15.442923545837402,61.539791107177734,25.686330795288086,84.60009765625,16383.5,65535.0
13973.339382712278,328.21307373046875,308.9010009765625,22.658723831176758,-449.4157409667969,-16.0887508392334,62.27392578125,25.09156036376953,81.80165100097656,16383.5,65535.0
13973.339782720908,371.586181640625,318.33502197265625,25.44708251953125,-452.79132080078125,-21.627761840820312,56.22535705566406,24.152376174926758,75.75313568115234,16383.5,65535.0
13973.340182729537,415.2699890136719,318.3055114746094,41.043861389160156,-466.4764709472656,-19.8272705078125,58.51698684692383,21.489944458007812,80.11660766601562,16383.5,65535.0
13973.340582738167,431.4116516113281,311.10968017578125,60.52744674682617,-453.01629638671875,-19.187597274780273,58.65540313720703,24.71767234802246,80.77630615234375,16383.5,65535.0
13973.340982746797,436.72857666015625,320.4242858886719,77.50980377197266,-447.07830810546875,-15.924427032470703,54.823768615722656,25.194473266601562,79.07501220703125,16383.5,65535.0
13973.341382755425,425.05230712890625,321.0458679199219,82.74305725097656,-436.8014221191406,-27.272640228271484,45.745323181152344,16.671775817871094,72.4751205444336,16383.5,65535.0
13973.341782764055,406.2341613769531,321.72906494140625,85.82503509521484,-424.4140625,-22.655616760253906,51.71031951904297,19.40233039855957,79.00552368164062,16383.5,65535.0
13973.342182772685,405.698974609375,311.79730224609375,95.60296630859375,-405.2472229003906,-23.67865753173828,47.882205963134766,16.065832138061523,73.81584930419922,16383.5,65535.0
13973.342582781315,430.619873046875,307.2923278808594,105.29829406738281,-403.2606506347656,-27.96641731262207,44.40326690673828,14.449769020080566,70.85689544677734,16383.5,65535.0
13973.342982789944,466.8738708496094,311.5877990722656,97.9547348022461,-421.6072998046875,-19.174728393554688,51.47200012207031,22.73269271850586,78.35377502441406,16383.5,65535.0
13973.343382798574,480.0394592285156,313.25079345703125,61.997371673583984,-433.8694152832031,-17.129741668701172,55.22865676879883,25.266490936279297,82.4647445678711,16383.5,65535.0
13973.343782807204,470.6880187988281,314.72088623046875,50.335174560546875,-436.28704833984375,-22.966745376586914,44.84577941894531,18.00887680053711,74.07582092285156,16383.5,65535.0
13973.344182815834,465.9692077636719,315.65447998046875,55.7348518371582,-423.3627624511719,-27.719327926635742,37.467464447021484,11.039685249328613,67.53366088867188,16383.5,65535.0
13973.344582824462,446.8642883300781,319.21044921875,17.507770538330078,-406.2266845703125,-27.482807159423828,36.799190521240234,15.024347305297852,69.9681167602539,16383.5,65535.0
13973.344982833092,406.1683044433594,308.1374816894531,-42.35216522216797,-382.4792175292969,-35.8424072265625,29.968708038330078,6.67821741104126,62.615684509277344,16383.5,65535.0
13973.345382841722,371.8922119140625,302.07366943359375,-41.940006256103516,-372.5578918457031,-31.92228126525879,31.58875274658203,9.234235763549805,66.08831024169922,16383.5,65535.0
13973.345782850352,334.18182373046875,310.1636657714844,10.987123489379883,-377.19482421875,-35.51278305053711,27.195297241210938,6.620866775512695,63.11845397949219,16383.5,65535.0
13973.34618285898,318.26092529296875,294.0339050292969,56.18742370605469,-387.12139892578125,-34.99808883666992,21.183507919311523,2.5922532081604004,61.07956314086914,16383.5,65535.0
13973.34658286761,299.9091796875,292.0262145996094,85.46395111083984,-388.50579833984375,-31.884471893310547,28.107179641723633,10.429413795471191,67.543212890625,16383.5,65535.0
13973.34698287624,290.7638854980469,311.8774108886719,86.21089172363281,-387.80535888671875,-46.621883392333984,14.460947036743164,-0.5855496525764465,54.97029495239258,16383.5,65535.0
13973.347382884871,290.72869873046875,301.00225830078125,83.16290283203125,-399.7153625488281,-37.86259078979492,17.15701675415039,1.571443796157837,59.18680953979492,16383.5,65535.0
13973.3477828935,300.1274108886719,306.5626220703125,98.84381866455078,-399.3917236328125,-35.09086227416992,22.30336570739746,6.432247638702393,61.57118225097656,16383.5,65535.0
13973.34818290213,301.7386169433594,300.68609619140625,114.69339752197266,-403.7785949707031,-36.67420196533203,24.892955780029297,6.758782863616943,62.56692123413086,16383.5,65535.0
13973.34858291076,285.27276611328125,301.54010009765625,123.34796905517578,-403.9873962402344,-40.07142639160156,15.135730743408203,1.6264536380767822,57.206336975097656,16383.5,65535.0
13973.34898291939,266.9117736816406,303.6461181640625,123.68109130859375,-389.6771545410156,-40.73994445800781,12.575630187988281,-0.5295185446739197,56.47543716430664,16383.5,65535.0
13973.349382928018,276.58984375,293.2597351074219,127.6033706665039,-378.16375732421875,-37.68880081176758,21.10126495361328,5.011990547180176,62.91717529296875,16383.5,65535.0
13973.349782936648,294.5331726074219,307.01544189453125,126.65389251708984,-369.55975341796875,-34.565372467041016,23.514192581176758,10.001989364624023,63.01356887817383,16383.5,65535.0
13973.350182945278,314.3947448730469,316.1057434082031,143.12388610839844,-371.1488037109375,-28.8018856048584,25.662080764770508,13.992894172668457,70.11815643310547,16383.5,65535.0
13973.350582953908,344.7791748046875,315.69049072265625,141.85865783691406,-374.669921875,-23.75122833251953,35.24877166748047,19.435747146606445,78.39917755126953,16383.5,65535.0
13973.350982962536,369.7718200683594,320.0639343261719,125.95003509521484,-375.2843322753906,-23.445375442504883,38.17014694213867,20.60639762878418,75.21741485595703,16383.5,65535.0
13973.351382971166,387.265869140625,309.938720703125,104.04584503173828,-372.5984802246094,-28.661245346069336,32.476688385009766,14.529763221740723,71.0352783203125,16383.5,65535.0
13973.351782979797,411.1795654296875,313.16497802734375,93.26512145996094,-363.5557861328125,-30.60626792907715,29.966161727905273,12.452630043029785,68.3375244140625,16383.5,65535.0
13973.352182988427,410.8983154296875,315.2301025390625,117.27165985107422,-353.3911437988281,-21.846168518066406,38.87130355834961,22.505414962768555,78.33118438720703,16383.5,65535.0
13973.352582997055,387.3868103027344,319.11767578125,124.059326171875,-342.9208984375,-22.97796630859375,37.074195861816406,17.683446884155273,74.83621215820312,16383.5,65535.0
13973.352983005685,384.60565185546875,325.0200500488281,83.90577697753906,-343.9047546386719,-25.65567970275879,41.21783447265625,19.397916793823242,76.78382110595703,16383.5,65535.0
13973.353383014315,401.77996826171875,329.97662353515625,77.14949798583984,-379.8363037109375,-31.423446655273438,32.83715057373047,10.52862548828125,68.02937316894531,16383.5,65535.0
13973.353783022945,411.11383056640625,323.703857421875,106.59916687011719,-420.114013671875,-28.376718521118164,36.814090728759766,13.027788162231445,70.83638763427734,16383.5,65535.0
13973.354183031573,406.5201416015625,320.4998779296875,93.46051025390625,-449.2157897949219,-26.97108268737793,37.16735076904297,13.736883163452148,71.67308807373047,16383.5,65535.0
13973.354583040204,394.1468811035156,313.93194580078125,65.4192886352539,-455.413818359375,-29.650012969970703,35.51883316040039,14.711930274963379,68.68875885009766,16383.5,65535.0
13973.354983048834,387.549072265625,320.32476806640625,46.81016540527344,-440.4591979980469,-21.879335403442383,44.6903190612793,19.974870681762695,77.79255676269531,16383.5,65535.0
13973.355383057464,369.27056884765625,323.20458984375,19.822223663330078,-423.1290588378906,-22.628328323364258,48.80545425415039,21.78603744506836,78.06192779541016,16383.5,65535.0
13973.355783066092,375.7823181152344,327.72174072265625,-2.54927396774292,-391.447021484375,-16.231185913085938,54.1152229309082,24.461807250976562,78.30169677734375,16383.5,65535.0
13973.356183074722,394.4112548828125,317.5386657714844,-10.996563911437988,-357.1504211425781,-9.03662395477295,63.60923385620117,30.46858024597168,88.86813354492188,16383.5,65535.0
13973.356583083352,407.6171569824219,319.06585693359375,9.600456237792969,-359.2768249511719,-18.51822853088379,57.251705169677734,24.677143096923828,83.0211181640625,16383.5,65535.0
13973.356983091982,411.6140441894531,319.49456787109375,30.452844619750977,-381.0469055175781,-13.220768928527832,60.972877502441406,27.864177703857422,85.41146850585938,16383.5,65535.0
13973.35738310061,409.2760009765625,315.7536926269531,12.877226829528809,-414.5669860839844,-7.485070705413818,69.1375732421875,31.425966262817383,90.88584899902344,16383.5,65535.0
13973.35778310924,417.28558349609375,323.3370666503906,-6.482701778411865,-456.8724365234375,-14.824216842651367,63.411983489990234,28.003114700317383,86.18585968017578,16383.5,65535.0
13973.35818311787,418.8602294921875,327.83251953125,5.460709095001221,-483.8575439453125,-18.074708938598633,60.38747024536133,25.859113693237305,80.5688705444336,16383.5,65535.0
13973.3585831265,420.3437194824219,332.7837829589844,16.088438034057617,-505.3595275878906,-13.528013229370117,63.8005256652832,30.33772087097168,82.39990234375,16383.5,65535.0
13973.35898313513,417.8476867675781,334.3773193359375,33.24653625488281,-515.3299560546875,-10.98464584350586,68.0892105102539,33.15168762207031,89.48168182373047,16383.5,65535.0
13973.35938314376,432.2071838378906,327.9855651855469,37.29513168334961,-503.9604187011719,-9.152213096618652,67.93195343017578,30.35892105102539,90.78260040283203,16383.5,65535.0
13973.35978315239,436.5744934082031,331.2939758300781,2.8562381267547607,-476.5701904296875,-9.25342082977295,71.89348602294922,32.33212661743164,87.78819274902344,16383.5,65535.0
13973.36018316102,429.3807678222656,333.5042724609375,-11.678794860839844,-465.9778137207031,-21.94755744934082,55.570655822753906,17.254690170288086,77.3780517578125,16383.5,65535.0
13973.360583169648,414.3759460449219,333.9786376953125,-2.7676730155944824,-467.3597412109375,-18.424118041992188,58.475425720214844,24.806011199951172,82.84689331054688,16383.5,65535.0
13973.360983178278,403.435791015625,325.73321533203125,20.400781631469727,-462.1957702636719,-16.60612678527832,59.31991195678711,25.65946388244629,82.71992492675781,16383.5,65535.0
13973.361383186908,374.71356201171875,321.102294921875,32.026729583740234,-457.6454162597656,-17.878210067749023,58.06758117675781,25.781124114990234,80.87045288085938,16383.5,65535.0
13973.361783195538,353.72161865234375,327.9049377441406,21.091400146484375,-454.34051513671875,-17.227054595947266,54.212520599365234,26.468509674072266,81.95748138427734,16383.5,65535.0
13973.362183204166,353.49078369140625,331.6967468261719,-16.62458610534668,-465.6651611328125,-13.038774490356445,60.789798736572266,29.688983917236328,85.76322174072266,16383.5,65535.0
13973.362583212796,353.1554260253906,324.3658447265625,-45.481014251708984,-469.1923828125,-19.83988380432129,55.18692398071289,24.44356346130371,79.39600372314453,16383.5,65535.0
13973.362983221426,343.44049072265625,318.57904052734375,-43.73149108886719,-477.7930603027344,-26.622299194335938,46.955474853515625,18.28829574584961,76.2923812866211,16383.5,65535.0
13973.363383230057,352.468017578125,316.1744079589844,-52.48823928833008,-478.55023193359375,-18.330110549926758,50.799407958984375,23.572412490844727,79.64177703857422,16383.5,65535.0
13973.363783238685,350.3350830078125,330.10595703125,-41.41798400878906,-465.3005065917969,-14.037667274475098,54.91277313232422,25.06879234313965,82.72269439697266,16383.5,65535.0
13973.364183247315,363.30078125,326.6873779296875,-33.620147705078125,-488.9097595214844,-16.015501022338867,55.39742660522461,29.555715560913086,83.71728515625,16383.5,65535.0
13973.364583255945,374.8039245605469,318.1304016113281,-52.179439544677734,-499.8282165527344,-13.850221633911133,55.670753479003906,29.684213638305664,85.4959945678711,16383.5,65535.0
13973.364983264575,373.56640625,320.6104736328125,-43.009395599365234,-506.2879638671875,-16.322219848632812,49.510955810546875,23.652286529541016,81.29833221435547,16383.5,65535.0
13973.365383273203,372.0384216308594,325.049072265625,3.1746246814727783,-505.8652038574219,-14.279510498046875,54.41697692871094,27.58974838256836,86.42464447021484,16383.5,65535.0
13973.365783281834,367.8481140136719,320.150390625,0.14164797961711884,-511.0046691894531,-15.238621711730957,53.68431854248047,27.175735473632812,82.85503387451172,16383.5,65535.0
13973.366183290464,340.39324951171875,335.7447509765625,-61.103187561035156,-527.950927734375,-17.419612884521484,48.29881286621094,24.754989624023438,82.31562805175781,16383.5,65535.0
13973.366583299094,309.5797119140625,331.8341064453125,-101.45227813720703,-530.6978759765625,-31.10780906677246,33.76260757446289,13.488123893737793,71.32275390625,16383.5,65535.0
13973.366983307722,294.6750183105469,328.7066650390625,-109.75188446044922,-517.857421875,-15.959157943725586,46.26105880737305,27.55337905883789,82.7468490600586,16383.5,65535.0
13973.367383316352,296.2635803222656,326.4305419921875,-115.23125457763672,-519.0558471679688,-19.707290649414062,44.6585807800293,24.525339126586914,79.99981689453125,16383.5,65535.0
13973.367783324982,291.5288391113281,329.29400634765625,-104.43341827392578,-495.9349060058594,-26.3425235748291,32.25588607788086,14.888751983642578,73.82785034179688,16383.5,65535.0
13973.368183333612,323.49859619140625,323.958984375,-72.32524871826172,-474.2571105957031,-27.239212036132812,27.29936981201172,14.52249526977539,71.57247924804688,16383.5,65535.0
13973.36858334224,350.9954528808594,319.5048522949219,-55.34689712524414,-458.2923278808594,-11.868437767028809,42.14447784423828,29.423933029174805,83.4874038696289,16383.5,65535.0
13973.36898335087,374.7821960449219,315.7881774902344,-30.63840103149414,-450.87957763671875,-13.47746753692627,45.987239837646484,28.87604522705078,85.38703918457031,16383.5,65535.0
13973.3693833595,407.8774108886719,320.2361755371094,-17.152996063232422,-442.1142578125,-27.73668098449707,35.97277069091797,16.743471145629883,74.87367248535156,16383.5,65535.0
13973.36978336813,402.0149230957031,321.3238830566406,-59.11433792114258,-453.3353271484375,-19.34214973449707,38.81608200073242,23.092145919799805,79.2902603149414,16383.5,65535.0
13973.370183376759,388.6341552734375,326.458984375,-94.00321960449219,-455.11322021484375,-32.42160415649414,23.556821823120117,11.957473754882812,67.28549194335938,16383.5,65535.0
13973.37058338539,382.2431640625,320.4440612792969,-119.23660278320312,-451.2609558105469,-30.648433685302734,29.024436950683594,11.646493911743164,71.80901336669922,16383.5,65535.0
13973.37098339402,372.76483154296875,325.439208984375,-99.74018859863281,-458.376220703125,-18.31427574157715,39.46650314331055,21.465410232543945,79.2163314819336,16383.5,65535.0
13973.37138340265,381.2652282714844,326.972900390625,-54.073692321777344,-465.3063659667969,-23.495317459106445,34.61879348754883,19.70123291015625,72.8692398071289,16383.5,65535.0
13973.371783411278,393.53973388671875,324.8574523925781,-37.34298324584961,-478.9753723144531,-22.961820602416992,36.30415344238281,21.300004959106445,74.422607421875,16383.5,65535.0
13973.372183419908,417.2725830078125,325.910400390625,-55.7494010925293,-496.9585876464844,-17.45391273498535,40.9508171081543,25.872941970825195,79.038330078125,16383.5,65535.0
13973.372583428538,432.9833679199219,321.10760498046875,-54.143157958984375,-481.44232177734375,-21.077651977539062,37.978492736816406,19.475202560424805,75.58220672607422,16383.5,65535.0
13973.372983437166,443.6130676269531,333.0000305175781,-18.776809692382812,-470.55096435546875,-21.768878936767578,41.274322509765625,20.787805557250977,79.38719177246094,16383.5,65535.0
13973.373383445796,450.43402099609375,324.85577392578125,11.333280563354492,-466.1087646484375,-22.391996383666992,39.5735969543457,17.801305770874023,74.74720001220703,16383.5,65535.0
13973.373783454426,455.9617919921875,327.3403015136719,43.79220199584961,-463.19012451171875,-30.915016174316406,33.51278305053711,11.70480728149414,66.57038879394531,16383.5,65535.0
13973.374183463056,457.20379638671875,332.0201416015625,64.03692626953125,-456.88922119140625,-22.365814208984375,40.545413970947266,18.406991958618164,75.19685363769531,16383.5,65535.0
13973.374583471686,465.5587463378906,329.9956359863281,58.30033493041992,-444.8677062988281,-19.495126724243164,45.726436614990234,23.893035888671875,78.2646484375,16383.5,65535.0
13973.374983480315,481.8914794921875,336.1638488769531,65.19241333007812,-444.6088562011719,-24.97076416015625,42.13906478881836,18.219249725341797,73.9055404663086,16383.5,65535.0
13973.375383488945,472.8050231933594,334.4036865234375,95.34090423583984,-443.25152587890625,-21.290987014770508,46.6551513671875,22.695491790771484,77.82256317138672,16383.5,65535.0
13973.375783497575,482.1403503417969,327.0201416015625,138.65843200683594,-426.4077453613281,-18.96759796142578,49.4239501953125,23.805173873901367,81.00309753417969,16383.5,65535.0
13973.376183506203,479.8046875,332.52154541015625,165.18087768554688,-445.38018798828125,-16.37258529663086,52.81819152832031,27.717220306396484,83.90910339355469,16383.5,65535.0
13973.376583514833,460.3212585449219,332.9599914550781,184.07244873046875,-461.1786193847656,-16.48880958557129,57.84549331665039,25.20535659790039,82.92802429199219,16383.5,65535.0
13973.376983523463,450.1588134765625,341.2474060058594,194.04791259765625,-457.054931640625,-16.503002166748047,56.43293762207031,27.13754653930664,82.3226547241211,16383.5,65535.0
13973.377383532094,437.99224853515625,330.31036376953125,186.22494506835938,-440.0514221191406,-14.358394622802734,59.90548324584961,29.618968963623047,85.26576232910156,16383.5,65535.0
13973.377783540724,422.8101501464844,329.9156188964844,175.25177001953125,-459.1781005859375,-18.298015594482422,56.19376754760742,23.300796508789062,78.58513641357422,16383.5,65535.0
13973.378183549352,407.2142639160156,325.01556396484375,157.60736083984375,-479.2937927246094,-12.316800117492676,59.211185455322266,25.807525634765625,82.07937622070312,16383.5,65535.0
13973.378583557982,419.02325439453125,331.326904296875,158.11709594726562,-487.15496826171875,-11.409531593322754,64.19957733154297,30.20942497253418,87.5512924194336,16383.5,65535.0
13973.378983566612,427.281982421875,343.34307861328125,177.57205200195312,-502.0937194824219,-17.571613311767578,57.19780349731445,26.787031173706055,82.4921875,16383.5,65535.0
13973.37938357524,435.0052795410156,338.7154235839844,223.3310089111328,-506.2759094238281,-18.853458404541016,56.25194549560547,22.811616897583008,79.67932891845703,16383.5,65535.0
13973.37978358387,432.0096130371094,328.6379089355469,247.8795928955078,-498.5666198730469,-8.411849975585938,68.6683349609375,36.0297737121582,89.42645263671875,16383.5,65535.0
13973.3801835925,413.8747863769531,332.8963623046875,262.78790283203125,-492.96539306640625,-4.706945896148682,75.66949462890625,38.59598159790039,94.49244689941406,16383.5,65535.0
13973.38058360113,405.1095275878906,339.2154846191406,271.326904296875,-494.1932373046875,-14.266448974609375,63.58479309082031,26.728660583496094,85.7406005859375,16383.5,65535.0
13973.38098360976,403.1531066894531,343.9908752441406,275.8757019042969,-500.7754821777344,-25.4317569732666,49.43529510498047,20.39336585998535,76.11325073242188,16383.5,65535.0
13973.381383618389,412.03778076171875,353.02923583984375,268.7081298828125,-503.73602294921875,-21.542404174804688,50.70942687988281,19.680795669555664,75.0165786743164,16383.5,65535.0
13973.38178362702,422.2211608886719,340.84417724609375,246.21963500976562,-512.7112426757812,-19.08924674987793,56.46018600463867,24.440832138061523,80.12651824951172,16383.5,65535.0
13973.38218363565,422.4994812011719,338.4583435058594,230.84156799316406,-502.2648620605469,-10.569306373596191,65.56673431396484,32.312744140625,90.69278717041016,16383.5,65535.0
13973.382583644277,419.7979736328125,335.7111511230469,225.8217010498047,-498.7799987792969,-16.133249282836914,60.49445724487305,28.286409378051758,83.10611724853516,16383.5,65535.0
13973.382983652908,407.0434265136719,333.8062438964844,223.96034240722656,-498.9463806152344,-21.965152740478516,48.42673873901367,19.009565353393555,74.88484191894531,16383.5,65535.0
13973.383383661538,398.6676025390625,340.2679748535156,209.36949157714844,-493.5163879394531,-25.585132598876953,41.86061477661133,14.928520202636719,73.84034729003906,16383.5,65535.0
13973.383783670168,388.26898193359375,339.55242919921875,198.957763671875,-496.7179870605469,-18.3565731048584,51.90391159057617,21.742774963378906,79.5639877319336,16383.5,65535.0
13973.384183678796,369.0700378417969,342.7450866699219,202.05271911621094,-504.525390625,-23.82630729675293,44.87436294555664,19.117313385009766,73.37210845947266,16383.5,65535.0
13973.384583687426,359.5751037597656,343.9486083984375,197.2386474609375,-488.99078369140625,-24.726343154907227,38.94701385498047,15.32375717163086,72.6122055053711,16383.5,65535.0
13973.384983696056,338.66485595703125,336.3686828613281,178.11907958984375,-483.2265930175781,-22.15995216369629,42.00998306274414,19.959331512451172,74.2892837524414,16383.5,65535.0
13973.385383704686,336.2637939453125,338.5260925292969,173.88499450683594,-484.88092041015625,-26.52193260192871,38.30485916137695,15.200758934020996,71.9158935546875,16383.5,65535.0
13973.385783713315,324.5674743652344,344.3045349121094,165.68495178222656,-493.6058654785156,-15.057124137878418,48.61680221557617,27.37582015991211,83.28710174560547,16383.5,65535.0
13973.386183721945,307.9844970703125,336.17266845703125,123.11870574951172,-500.78375244140625,-31.675674438476562,35.09749221801758,13.914542198181152,68.03826904296875,16383.5,65535.0
13973.386583730575,309.2992858886719,337.7473449707031,122.53824615478516,-499.2554016113281,-34.39907455444336,28.85592269897461,5.731180191040039,68.777099609375,16383.5,65535.0
13973.386983739205,307.9814453125,342.2492370605469,114.81121826171875,-493.7460632324219,-25.79655647277832,35.315391540527344,18.50434112548828,74.25009155273438,16383.5,65535.0
13973.387383747833,304.2339782714844,345.084228515625,111.90534210205078,-486.4615478515625,-28.626781463623047,31.526390075683594,18.020286560058594,71.22402954101562,16383.5,65535.0
13973.387783756463,313.18621826171875,341.9333801269531,113.75435638427734,-496.7857971191406,-33.15198516845703,26.412761688232422,8.402411460876465,65.79022979736328,16383.5,65535.0
13973.388183765093,306.938232421875,340.6673583984375,136.14486694335938,-492.7682800292969,-45.091739654541016,12.071625709533691,-0.4816373288631439,53.84700393676758,16383.5,65535.0
13973.388583773723,276.3777770996094,329.6106872558594,192.26661682128906,-481.6686096191406,-32.347591400146484,21.45488739013672,10.782495498657227,62.68874740600586,16383.5,65535.0
13973.388983782352,267.58306884765625,329.89813232421875,258.6727600097656,-483.0811462402344,-23.599828720092773,36.524375915527344,19.742679595947266,75.86599731445312,16383.5,65535.0
13973.389383790982,261.15240478515625,340.8013610839844,282.6725769042969,-469.2187194824219,-24.858606338500977,33.23731994628906,14.803078651428223,73.23340606689453,16383.5,65535.0
13973.389783799612,259.98284912109375,340.17041015625,303.59716796875,-459.4651794433594,-23.87470817565918,33.19475173950195,16.120250701904297,73.11776733398438,16383.5,65535.0
13973.390183808242,267.0516052246094,334.8409729003906,299.66925048828125,-463.5225830078125,-32.3160514831543,24.72844123840332,12.645895004272461,66.04463958740234,16383.5,65535.0
13973.39058381687,273.48236083984375,339.4803161621094,317.98980712890625,-463.34246826171875,-29.892236709594727,26.055198669433594,12.612624168395996,68.78462982177734,16383.5,65535.0
13973.3909838255,275.88421630859375,334.96661376953125,317.1299743652344,-457.0074462890625,-26.841209411621094,32.0943603515625,17.644865036010742,74.8021011352539,16383.5,65535.0
13973.39138383413,264.7736511230469,333.6079406738281,284.2184143066406,-450.16351318359375,-21.730867385864258,36.58830261230469,19.597774505615234,76.45706176757812,16383.5,65535.0
13973.39178384276,281.0038757324219,337.0930480957031,245.26605224609375,-450.8476257324219,-19.392093658447266,39.78935623168945,22.339170455932617,77.33331298828125,16383.5,65535.0
13973.392183851389,293.6820068359375,334.2127685546875,182.03695678710938,-446.2802429199219,-23.076763153076172,38.480133056640625,19.943084716796875,76.493408203125,16383.5,65535.0
13973.392583860019,277.2720031738281,326.67401123046875,153.44631958007812,-453.8972473144531,-22.22269630432129,38.627532958984375,19.558090209960938,76.7350082397461,16383.5,65535.0
13973.392983868649,264.1447448730469,332.0077819824219,173.67466735839844,-457.873291015625,-32.79267883300781,27.793668746948242,10.029107093811035,65.65027618408203,16383.5,65535.0
13973.39338387728,264.26654052734375,330.17779541015625,179.1943817138672,-461.20135498046875,-20.680383682250977,37.44620132446289,19.732667922973633,77.4925537109375,16383.5,65535.0
13973.393783885907,254.27041625976562,334.4259033203125,183.22030639648438,-463.8877868652344,-12.215476989746094,50.333648681640625,27.982036590576172,84.32266998291016,16383.5,65535.0
13973.394183894537,241.7543182373047,327.572998046875,174.98707580566406,-457.2002258300781,-15.735715866088867,50.41072463989258,26.52251625061035,82.50052642822266,16383.5,65535.0
13973.394583903168,240.77059936523438,324.8255920410156,142.50338745117188,-455.9464416503906,-19.172042846679688,44.86935043334961,22.069839477539062,77.32806396484375,16383.5,65535.0
13973.394983911798,242.52700805664062,334.2998352050781,114.93362426757812,-463.8597717285156,-17.42623519897461,47.273345947265625,23.42551040649414,80.60858917236328,16383.5,65535.0
13973.395383920426,247.93394470214844,322.4430236816406,96.91505432128906,-469.6585998535156,-20.83173179626465,50.2193489074707,24.835853576660156,78.89266967773438,16383.5,65535.0
13973.395783929056,243.42747497558594,327.8411560058594,79.35874938964844,-471.9245910644531,-21.80075454711914,45.09239196777344,19.788667678833008,74.10887908935547,16383.5,65535.0
13973.396183937686,228.3074951171875,334.15228271484375,64.26392364501953,-463.38189697265625,-21.99323272705078,49.199249267578125,20.3463191986084,76.67341613769531,16383.5,65535.0
13973.396583946316,219.431396484375,340.083740234375,47.763545989990234,-458.9283142089844,-25.962610244750977,44.07727813720703,15.663896560668945,74.083740234375,16383.5,65535.0
13973.396983954945,216.23643493652344,341.04376220703125,20.939428329467773,-465.3765563964844,-22.389814376831055,47.94508743286133,17.69010353088379,77.57038879394531,16383.5,65535.0
13973.397383963575,253.62991333007812,345.4580078125,16.412120819091797,-469.2498474121094,-23.13767433166504,49.468841552734375,17.016294479370117,75.8360366821289,16383.5,65535.0
13973.397783972205,294.1440734863281,339.4698486328125,0.7639194130897522,-454.2611999511719,-12.474149703979492,57.96458053588867,27.574581146240234,85.96908569335938,16383.5,65535.0
13973.398183980835,329.4636535644531,349.2619323730469,-4.274998664855957,-447.6699523925781,-16.619178771972656,58.7347526550293,26.704574584960938,83.21072387695312,16383.5,65535.0
13973.398583989463,344.7250671386719,355.51177978515625,1.324152946472168,-458.47442626953125,-25.754131317138672,51.326568603515625,18.382457733154297,73.35850524902344,16383.5,65535.0
13973.398983998093,365.2724914550781,355.3660888671875,9.63351821899414,-444.15887451171875,-28.51152229309082,46.108642578125,13.608777046203613,69.42868041992188,16383.5,65535.0
13973.399384006723,392.36602783203125,348.90618896484375,-6.55775260925293,-454.52734375,-22.58120346069336,53.25890350341797,21.67022132873535,75.6987533569336,16383.5,65535.0
13973.399784015353,410.2677307128906,366.5459289550781,-9.0452299118042,-466.2726745605469,-14.492916107177734,60.448612213134766,28.334383010864258,83.20028686523438,16383.5,65535.0
13973.400184023982,426.9130554199219,355.72503662109375,-18.901187896728516,-472.9147033691406,-23.790742874145508,50.68363571166992,15.97823429107666,73.03012084960938,16383.5,65535.0
13973.400584032612,445.72503662109375,364.8516845703125,-37.273193359375,-476.1371765136719,-14.36694049835205,59.92103576660156,25.929201126098633,81.6059799194336,16383.5,65535.0
13973.400984041242,456.8094177246094,369.6276550292969,-24.647233963012695,-491.28326416015625,-25.053287506103516,51.84962844848633,24.014907836914062,76.67571258544922,16383.5,65535.0
13973.401384049872,475.14678955078125,362.6165466308594,6.496921539306641,-504.48040771484375,-18.22980499267578,54.58517074584961,24.081966400146484,79.08336639404297,16383.5,65535.0
13973.4017840585,487.5625305175781,367.4826965332031,27.410402297973633,-496.1502990722656,-18.186458587646484,53.624263763427734,21.444881439208984,79.5936050415039,16383.5,65535.0
13973.40218406713,480.1432800292969,355.9239501953125,39.946048736572266,-483.26837158203125,-12.627175331115723,60.923431396484375,28.3381404876709,87.4508056640625,16383.5,65535.0
13973.40258407576,458.3196105957031,354.4369201660156,46.7603759765625,-474.4017333984375,-16.47177505493164,55.20509719848633,24.94239616394043,80.49970245361328,16383.5,65535.0
13973.40298408439,457.7969665527344,352.22918701171875,54.14678192138672,-477.3392028808594,-31.98963165283203,38.25271224975586,12.660138130187988,67.95661163330078,16383.5,65535.0
13973.403384093019,439.50531005859375,352.76800537109375,82.44571685791016,-464.8364562988281,-23.265625,43.996726989746094,19.811279296875,75.05819702148438,16383.5,65535.0
13973.403784101649,435.2576904296875,368.7364807128906,109.71820068359375,-452.1903381347656,-15.838608741760254,51.10443878173828,24.84443473815918,78.35987854003906,16383.5,65535.0
13973.404184110279,425.8541259765625,372.32818603515625,99.5141830444336,-463.9736022949219,-21.22480583190918,49.065670013427734,18.33709144592285,76.84869384765625,16383.5,65535.0
13973.404584118909,421.7096862792969,357.3985595703125,97.04364013671875,-471.6783142089844,-27.334095001220703,43.21527099609375,18.262351989746094,74.51016235351562,16383.5,65535.0
13973.404984127537,414.6816711425781,363.6706848144531,97.59721374511719,-475.3655700683594,-24.00343132019043,43.828189849853516,19.568513870239258,73.81333923339844,16383.5,65535.0
13973.405384136167,419.3703308105469,373.5823669433594,103.15851593017578,-472.8809509277344,-17.790719985961914,46.99066162109375,24.220081329345703,76.25129699707031,16383.5,65535.0
13973.405784144798,419.4573669433594,378.929443359375,73.1637191772461,-462.7501525878906,-21.366737365722656,40.54353332519531,19.258007049560547,74.13783264160156,16383.5,65535.0
13973.406184153428,427.63555908203125,371.3942565917969,44.273746490478516,-448.1353454589844,-33.35573196411133,29.03104591369629,9.147414207458496,66.0635986328125,16383.5,65535.0
13973.406584162056,436.8171081542969,363.8641662597656,55.08403015136719,-454.82452392578125,-30.18612289428711,35.213741302490234,14.00187873840332,69.9573745727539,16383.5,65535.0
13973.406984170686,445.0257568359375,357.92584228515625,89.4874267578125,-454.34381103515625,-26.0141658782959,37.039852142333984,19.04285430908203,72.57588195800781,16383.5,65535.0
13973.407384179316,466.0252380371094,366.87762451171875,81.28862762451172,-457.4675598144531,-24.940467834472656,36.65652847290039,17.723787307739258,72.80330657958984,16383.5,65535.0
13973.407784187946,466.7564392089844,366.87493896484375,70.16270446777344,-459.40740966796875,-30.01862335205078,31.646432876586914,9.615196228027344,69.8359146118164,16383.5,65535.0
13973.408184196574,461.1123352050781,374.9294738769531,69.67024993896484,-467.1688232421875,-30.018239974975586,29.16825294494629,11.652223587036133,67.69160461425781,16383.5,65535.0
13973.408584205205,459.1810302734375,364.13079833984375,70.16980743408203,-471.4723205566406,-41.35029220581055,20.25021743774414,6.413160800933838,58.00630569458008,16383.5,65535.0
13973.408984213835,436.5088806152344,371.4480895996094,74.11226654052734,-468.8819580078125,-35.965087890625,21.869611740112305,6.1593475341796875,61.022499084472656,16383.5,65535.0
13973.409384222465,397.6123962402344,365.8741760253906,66.89021301269531,-464.5591735839844,-30.870264053344727,24.365535736083984,6.433184623718262,66.9217529296875,16383.5,65535.0
13973.409784231093,384.9293212890625,364.01922607421875,61.33918762207031,-458.8037414550781,-37.56634521484375,24.506193161010742,7.622043609619141,64.58553314208984,16383.5,65535.0
13973.410184239723,373.8077697753906,365.7808532714844,84.93653106689453,-461.68359375,-37.009796142578125,24.116518020629883,7.814599990844727,64.32931518554688,16383.5,65535.0
13973.410584248353,378.88665771484375,368.3277893066406,94.50196075439453,-461.16961669921875,-34.633670806884766,21.553739547729492,8.644268989562988,64.70132446289062,16383.5,65535.0
13973.410984256983,358.2061462402344,367.1192626953125,54.12548065185547,-445.6793518066406,-30.99680519104004,25.22305679321289,10.203632354736328,65.17484283447266,16383.5,65535.0
13973.411384265612,354.426513671875,362.8346862792969,40.50251770019531,-441.8460693359375,-36.4311637878418,21.561866760253906,6.6099090576171875,62.664798736572266,16383.5,65535.0
13973.411784274242,379.7782287597656,372.32672119140625,57.70487594604492,-438.3521728515625,-30.409374237060547,29.639516830444336,12.214787483215332,66.8878402709961,16383.5,65535.0
13973.412184282872,377.0740966796875,367.6531982421875,34.85503005981445,-439.96197509765625,-24.030858993530273,38.06549072265625,18.084312438964844,71.64791107177734,16383.5,65535.0
13973.412584291502,374.6305847167969,366.173828125,3.813516139984131,-438.9713439941406,-25.55362892150879,38.7959098815918,16.971323013305664,73.50820922851562,16383.5,65535.0
13973.41298430013,373.7449035644531,368.8714599609375,-30.424545288085938,-442.8798828125,-26.28965950012207,36.69891357421875,13.298896789550781,69.36583709716797,16383.5,65535.0
13973.41338430876,373.5924987792969,364.6130676269531,-72.46542358398438,-447.88140869140625,-29.472599029541016,29.81905174255371,9.83642864227295,66.26195526123047,16383.5,65535.0
13973.41378431739,370.1028747558594,363.5546569824219,-88.79265594482422,-467.8240966796875,-31.22358512878418,34.91151809692383,13.164763450622559,69.51716613769531,16383.5,65535.0
13973.41418432602,363.4649963378906,357.69378662109375,-73.82669067382812,-465.9661560058594,-30.38699722290039,38.6678352355957,15.786715507507324,68.71781921386719,16383.5,65535.0
13973.414584334649,363.3730773925781,349.9554748535156,-69.82108306884766,-457.28729248046875,-20.409475326538086,46.107337951660156,21.493953704833984,77.05223846435547,16383.5,65535.0
13973.414984343279,363.9218444824219,362.1070861816406,-72.54734802246094,-457.52044677734375,-30.173507690429688,37.958648681640625,12.195719718933105,67.74510955810547,16383.5,65535.0
13973.415384351909,349.68719482421875,368.61865234375,-99.1770248413086,-451.23162841796875,-22.006961822509766,51.081764221191406,19.841930389404297,78.53294372558594,16383.5,65535.0
13973.415784360539,342.43798828125,362.6847839355469,-100.52440643310547,-444.664794921875,-19.635147094726562,54.42820358276367,22.07783317565918,78.19970703125,16383.5,65535.0
13973.416184369167,330.8224792480469,356.87469482421875,-75.6262435913086,-442.6332092285156,-16.377599716186523,58.12482833862305,26.143802642822266,83.47726440429688,16383.5,65535.0
13973.416584377797,323.6357421875,357.2109069824219,-64.78534698486328,-436.78424072265625,-26.655038833618164,48.37845993041992,18.57566261291504,71.85456848144531,16383.5,65535.0
13973.416984386427,295.16259765625,352.6409912109375,-52.62483215332031,-431.7424621582031,-25.291362762451172,50.18706130981445,17.47459602355957,75.13134765625,16383.5,65535.0
13973.417384395056,263.51312255859375,359.41650390625,-66.65758514404297,-434.7268371582031,-22.06172752380371,56.32167434692383,20.148725509643555,77.4625473022461,16383.5,65535.0
13973.417784403686,245.4102783203125,364.72332763671875,-94.89360046386719,-439.9864807128906,-27.772876739501953,50.24980926513672,16.04912757873535,69.75852966308594,16383.5,65535.0
13973.418184412316,241.0262451171875,363.6726989746094,-97.06796264648438,-439.440673828125,-11.628079414367676,64.85317993164062,29.80206871032715,87.05949401855469,16383.5,65535.0
13973.418584420946,240.4256591796875,367.7427062988281,-92.40036010742188,-443.1041564941406,-14.275522232055664,63.74220657348633,26.41141128540039,83.38249206542969,16383.5,65535.0
13973.418984429576,227.84939575195312,373.0775146484375,-55.28695297241211,-445.5694274902344,-15.397172927856445,65.36026000976562,25.7484073638916,80.98958587646484,16383.5,65535.0
13973.419384438204,226.08023071289062,367.1549377441406,-13.650275230407715,-442.94610595703125,-3.846132755279541,78.5693130493164,38.22626495361328,95.00701141357422,16383.5,65535.0
13973.419784446834,235.85147094726562,367.9505310058594,4.6404852867126465,-442.87640380859375,-15.355145454406738,66.9967269897461,26.369606018066406,84.51907348632812,16383.5,65535.0
13973.420184455465,246.36154174804688,370.4272155761719,15.828170776367188,-440.53338623046875,-8.70406436920166,69.77574920654297,29.742141723632812,87.74860382080078,16383.5,65535.0
13973.420584464093,253.26222229003906,363.8218994140625,14.57187557220459,-431.40606689453125,-9.7388916015625,69.99227905273438,32.28085708618164,88.26243591308594,16383.5,65535.0
13973.420984472723,270.3586730957031,359.9769287109375,21.375471115112305,-438.9959716796875,-15.271143913269043,64.88058471679688,27.93306541442871,81.90054321289062,16383.5,65535.0
13973.421384481353,282.4453125,364.2731018066406,31.522363662719727,-450.4589538574219,-9.798437118530273,70.86346435546875,31.937679290771484,86.34900665283203,16383.5,65535.0
13973.421784489983,280.6198425292969,368.94281005859375,40.26639175415039,-443.2897033691406,-10.962984085083008,67.67273712158203,30.826053619384766,88.22627258300781,16383.5,65535.0
13973.422184498613,281.4803771972656,375.0703125,53.55722427368164,-445.830810546875,-22.92445182800293,52.61088562011719,19.733463287353516,77.3016357421875,16383.5,65535.0
13973.422584507241,301.19921875,374.9847717285156,108.71426391601562,-460.34942626953125,-12.759321212768555,59.90821075439453,27.795637130737305,83.35001373291016,16383.5,65535.0
13973.422984515872,311.6705627441406,360.1478271484375,143.8236083984375,-474.94110107421875,-16.964412689208984,59.664703369140625,27.56218910217285,82.39772033691406,16383.5,65535.0
13973.423384524502,316.7110595703125,361.6363220214844,184.45484924316406,-485.52691650390625,-16.79404640197754,56.704227447509766,25.64893913269043,83.11996459960938,16383.5,65535.0
13973.42378453313,330.1750183105469,355.9910888671875,199.71624755859375,-482.01495361328125,-7.83361291885376,66.05276489257812,37.146942138671875,93.0848388671875,16383.5,65535.0
13973.42418454176,341.27587890625,365.5317687988281,227.93736267089844,-477.1452941894531,-21.895973205566406,50.191226959228516,19.801349639892578,79.03265380859375,16383.5,65535.0
13973.42458455039,348.91302490234375,374.89056396484375,296.8905944824219,-474.9785461425781,-18.79437828063965,51.29558563232422,20.791900634765625,80.69158935546875,16383.5,65535.0
13973.42498455902,356.9011535644531,367.3087158203125,359.5620422363281,-466.4483337402344,-20.868249893188477,46.3062744140625,19.15549659729004,75.01265716552734,16383.5,65535.0
13973.42538456765,360.82318115234375,370.5451354980469,438.9987487792969,-454.4743347167969,-24.363718032836914,43.16111373901367,16.72743797302246,73.99172973632812,16383.5,65535.0
13973.425784576279,384.97686767578125,380.5113525390625,478.0047607421875,-454.0941467285156,-7.89793062210083,58.089149475097656,31.09723472595215,87.58097076416016,16383.5,65535.0
13973.426184584909,407.0614013671875,383.75927734375,491.74359130859375,-462.0615539550781,-12.182421684265137,58.870235443115234,31.574382781982422,85.30022430419922,16383.5,65535.0
13973.426584593539,420.0042419433594,384.4380187988281,505.33148193359375,-450.9951477050781,-18.813140869140625,47.81589889526367,22.600811004638672,79.00297546386719,16383.5,65535.0
13973.426984602167,434.9021301269531,373.83367919921875,528.203369140625,-452.5732116699219,-17.526073455810547,42.765037536621094,19.81524658203125,75.25515747070312,16383.5,65535.0
13973.427384610797,435.7543640136719,370.2357177734375,517.1607666015625,-465.0553894042969,-16.623863220214844,49.20225524902344,23.463525772094727,79.84529876708984,16383.5,65535.0
13973.427784619427,437.4180603027344,378.9669189453125,474.0672912597656,-469.3622741699219,-20.179502487182617,43.870216369628906,22.39997673034668,78.2792739868164,16383.5,65535.0
13973.428184628057,442.634033203125,380.5190124511719,439.6654052734375,-456.7674255371094,-20.869510650634766,42.07219314575195,23.66529083251953,78.6668472290039,16383.5,65535.0
13973.428584636686,451.0811462402344,375.8687438964844,396.820068359375,-461.6002502441406,-28.324752807617188,32.77952194213867,13.356343269348145,69.9075927734375,16383.5,65535.0
13973.428984645316,445.0963439941406,371.71453857421875,349.18267822265625,-490.4020690917969,-24.92589569091797,35.44477462768555,14.845062255859375,74.46795654296875,16383.5,65535.0
13973.429384653946,439.9427795410156,375.86517333984375,316.5954284667969,-513.825439453125,-30.64665985107422,29.19681739807129,13.67318058013916,71.74544525146484,16383.5,65535.0
13973.429784662576,436.5145263671875,372.9472351074219,270.5107421875,-519.1599731445312,-27.944780349731445,27.855051040649414,12.49404239654541,68.9410171508789,16383.5,65535.0
13973.430184671204,434.2850036621094,372.6603698730469,190.8216094970703,-514.4430541992188,-21.267534255981445,38.01496505737305,18.478286743164062,75.77180480957031,16383.5,65535.0
13973.430584679834,440.0148620605469,377.8247985839844,127.14737701416016,-502.9039001464844,-23.29965591430664,32.58000183105469,17.031251907348633,73.28941345214844,16383.5,65535.0
13973.430984688464,437.94732666015625,373.1435852050781,46.293453216552734,-481.967529296875,-32.2738151550293,25.84311866760254,9.84195327758789,65.23831939697266,16383.5,65535.0
13973.431384697094,437.669921875,366.7745666503906,-26.4223690032959,-476.8378601074219,-28.160470962524414,30.44256019592285,16.18833351135254,70.24400329589844,16383.5,65535.0
13973.431784705723,420.955810546875,381.9105224609375,-55.12129592895508,-470.7388916015625,-28.65837287902832,30.10281753540039,13.444109916687012,70.24748992919922,16383.5,65535.0
13973.432184714353,415.414794921875,383.6939392089844,-102.82299041748047,-474.16729736328125,-31.67081069946289,29.663545608520508,9.888944625854492,67.43854522705078,16383.5,65535.0
13973.432584722983,422.73065185546875,381.6567077636719,-169.94851684570312,-461.5403747558594,-28.585159301757812,31.853946685791016,14.508724212646484,70.23004913330078,16383.5,65535.0
13973.432984731613,415.1763610839844,372.8662414550781,-230.99537658691406,-452.2713317871094,-27.960546493530273,30.69332504272461,12.296431541442871,68.11820983886719,16383.5,65535.0
13973.433384740241,418.8833312988281,380.1518249511719,-270.394775390625,-443.376953125,-25.60718536376953,34.45772933959961,15.521516799926758,71.54167938232422,16383.5,65535.0
13973.433784748871,410.5536193847656,377.7086181640625,-261.7445983886719,-443.7281188964844,-23.279022216796875,40.823585510253906,17.366064071655273,73.76484680175781,16383.5,65535.0
13973.434184757501,417.1120910644531,364.1036376953125,-250.73834228515625,-440.5257568359375,-29.92291259765625,33.309906005859375,12.144231796264648,71.63583374023438,16383.5,65535.0
13973.434584766132,418.0447082519531,373.0249328613281,-261.3091735839844,-434.4961242675781,-23.50986671447754,41.116981506347656,18.618240356445312,76.12352752685547,16383.5,65535.0
13973.43498477476,404.2586364746094,379.8992614746094,-240.55628967285156,-439.1829833984375,-14.096330642700195,52.93721008300781,25.845457077026367,84.88926696777344,16383.5,65535.0
13973.43538478339,397.54345703125,368.2521057128906,-205.91497802734375,-446.9388427734375,-12.23275089263916,58.30123519897461,29.46060562133789,86.66932678222656,16383.5,65535.0
13973.43578479202,389.57354736328125,369.9547119140625,-175.36692810058594,-443.9840393066406,-16.115463256835938,57.21870422363281,24.92825698852539,80.56562042236328,16383.5,65535.0
13973.43618480065,398.8807678222656,381.9918518066406,-162.4349365234375,-432.75616455078125,-23.387041091918945,46.514068603515625,19.197843551635742,74.96996307373047,16383.5,65535.0
13973.436584809278,426.5933532714844,383.51800537109375,-157.95169067382812,-427.0217590332031,-24.542768478393555,44.66616439819336,18.293241500854492,73.0135726928711,16383.5,65535.0
13973.436984817909,435.66351318359375,386.0362854003906,-146.22604370117188,-427.0775146484375,-20.251571655273438,53.07183074951172,20.641252517700195,77.9227523803711,16383.5,65535.0
13973.437384826539,432.1908874511719,378.8334045410156,-108.34918212890625,-418.8763122558594,-24.38658905029297,48.51200866699219,17.918716430664062,74.13713836669922,16383.5,65535.0
13973.437784835169,418.4546203613281,369.9341735839844,-100.7301254272461,-411.5745849609375,-17.45773696899414,57.455806732177734,26.894615173339844,83.05450439453125,16383.5,65535.0
13973.438184843797,401.9786376953125,379.3622131347656,-111.6955795288086,-412.7974853515625,-16.41348648071289,60.055274963378906,26.531574249267578,83.01832580566406,16383.5,65535.0
13973.438584852427,384.95758056640625,384.4405212402344,-115.946533203125,-419.28961181640625,-22.104223251342773,54.99478530883789,20.49431800842285,75.9675064086914,16383.5,65535.0
13973.438984861057,372.5945739746094,379.86956787109375,-107.02123260498047,-419.67144775390625,-25.29488182067871,51.33225631713867,16.3067684173584,72.44075775146484,16383.5,65535.0
13973.439384869687,374.6177978515625,373.120361328125,-84.60989379882812,-414.27252197265625,-15.138143539428711,63.29661178588867,29.526920318603516,86.87506866455078,16383.5,65535.0
13973.439784878316,386.2606201171875,374.6258544921875,-77.8364028930664,-427.7371826171875,-22.69240951538086,56.07661819458008,21.948701858520508,77.70622253417969,16383.5,65535.0
13973.440184886946,380.1935729980469,373.4349060058594,-94.1576156616211,-428.9555358886719,-21.25202751159668,50.41188049316406,18.841880798339844,76.26221466064453,16383.5,65535.0
13973.440584895576,378.0903015136719,390.04644775390625,-120.24331665039062,-430.2173767089844,-17.853635787963867,57.92317199707031,24.378217697143555,80.12229919433594,16383.5,65535.0
13973.440984904206,372.0990295410156,391.5989990234375,-111.3897933959961,-418.6930236816406,-10.121319770812988,65.59516906738281,33.141876220703125,88.40293884277344,16383.5,65535.0
13973.441384912834,370.01019287109375,392.78680419921875,-72.470458984375,-431.5880432128906,-18.527334213256836,57.135398864746094,24.75986671447754,79.75360107421875,16383.5,65535.0
13973.441784921464,368.017578125,396.0525207519531,-57.08714294433594,-452.82501220703125,-17.306983947753906,55.32119369506836,23.383188247680664,78.56895446777344,16383.5,65535.0
13973.442184930094,366.1053161621094,392.51373291015625,-69.69303131103516,-470.6507568359375,-18.078948974609375,55.04860305786133,21.18777084350586,77.74826049804688,16383.5,65535.0
13973.442584938724,369.8288879394531,386.0242919921875,-90.57674407958984,-475.055419921875,-16.680940628051758,54.791053771972656,21.3610782623291,82.1773910522461,16383.5,65535.0
13973.442984947353,381.4872741699219,374.7796630859375,-98.93614959716797,-484.15887451171875,-21.617353439331055,51.75583267211914,20.22003936767578,77.35962677001953,16383.5,65535.0
13973.443384955983,406.4002990722656,380.3365173339844,-119.45407104492188,-482.1197204589844,-22.657447814941406,49.97380447387695,20.054872512817383,77.41325378417969,16383.5,65535.0
13973.443784964613,414.8816833496094,379.90869140625,-146.22203063964844,-492.17431640625,-26.434185028076172,41.56061935424805,13.694890022277832,70.56396484375,16383.5,65535.0
13973.444184973243,400.74859619140625,380.5193176269531,-154.92909240722656,-501.5027160644531,-28.287002563476562,40.779109954833984,15.78830623626709,70.71221160888672,16383.5,65535.0
13973.444584981871,391.6695251464844,381.3147888183594,-165.34991455078125,-497.9591064453125,-28.43194580078125,40.777748107910156,14.159066200256348,72.64680480957031,16383.5,65535.0
13973.444984990501,385.26629638671875,373.39471435546875,-154.2751007080078,-494.4573974609375,-27.672840118408203,40.87093734741211,14.724088668823242,71.77930450439453,16383.5,65535.0
13973.445384999131,388.84576416015625,377.337646484375,-132.5511932373047,-475.8150634765625,-20.033899307250977,47.87197494506836,25.51866340637207,80.50692749023438,16383.5,65535.0
13973.445785007762,394.4043273925781,370.0361328125,-93.84774780273438,-477.33636474609375,-19.691526412963867,44.61514663696289,23.766542434692383,77.31732177734375,16383.5,65535.0
13973.44618501639,405.55072021484375,370.8037414550781,-67.61072540283203,-473.85662841796875,-26.955286026000977,36.84571838378906,14.346766471862793,69.97391510009766,16383.5,65535.0
13973.44658502502,401.8851318359375,371.55841064453125,-76.69308471679688,-469.9329833984375,-23.807621002197266,37.9592399597168,18.736047744750977,74.88619232177734,16383.5,65535.0
13973.44698503365,412.5010986328125,377.4609069824219,-74.86615753173828,-482.5080871582031,-32.02464294433594,27.719751358032227,11.061224937438965,66.56725311279297,16383.5,65535.0
13973.44738504228,430.8380432128906,381.62548828125,-60.56227493286133,-487.7684020996094,-31.898147583007812,27.367839813232422,10.573724746704102,67.0749282836914,16383.5,65535.0
13973.447785050908,424.7510986328125,377.4920654296875,-45.19486618041992,-499.8315124511719,-27.160175323486328,33.619483947753906,14.350884437561035,71.4710922241211,16383.5,65535.0
13973.448185059538,407.2320861816406,372.100341796875,-22.062549591064453,-515.7058715820312,-35.500518798828125,21.8927059173584,5.671567440032959,60.07539367675781,16383.5,65535.0
13973.448585068169,400.648193359375,372.02630615234375,4.677022457122803,-526.731201171875,-40.455406188964844,17.813417434692383,6.330642223358154,58.67744064331055,16383.5,65535.0
13973.448985076799,396.141357421875,358.9440612792969,9.425945281982422,-507.6972961425781,-33.887325286865234,23.286712646484375,8.610361099243164,64.43342590332031,16383.5,65535.0
13973.449385085427,384.14434814453125,368.7444152832031,16.471500396728516,-487.233154296875,-39.36748123168945,18.428983688354492,2.5448384284973145,59.23802185058594,16383.5,65535.0
13973.449785094057,394.1852722167969,370.02056884765625,60.21101379394531,-480.1263122558594,-29.854320526123047,26.928983688354492,13.719034194946289,70.47590637207031,16383.5,65535.0
13973.450185102687,391.67535400390625,363.87347412109375,101.07023620605469,-475.7327575683594,-27.86982536315918,31.054147720336914,15.257338523864746,68.54489135742188,16383.5,65535.0
13973.450585111317,371.902587890625,364.9735412597656,128.46336364746094,-462.9459533691406,-31.676469802856445,25.214458465576172,8.37700080871582,65.70600128173828,16383.5,65535.0
13973.450985119945,342.8305969238281,352.1931457519531,144.5882568359375,-463.11334228515625,-28.503625869750977,29.347280502319336,14.004659652709961,69.92916107177734,16383.5,65535.0
13973.451385128576,322.12982177734375,348.6905517578125,146.07522583007812,-457.4076843261719,-26.51763153076172,33.53812026977539,17.615114212036133,70.04566192626953,16383.5,65535.0
13973.451785137206,298.3242492675781,360.78778076171875,110.81396484375,-475.4855651855469,-38.6070671081543,20.920455932617188,4.268762111663818,61.173404693603516,16383.5,65535.0
13973.452185145836,275.08990478515625,358.70697021484375,38.71625518798828,-497.48681640625,-35.34431076049805,26.186697006225586,8.71718978881836,67.89048767089844,16383.5,65535.0
13973.452585154464,269.64776611328125,354.5018005371094,-5.2830305099487305,-510.4722900390625,-32.89120864868164,31.715438842773438,11.621667861938477,66.71051788330078,16383.5,65535.0
13973.452985163094,266.1046447753906,376.3009033203125,-3.1730990409851074,-498.6031188964844,-24.110706329345703,37.952880859375,19.945219039916992,72.20105743408203,16383.5,65535.0
13973.453385171724,279.3375549316406,371.6864929199219,-20.324573516845703,-500.47052001953125,-23.397497177124023,41.028167724609375,17.49985694885254,74.6956558227539,16383.5,65535.0
13973.453785180354,277.4026184082031,368.1348571777344,-31.625940322875977,-506.0380859375,-23.87926483154297,42.635589599609375,17.03990364074707,76.18909454345703,16383.5,65535.0
13973.454185188983,279.2923583984375,367.6584167480469,-57.095008850097656,-499.6064147949219,-33.787906646728516,32.18768310546875,6.988607406616211,65.72632598876953,16383.5,65535.0
13973.454585197613,296.79559326171875,369.003662109375,-88.20890045166016,-493.45819091796875,-26.72473907470703,37.884735107421875,14.556842803955078,68.42266082763672,16383.5,65535.0
13973.454985206243,306.7834777832031,373.7671813964844,-86.79026794433594,-483.2197570800781,-31.725421905517578,32.32758712768555,11.598758697509766,64.06501770019531,16383.5,65535.0
13973.455385214873,310.9604187011719,363.9950256347656,-71.72318267822266,-470.376953125,-32.560245513916016,34.390079498291016,10.107759475708008,67.78822326660156,16383.5,65535.0
13973.455785223501,309.5082092285156,358.5926513671875,-34.86524963378906,-480.7515869140625,-28.947616577148438,40.91657638549805,16.489805221557617,69.59800720214844,16383.5,65535.0
13973.456185232131,304.14642333984375,365.3738098144531,-12.834524154663086,-470.123046875,-19.379201889038086,51.79924011230469,22.937082290649414,78.5412826538086,16383.5,65535.0
13973.456585240761,285.1412048339844,370.2294006347656,-22.514101028442383,-463.7756042480469,-25.89933967590332,49.86264419555664,17.84174346923828,73.94912719726562,16383.5,65535.0
13973.456985249391,258.80474853515625,364.73553466796875,-43.583763122558594,-480.1368713378906,-20.774707794189453,54.20298385620117,23.27663230895996,77.19359588623047,16383.5,65535.0
13973.45738525802,247.3905487060547,370.9501037597656,-92.62281036376953,-496.305419921875,-16.976316452026367,63.15793228149414,29.078344345092773,84.07368469238281,16383.5,65535.0
13973.45778526665,237.99301147460938,361.4659729003906,-141.71876525878906,-497.500244140625,-16.619993209838867,58.80966567993164,26.074947357177734,80.44064331054688,16383.5,65535.0
13973.45818527528,241.5840301513672,356.5728454589844,-146.1264190673828,-513.19775390625,-11.011043548583984,65.80874633789062,28.428918838500977,86.338134765625,16383.5,65535.0
13973.458585283908,251.4163818359375,366.38385009765625,-128.1912841796875,-513.521728515625,-11.640545845031738,66.29488372802734,30.512252807617188,88.88992309570312,16383.5,65535.0
13973.458985292538,258.0092468261719,365.1051330566406,-126.6945571899414,-504.2174377441406,-10.169870376586914,68.78099060058594,29.5926570892334,85.91671752929688,16383.5,65535.0
13973.459385301168,293.1043395996094,356.868896484375,-125.09932708740234,-502.8802490234375,-10.600865364074707,68.82363891601562,29.330156326293945,86.2269515991211,16383.5,65535.0
13973.459785309798,301.00238037109375,355.733642578125,-119.74404907226562,-494.0790100097656,-11.954906463623047,67.94791412353516,29.225732803344727,83.5345458984375,16383.5,65535.0
13973.460185318429,284.5786437988281,364.4262390136719,-112.28562927246094,-494.79327392578125,-16.80828285217285,59.59293746948242,22.182493209838867,77.4496841430664,16383.5,65535.0
13973.460585327057,263.3891906738281,365.7767028808594,-99.70166015625,-488.5252685546875,-6.084897518157959,71.55501556396484,34.43822479248047,89.13947296142578,16383.5,65535.0
13973.460985335687,225.35882568359375,370.8137512207031,-79.33502960205078,-481.1888122558594,-12.012039184570312,67.32122802734375,29.956270217895508,86.10002136230469,16383.5,65535.0
13973.461385344317,215.02122497558594,360.9316711425781,-68.9397964477539,-486.86053466796875,-22.004209518432617,54.549713134765625,21.0425968170166,81.33627319335938,16383.5,65535.0
13973.461785352945,212.1204071044922,356.4010009765625,-45.897544860839844,-500.9360656738281,-18.474863052368164,56.847496032714844,23.563274383544922,82.38137817382812,16383.5,65535.0
13973.462185361575,214.31378173828125,355.38250732421875,-29.847808837890625,-515.7406005859375,-15.572839736938477,57.4289436340332,25.082006454467773,80.26762390136719,16383.5,65535.0
13973.462585370205,230.29043579101562,347.8631286621094,-23.4220027923584,-522.152099609375,-19.841167449951172,55.1698112487793,23.393253326416016,77.5855484008789,16383.5,65535.0
13973.462985378836,256.19793701171875,359.3087463378906,-3.115121364593506,-521.5709228515625,-21.80943489074707,50.22462844848633,17.55127716064453,75.1943130493164,16383.5,65535.0
13973.463385387466,286.5458068847656,354.9855041503906,37.44175338745117,-516.5624389648438,-14.373947143554688,56.05048370361328,26.820539474487305,81.57109832763672,16383.5,65535.0
13973.463785396094,313.19415283203125,355.7487487792969,79.04602813720703,-519.7418823242188,-20.53427505493164,50.69694519042969,23.004467010498047,77.51094055175781,16383.5,65535.0
13973.464185404724,355.41461181640625,351.60400390625,95.55484771728516,-524.5150756835938,-12.018265724182129,54.03693389892578,26.256725311279297,83.5016098022461,16383.5,65535.0
13973.464585413354,359.2298278808594,352.1070556640625,111.99192810058594,-532.3535766601562,-18.12626838684082,51.45151901245117,25.966707229614258,79.85153198242188,16383.5,65535.0
13973.464985421982,360.1014404296875,349.3634338378906,142.74246215820312,-512.8655395507812,-20.430011749267578,46.68547821044922,24.610828399658203,80.00989532470703,16383.5,65535.0
13973.465385430613,363.412109375,351.3175048828125,150.07473754882812,-509.926513671875,-14.309775352478027,52.54190444946289,29.536785125732422,85.52782440185547,16383.5,65535.0
13973.465785439243,399.58709716796875,347.5462341308594,150.1324920654297,-514.8060302734375,-21.622726440429688,44.798011779785156,21.232702255249023,80.16325378417969,16383.5,65535.0
13973.466185447873,420.3157043457031,342.4147644042969,137.31121826171875,-515.8532104492188,-24.0184326171875,39.88884353637695,19.22450828552246,74.82779693603516,16383.5,65535.0
13973.466585456503,432.9207458496094,344.6035461425781,115.57819366455078,-514.819580078125,-19.587013244628906,43.966461181640625,24.394702911376953,78.01004028320312,16383.5,65535.0
13973.466985465131,416.56536865234375,345.2198791503906,106.85327911376953,-521.4669189453125,-13.688833236694336,47.249237060546875,29.215726852416992,85.65394592285156,16383.5,65535.0
13973.467385473761,388.5752868652344,347.0192565917969,90.96582794189453,-515.6736450195312,-21.2289981842041,40.18389892578125,22.68775177001953,80.4695816040039,16383.5,65535.0
13973.467785482391,355.89959716796875,353.6961364746094,77.3673095703125,-519.1549072265625,-22.307559967041016,34.766910552978516,17.264179229736328,74.30236053466797,16383.5,65535.0
13973.46818549102,333.97406005859375,341.3284912109375,91.90077209472656,-531.1806640625,-20.479007720947266,36.5095329284668,17.629880905151367,76.7368392944336,16383.5,65535.0
13973.46858549965,322.4149169921875,345.46630859375,129.49813842773438,-526.511474609375,-25.006183624267578,30.374801635742188,15.992070198059082,72.0909194946289,16383.5,65535.0
13973.46898550828,320.58917236328125,350.2303466796875,153.461181640625,-522.3269653320312,-19.727615356445312,33.985069274902344,21.807859420776367,75.51904296875,16383.5,65535.0
13973.46938551691,335.248779296875,343.0723876953125,164.80270385742188,-499.9095764160156,-14.08591079711914,42.13924789428711,27.81757926940918,82.4837417602539,16383.5,65535.0
13973.469785525538,334.0205078125,327.31378173828125,157.9209747314453,-479.0947570800781,-13.744315147399902,44.78043746948242,29.62851333618164,83.55622863769531,16383.5,65535.0
13973.470185534168,335.7849426269531,327.8336486816406,171.3517608642578,-479.47998046875,-30.428056716918945,29.560823440551758,15.041340827941895,68.35433197021484,16383.5,65535.0
13973.470585542798,334.09149169921875,330.5409851074219,150.73678588867188,-499.9869384765625,-16.35797119140625,40.11754608154297,23.437103271484375,79.47301483154297,16383.5,65535.0
13973.470985551428,335.92236328125,329.4441223144531,126.76040649414062,-489.3061828613281,-24.987457275390625,31.50434112548828,15.6036376953125,70.87834167480469,16383.5,65535.0
13973.471385560057,330.6734619140625,333.3475341796875,102.46845245361328,-448.69842529296875,-30.704511642456055,26.17550277709961,11.963781356811523,67.64244842529297,16383.5,65535.0
13973.471785568687,325.8892822265625,320.12237548828125,69.56432342529297,-417.7501220703125,-12.280055046081543,45.16973114013672,30.627634048461914,86.18370819091797,16383.5,65535.0
13973.472185577317,336.7158508300781,313.0482482910156,64.83432006835938,-418.67926025390625,-13.414609909057617,46.34159851074219,27.670900344848633,84.28313446044922,16383.5,65535.0
13973.472585585947,330.37042236328125,310.7257995605469,74.74311065673828,-418.6894836425781,-18.82802391052246,42.05913162231445,22.893518447875977,79.17877960205078,16383.5,65535.0
13973.472985594575,327.3790283203125,314.4693603515625,79.63542938232422,-411.3653869628906,-24.06369972229004,35.778892517089844,18.436214447021484,70.5911636352539,16383.5,65535.0
13973.473385603205,327.24517822265625,322.959716796875,42.35599136352539,-408.947998046875,-25.718019485473633,32.25575637817383,14.2779541015625,70.21236419677734,16383.5,65535.0
13973.473785611835,334.1401672363281,328.1536865234375,-5.96647834777832,-407.5954284667969,-13.872802734375,46.94699478149414,25.98548126220703,83.61238098144531,16383.5,65535.0
13973.474185620466,320.6343078613281,315.8578186035156,-6.410221576690674,-398.5711364746094,-22.551776885986328,42.755401611328125,20.798973083496094,76.31523132324219,16383.5,65535.0
13973.474585629094,312.5702819824219,327.1487731933594,7.557231903076172,-386.9795227050781,-20.89779281616211,45.37198257446289,22.794355392456055,75.92605590820312,16383.5,65535.0
13973.474985637724,303.9792785644531,335.8914794921875,-3.573598623275757,-394.53656005859375,-14.178228378295898,51.609535217285156,26.520732879638672,81.3665542602539,16383.5,65535.0
13973.475385646354,298.0185852050781,317.4009704589844,10.227157592773438,-396.8341064453125,-18.245452880859375,47.35539245605469,24.740203857421875,80.8423080444336,16383.5,65535.0
13973.475785654984,281.87725830078125,309.2665100097656,-6.923454761505127,-398.6700134277344,-11.425542831420898,53.191837310791016,29.933408737182617,83.23477172851562,16383.5,65535.0
13973.476185663612,262.3617858886719,321.1133728027344,-25.73015785217285,-366.6408386230469,-14.132484436035156,51.57797622680664,24.431303024291992,80.4560775756836,16383.5,65535.0
13973.476585672242,247.238037109375,320.3093566894531,-23.676563262939453,-351.5054626464844,-13.340455055236816,57.05738067626953,28.40747833251953,85.5830307006836,16383.5,65535.0
13973.476985680873,216.77484130859375,310.22576904296875,-9.117481231689453,-344.91839599609375,-4.636054515838623,68.1775894165039,37.73325729370117,91.80282592773438,16383.5,65535.0
13973.477385689503,209.0206298828125,309.4137268066406,0.30479103326797485,-325.8204650878906,-11.442320823669434,63.58522033691406,32.43999481201172,88.64564514160156,16383.5,65535.0
13973.47778569813,209.6343536376953,312.0476379394531,31.23659896850586,-319.8553161621094,-14.939411163330078,60.4015998840332,29.158525466918945,86.52862548828125,16383.5,65535.0
13973.478185706761,212.35142517089844,318.1016540527344,33.10810470581055,-315.4678039550781,-1.7542524337768555,75.8417739868164,38.36956024169922,94.2994155883789,16383.5,65535.0
13973.478585715391,229.1439971923828,312.26837158203125,23.81597900390625,-338.1769104003906,-9.679802894592285,67.79615783691406,30.821002960205078,86.38204956054688,16383.5,65535.0
13973.478985724021,247.2914581298828,314.58740234375,26.398563385009766,-380.9767150878906,1.2358168363571167,78.12074279785156,43.826805114746094,97.30012512207031,16383.5,65535.0
13973.47938573265,255.36920166015625,316.34259033203125,27.674161911010742,-426.211181640625,-3.28619384765625,75.55249786376953,41.130733489990234,95.60245513916016,16383.5,65535.0
13973.47978574128,249.97596740722656,308.0578918457031,-1.3329994678497314,-451.0540771484375,-1.1903085708618164,75.32933807373047,40.96279525756836,97.05342864990234,16383.5,65535.0
13973.48018574991,248.48291015625,309.2471618652344,-52.35704803466797,-433.505126953125,-1.741753101348877,74.09420776367188,37.7803955078125,94.3904800415039,16383.5,65535.0
13973.48058575854,248.50399780273438,315.880615234375,-63.522804260253906,-411.787353515625,-7.840714454650879,68.04348754882812,35.74886703491211,92.33418273925781,16383.5,65535.0
13973.480985767168,232.92018127441406,319.50445556640625,-71.23332214355469,-415.2279052734375,-6.413514614105225,72.33666229248047,38.319984436035156,93.26762390136719,16383.5,65535.0
13973.481385775798,238.4827117919922,308.78521728515625,-66.10469055175781,-425.39141845703125,-5.5680317878723145,71.41544342041016,34.51692199707031,92.91426849365234,16383.5,65535.0
13973.481785784428,245.51858520507812,299.7392578125,-14.007051467895508,-419.7513732910156,-15.370285987854004,59.10562515258789,26.52546501159668,82.7302017211914,16383.5,65535.0
13973.482185793058,273.7315368652344,309.534912109375,33.21951675415039,-404.436767578125,-11.4597806930542,62.25724792480469,29.45400047302246,87.44890594482422,16383.5,65535.0
13973.482585801687,299.8514099121094,299.02935791015625,30.22977066040039,-407.0618896484375,-10.921730995178223,63.48470687866211,32.375057220458984,88.37220001220703,16383.5,65535.0
13973.482985810317,308.6051940917969,304.0614318847656,30.782917022705078,-398.5440673828125,-13.610268592834473,57.38772964477539,28.890073776245117,86.09368133544922,16383.5,65535.0
13973.483385818947,310.47430419921875,306.08526611328125,47.72748947143555,-400.7462158203125,-7.316499710083008,63.86449432373047,36.936859130859375,94.81178283691406,16383.5,65535.0
13973.483785827577,321.4141845703125,305.29681396484375,70.34979248046875,-400.1236572265625,-13.270735740661621,56.816001892089844,29.821422576904297,86.94068145751953,16383.5,65535.0
13973.484185836205,339.144775390625,308.94952392578125,72.61461639404297,-398.705810546875,-15.946978569030762,55.34444808959961,26.73056411743164,82.2592544555664,16383.5,65535.0
13973.484585844835,365.15374755859375,304.3110656738281,56.39265823364258,-412.7913818359375,-16.731107711791992,54.067413330078125,29.457969665527344,83.37938690185547,16383.5,65535.0
13973.484985853465,351.45697021484375,302.02734375,18.677452087402344,-421.6354064941406,-25.22653579711914,41.01615524291992,18.580970764160156,74.60234069824219,16383.5,65535.0
13973.485385862095,361.1715393066406,304.7992248535156,20.03398895263672,-449.97247314453125,-33.34480667114258,31.508302688598633,11.806475639343262,68.53520202636719,16383.5,65535.0
13973.485785870724,363.3742370605469,298.6856689453125,39.9010009765625,-469.9877014160156,-27.36155128479004,36.08512878417969,16.204769134521484,71.82122802734375,16383.5,65535.0
13973.486185879354,375.1023864746094,296.7073974609375,31.809789657592773,-481.6050109863281,-24.620542526245117,35.32966232299805,14.890792846679688,71.40247344970703,16383.5,65535.0
13973.486585887984,368.9267883300781,304.7254943847656,30.888185501098633,-458.0867614746094,-22.615873336791992,36.20547866821289,16.994348526000977,75.41362762451172,16383.5,65535.0
13973.486985896614,359.5628662109375,299.0414733886719,27.32386016845703,-434.21533203125,-16.329225540161133,44.698665618896484,23.815196990966797,81.62761688232422,16383.5,65535.0
13973.487385905242,349.2951965332031,297.1004943847656,6.963754653930664,-418.16619873046875,-24.670814514160156,38.657535552978516,19.818065643310547,75.96904754638672,16383.5,65535.0
13973.487785913872,334.8413391113281,309.45916748046875,-15.787262916564941,-421.3493957519531,-28.201393127441406,29.978137969970703,15.621541976928711,70.68510437011719,16383.5,65535.0
13973.488185922502,321.5083923339844,303.9031982421875,-57.42812728881836,-437.076416015625,-26.171470642089844,33.12122344970703,16.517099380493164,73.82991790771484,16383.5,65535.0
13973.488585931133,322.5876770019531,296.7835998535156,-89.22826385498047,-454.2505798339844,-25.75956153869629,33.36832809448242,18.04827117919922,74.04300689697266,16383.5,65535.0
13973.48898593976,319.7993469238281,306.98956298828125,-92.96666717529297,-474.6466369628906,-30.603687286376953,24.905515670776367,11.980119705200195,69.45030975341797,16383.5,65535.0
13973.489385948391,340.72711181640625,302.1123046875,-76.8531723022461,-507.0813293457031,-34.09733581542969,23.331453323364258,8.539109230041504,65.03562927246094,16383.5,65535.0
13973.489785957021,378.7181396484375,288.5565185546875,-20.65741539001465,-507.9676208496094,-40.41624450683594,14.960013389587402,1.481171727180481,58.36996078491211,16383.5,65535.0
13973.490185965651,403.1689147949219,295.6703796386719,42.87348937988281,-497.2237548828125,-35.38101577758789,22.395910263061523,7.061191558837891,64.22687530517578,16383.5,65535.0
13973.49058597428,398.1964416503906,281.679443359375,83.31951141357422,-491.2864990234375,-30.155630111694336,24.683881759643555,12.288470268249512,68.43977355957031,16383.5,65535.0
13973.49098598291,383.8167419433594,285.2978210449219,138.78428649902344,-488.24273681640625,-34.92963409423828,24.31474494934082,10.507007598876953,68.54852294921875,16383.5,65535.0
13973.49138599154,381.7069396972656,279.7525329589844,209.6217041015625,-478.1782531738281,-35.115806579589844,22.979331970214844,9.950810432434082,64.54077911376953,16383.5,65535.0
13973.49178600017,369.3133239746094,274.10198974609375,238.7649383544922,-456.88446044921875,-17.108312606811523,38.75049591064453,25.788312911987305,82.27501678466797,16383.5,65535.0
13973.492186008798,354.47076416015625,273.2147216796875,248.05731201171875,-445.52288818359375,-23.801448822021484,34.008365631103516,19.731473922729492,73.0693588256836,16383.5,65535.0
13973.492586017428,339.7189025878906,282.5516662597656,268.0525817871094,-451.3238525390625,-25.354324340820312,33.87702178955078,14.482881546020508,73.74795532226562,16383.5,65535.0
13973.492986026058,322.446533203125,268.6741943359375,277.7933044433594,-435.3565979003906,-22.757402420043945,38.988739013671875,20.099580764770508,76.12684631347656,16383.5,65535.0
13973.493386034688,315.0533142089844,271.3084716796875,290.15869140625,-417.8206787109375,-34.42582702636719,24.854148864746094,5.767818450927734,62.79426574707031,16383.5,65535.0
13973.493786043317,294.3153381347656,278.31451416015625,302.4148254394531,-407.1839599609375,-32.10770797729492,27.0725040435791,8.903244018554688,64.72022247314453,16383.5,65535.0
13973.494186051947,276.86895751953125,273.5295715332031,299.7643127441406,-397.0575866699219,-16.45460319519043,45.71549606323242,27.8110294342041,79.80302429199219,16383.5,65535.0
13973.494586060577,277.5141906738281,274.57733154296875,276.5915222167969,-377.41046142578125,-14.646987915039062,51.08452606201172,25.859956741333008,81.46049499511719,16383.5,65535.0
13973.494986069207,290.6635437011719,274.15069580078125,247.60125732421875,-378.7583923339844,-14.308381080627441,51.16204833984375,25.815086364746094,80.93667602539062,16383.5,65535.0
13973.495386077835,295.5200500488281,267.376220703125,215.2457733154297,-396.6430358886719,-8.700614929199219,62.39210510253906,32.21417236328125,88.30484771728516,16383.5,65535.0
13973.495786086465,283.0001525878906,271.9330749511719,179.09555053710938,-412.7167053222656,-7.895081043243408,63.35392761230469,32.06403732299805,87.05378723144531,16383.5,65535.0
13973.496186095095,268.0458984375,266.1405944824219,150.8621826171875,-439.0338439941406,-7.007674217224121,61.67118453979492,33.520545959472656,90.49738311767578,16383.5,65535.0
13973.496586103725,249.7008514404297,261.9798583984375,101.81332397460938,-460.0516662597656,-15.441736221313477,57.647377014160156,27.0930233001709,85.60220336914062,16383.5,65535.0
13973.496986112354,222.2147674560547,264.2804870605469,37.735206604003906,-449.79998779296875,-17.934659957885742,57.907188415527344,25.766626358032227,82.19487762451172,16383.5,65535.0
13973.497386120984,204.34756469726562,264.1147155761719,18.18470573425293,-433.6746826171875,-15.376556396484375,59.07309341430664,26.600879669189453,81.9614028930664,16383.5,65535.0
13973.497786129614,186.427490234375,257.3455810546875,31.669328689575195,-437.4479064941406,-19.163816452026367,55.73980712890625,23.36206817626953,79.20512390136719,16383.5,65535.0
13973.498186138244,187.62054443359375,272.00164794921875,27.467374801635742,-446.18902587890625,-19.800161361694336,58.71957778930664,25.175395965576172,79.05766296386719,16383.5,65535.0
13973.498586146872,180.34864807128906,281.7131652832031,44.93885040283203,-442.39276123046875,-19.239543914794922,59.80691909790039,25.60978126525879,80.35415649414062,16383.5,65535.0
13973.498986155502,163.20420837402344,268.6521301269531,48.85398864746094,-430.9668884277344,-15.665911674499512,62.44928741455078,23.8963623046875,81.92768859863281,16383.5,65535.0
13973.499386164132,173.16488647460938,273.61395263671875,53.13774108886719,-433.2001953125,-9.948612213134766,65.90254974365234,33.125911712646484,88.46833801269531,16383.5,65535.0
13973.499786172762,201.2446746826172,266.24591064453125,63.688228607177734,-455.81524658203125,-14.395450592041016,63.011329650878906,27.74439239501953,82.04837799072266,16383.5,65535.0
13973.50018618139,199.30661010742188,273.5519714355469,32.3108024597168,-512.3911743164062,-9.134307861328125,68.58183288574219,33.4307861328125,92.06294250488281,16383.5,65535.0
13973.50058619002,213.8904571533203,275.6089172363281,7.0202813148498535,-585.817138671875,-5.7452712059021,74.71630859375,37.5001106262207,94.30224609375,16383.5,65535.0
13973.500986198651,237.245849609375,281.93353271484375,19.305511474609375,-609.521728515625,2.8085970878601074,81.82786560058594,45.084075927734375,101.69916534423828,16383.5,65535.0
13973.501386207281,234.58421325683594,275.9052734375,16.98612403869629,-585.7957153320312,-10.074047088623047,71.01988220214844,34.21060562133789,90.5422134399414,16383.5,65535.0
13973.50178621591,212.4105224609375,260.5577087402344,-5.5661492347717285,-551.08447265625,-15.232714653015137,63.0201530456543,27.069839477539062,83.00148010253906,16383.5,65535.0
13973.50218622454,207.65736389160156,265.44073486328125,-5.977902412414551,-513.8302612304688,-7.268634796142578,69.69886016845703,35.79094314575195,91.38465881347656,16383.5,65535.0
13973.50258623317,200.9807891845703,260.0866394042969,-12.024637222290039,-482.8595886230469,-16.59754753112793,59.08116912841797,26.670377731323242,82.64592742919922,16383.5,65535.0
13973.502986241798,205.84259033203125,260.6579895019531,-36.32443618774414,-465.3802490234375,-15.04141616821289,55.62168884277344,25.24761390686035,82.6983642578125,16383.5,65535.0
13973.503386250428,219.1041259765625,265.1887512207031,-72.61090850830078,-478.493408203125,-20.54871940612793,50.37636947631836,20.740903854370117,80.42122650146484,16383.5,65535.0
13973.503786259058,249.34234619140625,255.1644744873047,-105.75901794433594,-493.7760314941406,-24.435598373413086,46.497657775878906,18.308645248413086,78.68045043945312,16383.5,65535.0
13973.504186267688,288.13189697265625,269.0128479003906,-107.96044921875,-503.3268127441406,-23.36134147644043,45.8842658996582,17.692527770996094,74.95442962646484,16383.5,65535.0
13973.504586276318,318.317626953125,274.492431640625,-119.22564697265625,-506.0566711425781,-27.284988403320312,44.16252899169922,16.3421573638916,72.58997344970703,16383.5,65535.0
13973.504986284946,344.2474365234375,260.9345397949219,-123.50443267822266,-501.2045593261719,-18.090877532958984,47.475303649902344,22.497690200805664,77.98026275634766,16383.5,65535.0
13973.505386293577,352.6183776855469,262.6300048828125,-143.85691833496094,-523.7189331054688,-9.20645809173584,60.79692077636719,34.62567138671875,89.67776489257812,16383.5,65535.0
13973.505786302207,336.87518310546875,270.843994140625,-160.26068115234375,-532.8985595703125,-22.746536254882812,45.34783935546875,22.252300262451172,75.61814880371094,16383.5,65535.0
13973.506186310835,350.20269775390625,270.8072814941406,-176.2513427734375,-536.5266723632812,-28.391218185424805,33.33572769165039,9.99532699584961,67.8451156616211,16383.5,65535.0
13973.506586319465,373.6703186035156,267.2808837890625,-216.92076110839844,-526.7242431640625,-31.857389450073242,29.66862678527832,11.816140174865723,67.71671295166016,16383.5,65535.0
13973.506986328095,379.42047119140625,262.3191833496094,-246.9750518798828,-514.2772827148438,-40.76838684082031,19.45980453491211,-1.483961582183838,56.363059997558594,16383.5,65535.0
13973.507386336725,378.154052734375,266.8890075683594,-258.3657531738281,-505.5621032714844,-35.15873718261719,24.324472427368164,8.824554443359375,62.97449493408203,16383.5,65535.0
13973.507786345355,375.19952392578125,263.5575866699219,-250.9379119873047,-502.2708740234375,-34.944618225097656,26.151857376098633,10.21733570098877,64.35710906982422,16383.5,65535.0
13973.508186353984,388.1312255859375,256.2123718261719,-240.8529052734375,-491.3996887207031,-41.514915466308594,16.031295776367188,-0.1781635731458664,57.85028839111328,16383.5,65535.0
13973.508586362614,403.9003601074219,253.49429321289062,-254.35345458984375,-491.9601135253906,-42.73332595825195,13.803476333618164,0.02824207954108715,56.6024055480957,16383.5,65535.0
13973.508986371244,431.1553039550781,253.20928955078125,-257.48590087890625,-482.09228515625,-48.93044662475586,5.602902412414551,-4.568356990814209,47.84931564331055,16383.5,65535.0
13973.509386379872,436.9038391113281,252.31480407714844,-266.6974792480469,-479.39178466796875,-42.356781005859375,9.392796516418457,-1.3405728340148926,53.70843505859375,16383.5,65535.0
13973.509786388502,456.5257263183594,260.8594055175781,-270.6539611816406,-478.8293151855469,-46.595218658447266,10.799545288085938,-3.6055519580841064,51.73321533203125,16383.5,65535.0
13973.510186397132,485.5796203613281,256.2834167480469,-267.8426513671875,-451.29168701171875,-46.79349899291992,6.637533664703369,-5.307394504547119,51.140785217285156,16383.5,65535.0
13973.510586405762,506.73114013671875,262.1745910644531,-240.3039093017578,-426.7651672363281,-38.59693145751953,16.438823699951172,4.370805263519287,59.21749496459961,16383.5,65535.0
13973.51098641439,506.8836975097656,246.75042724609375,-222.0476837158203,-417.8918151855469,-43.829017639160156,10.384113311767578,-2.287977457046509,51.67842483520508,16383.5,65535.0
13973.51138642302,497.9786682128906,247.7100372314453,-214.07537841796875,-411.05572509765625,-44.95591354370117,10.779719352722168,-1.7879091501235962,54.9384880065918,16383.5,65535.0
13973.51178643165,504.03564453125,239.9999237060547,-229.43841552734375,-390.5829162597656,-39.00556182861328,16.25929069519043,0.9943544268608093,58.5607795715332,16383.5,65535.0
13973.51218644028,487.1991271972656,242.3184051513672,-261.4152526855469,-363.34344482421875,-41.015811920166016,16.845319747924805,2.225404977798462,55.10531997680664,16383.5,65535.0
13973.51258644891,476.62274169921875,233.7515106201172,-270.4304504394531,-360.970458984375,-34.29838943481445,24.76880645751953,7.154967308044434,64.9671630859375,16383.5,65535.0
13973.51298645754,481.1149597167969,234.3735809326172,-286.9731140136719,-360.6813049316406,-31.941255569458008,27.672420501708984,6.277214527130127,64.83428192138672,16383.5,65535.0
13973.51338646617,483.2362060546875,239.5322265625,-307.76995849609375,-361.10595703125,-32.579742431640625,28.938974380493164,8.120793342590332,65.224609375,16383.5,65535.0
13973.5137864748,482.18231201171875,241.05435180664062,-301.1087646484375,-352.7377624511719,-27.916194915771484,36.839900970458984,13.353763580322266,71.06652069091797,16383.5,65535.0
13973.514186483428,474.70208740234375,239.90805053710938,-285.2760009765625,-368.2242431640625,-24.989593505859375,39.185333251953125,16.509546279907227,72.89561462402344,16383.5,65535.0
13973.514586492058,478.5247802734375,233.06639099121094,-268.7764892578125,-380.08203125,-21.5439395904541,44.58955001831055,20.09868049621582,75.71116638183594,16383.5,65535.0
13973.514986500688,497.9277038574219,245.91110229492188,-252.74697875976562,-378.6009826660156,-30.582056045532227,40.12483596801758,14.463579177856445,69.96552276611328,16383.5,65535.0
13973.515386509318,499.2471618652344,237.13710021972656,-246.55484008789062,-369.3108825683594,-24.746923446655273,44.45740509033203,22.883708953857422,74.39159393310547,16383.5,65535.0
13973.515786517946,500.6428527832031,231.13665771484375,-256.7115478515625,-369.91748046875,-19.178224563598633,50.43292236328125,21.59975242614746,77.00365447998047,16383.5,65535.0
13973.516186526576,497.9071960449219,249.36036682128906,-257.3202819824219,-371.5361022949219,-16.52762222290039,55.416160583496094,23.85955047607422,79.43671417236328,16383.5,65535.0
13973.516586535206,492.87744140625,244.33792114257812,-242.69004821777344,-377.7913818359375,-17.430519104003906,56.95722579956055,27.94058609008789,83.41825103759766,16383.5,65535.0
13973.516986543837,472.7148132324219,237.0504913330078,-243.72799682617188,-371.4136047363281,-22.336044311523438,53.13634490966797,21.13326644897461,77.68743896484375,16383.5,65535.0
13973.517386552465,458.26776123046875,238.02687072753906,-237.6197509765625,-362.4207458496094,-17.541879653930664,55.85289764404297,22.855188369750977,79.31387329101562,16383.5,65535.0
13973.517786561095,435.6024169921875,244.5267333984375,-238.74729919433594,-381.5692138671875,-20.27942657470703,55.03997039794922,21.42345428466797,77.13253021240234,16383.5,65535.0
13973.518186569725,424.01251220703125,241.76416015625,-211.5821990966797,-388.2327575683594,-9.39124870300293,66.95430755615234,32.36503982543945,90.02436828613281,16383.5,65535.0
13973.518586578355,412.2283935546875,238.55430603027344,-191.47048950195312,-419.37030029296875,-3.2399332523345947,75.58453369140625,37.57062530517578,94.27714538574219,16383.5,65535.0
13973.518986586983,406.8941345214844,237.07827758789062,-158.83407592773438,-427.1759948730469,-8.433770179748535,74.1669921875,32.71738815307617,89.45655059814453,16383.5,65535.0
13973.519386595613,396.290771484375,245.39793395996094,-135.90602111816406,-424.2845458984375,2.7491579055786133,82.89805603027344,44.81196212768555,102.40843200683594,16383.5,65535.0
13973.519786604244,381.982177734375,244.64926147460938,-112.5711669921875,-431.6690979003906,-1.1314178705215454,80.09300231933594,43.64297866821289,100.82855224609375,16383.5,65535.0
13973.520186612874,388.40472412109375,247.59942626953125,-72.82391357421875,-429.9792175292969,-2.7486085891723633,76.63504028320312,35.57600402832031,93.86934661865234,16383.5,65535.0
13973.520586621502,402.7953796386719,248.5635223388672,-48.35689163208008,-422.1529846191406,-13.018426895141602,65.19943237304688,27.35898208618164,84.66435241699219,16383.5,65535.0
13973.520986630132,420.6141662597656,245.2542266845703,-20.423112869262695,-432.40252685546875,-9.127132415771484,67.45600128173828,31.837854385375977,89.06486511230469,16383.5,65535.0
13973.521386638762,439.0277099609375,240.34779357910156,15.931537628173828,-440.1983642578125,-21.823514938354492,54.92070007324219,22.40374183654785,75.9558334350586,16383.5,65535.0
13973.521786647392,445.37890625,243.59564208984375,43.76545333862305,-450.905029296875,-19.601015090942383,55.491634368896484,23.23019027709961,78.49795532226562,16383.5,65535.0
13973.52218665602,450.57244873046875,237.05381774902344,78.38690185546875,-466.6745910644531,-7.889297962188721,67.80960845947266,34.35270690917969,89.56144714355469,16383.5,65535.0
13973.52258666465,439.1823425292969,237.87164306640625,93.38651275634766,-483.3625183105469,-11.111502647399902,61.40042495727539,31.46408462524414,87.71084594726562,16383.5,65535.0
13973.52298667328,441.13275146484375,240.25775146484375,95.80689239501953,-509.39373779296875,-26.36908531188965,48.831668853759766,16.432357788085938,73.09829711914062,16383.5,65535.0
13973.52338668191,442.631103515625,242.99240112304688,86.08585357666016,-512.4552612304688,-19.664796829223633,46.2867546081543,18.227991104125977,75.74009704589844,16383.5,65535.0
13973.523786690539,437.9891357421875,237.68959045410156,101.43956756591797,-525.2716674804688,-15.545927047729492,54.52983856201172,27.797082901000977,82.62203216552734,16383.5,65535.0
13973.52418669917,450.44207763671875,248.6273651123047,102.8848648071289,-541.2637329101562,-26.216167449951172,45.63330841064453,15.776808738708496,73.46868896484375,16383.5,65535.0
13973.5245867078,446.9002990722656,250.3983917236328,82.81304931640625,-559.5684814453125,-22.698720932006836,45.03846740722656,19.212724685668945,75.59915924072266,16383.5,65535.0
13973.52498671643,434.92474365234375,242.9981231689453,70.80623626708984,-563.1641845703125,-17.747644424438477,48.352638244628906,26.62886619567871,78.4477310180664,16383.5,65535.0
13973.525386725058,443.1199951171875,242.31283569335938,60.62931823730469,-567.2769165039062,-19.502695083618164,49.13801956176758,23.443078994750977,78.67829132080078,16383.5,65535.0
13973.525786733688,442.08740234375,252.7794952392578,55.250022888183594,-566.6779174804688,-10.226560592651367,58.58342742919922,30.578205108642578,87.57710266113281,16383.5,65535.0
13973.526186742318,419.8251953125,243.8949432373047,42.87514877319336,-566.0119018554688,-27.146631240844727,38.7359619140625,14.238500595092773,73.24888610839844,16383.5,65535.0
13973.526586750948,408.81060791015625,239.5294647216797,38.41704559326172,-570.518310546875,-18.207073211669922,45.19365692138672,22.588199615478516,79.78163146972656,16383.5,65535.0
13973.526986759576,395.4283752441406,241.44329833984375,31.02785301208496,-566.058349609375,-18.455717086791992,47.43972396850586,25.376102447509766,80.39197540283203,16383.5,65535.0
13973.527386768206,396.2351989746094,241.40733337402344,5.733709812164307,-564.8787841796875,-29.314218521118164,34.79389190673828,13.025660514831543,68.12760925292969,16383.5,65535.0
13973.527786776836,397.9214782714844,240.93080139160156,-4.552623748779297,-567.1278686523438,-28.127138137817383,32.37514114379883,14.633073806762695,67.72991180419922,16383.5,65535.0
13973.528186785466,370.8127136230469,255.66688537597656,15.666773796081543,-561.4974365234375,-37.71997833251953,21.885242462158203,7.173549175262451,59.55537414550781,16383.5,65535.0
13973.528586794095,346.6760559082031,241.46636962890625,12.864802360534668,-555.1399536132812,-30.605243682861328,26.922672271728516,10.717019081115723,67.35037231445312,16383.5,65535.0
13973.528986802725,331.7383728027344,241.6696014404297,-36.37651062011719,-550.0513916015625,-25.09263038635254,33.73334503173828,18.730966567993164,74.26371002197266,16383.5,65535.0
13973.529386811355,331.389404296875,241.7566680908203,-100.8333511352539,-556.3125,-22.6189022064209,36.2485237121582,19.7210750579834,76.40499877929688,16383.5,65535.0
13973.529786819985,324.78851318359375,230.32057189941406,-104.28936004638672,-559.1976318359375,-31.216033935546875,24.160621643066406,11.335960388183594,65.9909439086914,16383.5,65535.0
13973.530186828613,321.94451904296875,231.8972930908203,-56.727909088134766,-552.4293212890625,-29.701906204223633,27.54204559326172,11.325525283813477,65.48905181884766,16383.5,65535.0
13973.530586837243,326.0835876464844,239.7041473388672,-30.771764755249023,-538.0765991210938,-26.669513702392578,34.70164489746094,16.280126571655273,74.47111511230469,16383.5,65535.0
13973.530986845873,317.41156005859375,229.92054748535156,-11.062759399414062,-520.8297729492188,-35.41763687133789,23.919321060180664,9.92202377319336,63.32815170288086,16383.5,65535.0
13973.531386854504,310.6462097167969,234.3793182373047,8.891205787658691,-513.8515014648438,-26.108400344848633,30.82596206665039,16.52640151977539,70.9736328125,16383.5,65535.0
13973.531786863132,285.8936767578125,236.47634887695312,11.507174491882324,-518.7789306640625,-26.5660457611084,33.763912200927734,17.510244369506836,72.40559387207031,16383.5,65535.0
13973.532186871762,243.18724060058594,230.13035583496094,19.919279098510742,-512.8740234375,-26.191787719726562,37.41697692871094,16.342802047729492,73.31592559814453,16383.5,65535.0
13973.532586880392,219.82505798339844,220.9848175048828,26.10979461669922,-510.2524108886719,-23.178340911865234,37.51756286621094,19.27389907836914,75.7830810546875,16383.5,65535.0
13973.532986889022,211.2259979248047,234.99179077148438,50.82761764526367,-516.6815185546875,-20.782711029052734,40.883888244628906,20.68611717224121,76.35093688964844,16383.5,65535.0
13973.53338689765,209.7390899658203,240.79653930664062,71.1025161743164,-510.9976806640625,-21.484981536865234,42.147151947021484,19.293563842773438,75.62109375,16383.5,65535.0
13973.53378690628,208.33836364746094,230.0861358642578,87.1047592163086,-499.6528625488281,-29.776546478271484,34.98821258544922,9.513972282409668,65.7698974609375,16383.5,65535.0
13973.53418691491,200.57203674316406,233.81600952148438,85.20811462402344,-488.40673828125,-9.418654441833496,53.676239013671875,31.374753952026367,89.39686584472656,16383.5,65535.0
13973.53458692354,207.35552978515625,238.53611755371094,79.40966796875,-488.5324401855469,-15.204341888427734,57.58164596557617,29.085817337036133,87.24629974365234,16383.5,65535.0
13973.534986932169,231.63418579101562,232.93101501464844,89.81685638427734,-483.71826171875,-19.0974178314209,52.50413513183594,23.038789749145508,79.29289245605469,16383.5,65535.0
13973.535386940799,231.41575622558594,229.2586669921875,103.62183380126953,-463.8614807128906,-18.156993865966797,50.806854248046875,21.277183532714844,80.79235076904297,16383.5,65535.0
13973.53578694943,233.2764892578125,237.1982879638672,89.74034881591797,-459.1723327636719,-20.56947898864746,49.095542907714844,19.346879959106445,75.10786437988281,16383.5,65535.0
13973.53618695806,240.14227294921875,235.055419921875,78.4231185913086,-445.5513000488281,-20.331090927124023,52.20503616333008,19.90777015686035,78.22455596923828,16383.5,65535.0
13973.536586966688,248.5151824951172,230.7496337890625,77.74535369873047,-444.74664306640625,-14.576770782470703,62.68024826049805,29.62576675415039,86.49746704101562,16383.5,65535.0
13973.536986975318,242.01109313964844,228.4405517578125,72.2024154663086,-446.93707275390625,-14.253792762756348,61.53227233886719,28.888757705688477,82.89923095703125,16383.5,65535.0
13973.537386983948,236.58587646484375,233.1248321533203,78.92296600341797,-438.89385986328125,-17.63912582397461,56.93162536621094,23.259275436401367,77.86640167236328,16383.5,65535.0
13973.537786992578,237.36669921875,240.63864135742188,79.0774917602539,-448.4704284667969,-16.38466453552246,59.403831481933594,26.243019104003906,81.72675323486328,16383.5,65535.0
13973.538187001206,226.80850219726562,242.714111328125,74.69976806640625,-471.0208435058594,-10.908761024475098,66.4028091430664,33.45613479614258,86.39408111572266,16383.5,65535.0
13973.538587009836,222.36663818359375,242.33013916015625,85.81732940673828,-487.9907531738281,-15.133337020874023,64.97283935546875,27.43365478515625,82.73841857910156,16383.5,65535.0
13973.538987018466,237.6807861328125,234.95510864257812,93.92144012451172,-492.3013000488281,-11.18781852722168,68.26882934570312,32.291038513183594,90.69081115722656,16383.5,65535.0
13973.539387027096,280.33734130859375,236.11972045898438,92.6612777709961,-488.55340576171875,-7.4481587409973145,73.00249481201172,34.50596618652344,90.09197235107422,16383.5,65535.0
13973.539787035725,318.47967529296875,235.91905212402344,72.59236907958984,-491.1488037109375,-14.415589332580566,69.72528839111328,30.37947654724121,85.40892028808594,16383.5,65535.0
13973.540187044355,360.8004455566406,233.3502197265625,57.28782272338867,-486.9143371582031,-17.404647827148438,61.26411819458008,27.05736541748047,82.6978759765625,16383.5,65535.0
13973.540587052985,399.90087890625,236.06866455078125,63.6411247253418,-481.14739990234375,-20.184354782104492,57.2877082824707,22.301355361938477,78.82681274414062,16383.5,65535.0
13973.540987061615,418.7292175292969,236.66053771972656,66.74752044677734,-489.0757751464844,-11.012975692749023,67.45177459716797,29.492460250854492,87.46009063720703,16383.5,65535.0
13973.541387070243,429.74371337890625,236.87384033203125,69.97967529296875,-478.5732116699219,-15.445075035095215,61.727813720703125,25.769250869750977,80.58562469482422,16383.5,65535.0
13973.541787078873,443.36639404296875,237.0806884765625,44.995338439941406,-473.6068115234375,-23.658655166625977,50.94643020629883,17.522432327270508,75.27717590332031,16383.5,65535.0
13973.542187087503,456.8822937011719,233.39659118652344,45.745479583740234,-463.14898681640625,-18.26146697998047,56.856204986572266,25.041118621826172,81.22594451904297,16383.5,65535.0
13973.542587096134,451.0365295410156,241.23956298828125,23.353679656982422,-466.6056213378906,-17.125621795654297,53.896629333496094,23.666181564331055,81.28884887695312,16383.5,65535.0
13973.542987104762,447.84130859375,240.5481719970703,12.505855560302734,-485.45635986328125,-15.554189682006836,59.360130310058594,28.457317352294922,84.17015838623047,16383.5,65535.0
13973.543387113392,462.2672119140625,236.6523895263672,18.01370620727539,-472.692138671875,-7.724637031555176,67.06436157226562,34.76355743408203,86.99329376220703,16383.5,65535.0
13973.543787122022,470.0557861328125,242.74807739257812,25.724933624267578,-453.388427734375,-17.14872169494629,56.58473587036133,24.615339279174805,81.24180603027344,16383.5,65535.0
13973.54418713065,460.85919189453125,243.45013427734375,49.04888916015625,-447.8686218261719,-26.111068725585938,42.13044357299805,18.11309051513672,72.31401824951172,16383.5,65535.0
13973.54458713928,459.46875,234.32957458496094,51.756614685058594,-449.91143798828125,-23.92487144470215,41.19113540649414,20.689834594726562,75.14812469482422,16383.5,65535.0
13973.54498714791,455.7244567871094,232.86917114257812,50.83858108520508,-463.4766845703125,-24.0908260345459,41.52931213378906,15.953451156616211,72.53189849853516,16383.5,65535.0
13973.54538715654,445.0967102050781,238.94760131835938,60.90009689331055,-478.6953430175781,-28.427309036254883,39.68756103515625,15.490091323852539,73.00117492675781,16383.5,65535.0
13973.54578716517,460.9021301269531,239.41140747070312,69.17194366455078,-502.0418701171875,-30.04646110534668,34.82914733886719,13.48883056640625,70.56522369384766,16383.5,65535.0
13973.546187173799,475.5140686035156,242.49539184570312,69.62792205810547,-505.9385986328125,-35.17247009277344,25.014829635620117,8.259305000305176,62.81135559082031,16383.5,65535.0
13973.546587182429,473.9708557128906,240.79794311523438,72.88492584228516,-492.5043029785156,-30.525564193725586,33.51251983642578,11.827939987182617,67.75971221923828,16383.5,65535.0
13973.546987191059,471.3081359863281,236.39398193359375,65.63211059570312,-488.2383117675781,-37.48330307006836,25.316762924194336,7.876482963562012,61.92241668701172,16383.5,65535.0
13973.547387199687,436.4148254394531,228.2086639404297,55.241764068603516,-481.2725524902344,-38.25566864013672,19.408958435058594,5.131997108459473,56.57029342651367,16383.5,65535.0
13973.547787208317,405.9651794433594,233.1752166748047,58.11981964111328,-467.95074462890625,-36.95744323730469,20.871845245361328,4.4580793380737305,61.19482421875,16383.5,65535.0
13973.548187216948,378.9883117675781,234.1947021484375,60.35283660888672,-457.10235595703125,-39.85865783691406,15.991361618041992,-0.04040383920073509,56.99708557128906,16383.5,65535.0
13973.548587225578,365.3067321777344,218.15817260742188,65.21189880371094,-459.1347961425781,-41.03129577636719,14.134900093078613,1.1946388483047485,54.95383834838867,16383.5,65535.0
13973.548987234208,365.05133056640625,229.69566345214844,73.62283325195312,-455.80450439453125,-44.22004699707031,12.080491065979004,-0.10571243613958359,54.07339096069336,16383.5,65535.0
13973.549387242836,359.1017150878906,229.9512176513672,129.39854431152344,-447.3830261230469,-40.52284240722656,15.035365104675293,4.213515758514404,60.35445022583008,16383.5,65535.0
13973.549787251466,346.7711181640625,222.50051879882812,211.7334747314453,-451.94866943359375,-35.376678466796875,23.798097610473633,5.147028923034668,61.096988677978516,16383.5,65535.0
13973.550187260096,366.44073486328125,229.1009521484375,239.83184814453125,-452.1754150390625,-28.968820571899414,29.20334815979004,14.480194091796875,69.8149642944336,16383.5,65535.0
13973.550587268724,372.585205078125,227.3331756591797,242.5631866455078,-452.4167175292969,-38.538597106933594,18.718168258666992,5.261300563812256,59.30397033691406,16383.5,65535.0
13973.550987277355,381.52740478515625,235.99063110351562,247.37733459472656,-452.6541748046875,-33.00535583496094,23.48700523376465,9.380675315856934,65.88011169433594,16383.5,65535.0
13973.551387285985,394.0016784667969,230.19418334960938,244.82032775878906,-442.3527526855469,-20.16167449951172,38.1065788269043,19.46536636352539,77.22798156738281,16383.5,65535.0
13973.551787294615,402.6533203125,217.61619567871094,251.0899658203125,-431.6943054199219,-31.057939529418945,28.97149658203125,9.783080101013184,65.29312896728516,16383.5,65535.0
13973.552187303245,412.94232177734375,223.0982666015625,263.4685363769531,-424.3489685058594,-25.455841064453125,33.59346389770508,15.478456497192383,70.10735321044922,16383.5,65535.0
13973.552587311873,416.779296875,224.38214111328125,211.72157287597656,-433.4649658203125,-29.081321716308594,31.88760757446289,11.383235931396484,69.01950073242188,16383.5,65535.0
13973.552987320503,401.8447570800781,225.12600708007812,163.24774169921875,-442.092041015625,-26.999465942382812,37.43384552001953,17.26173210144043,72.01026153564453,16383.5,65535.0
13973.553387329133,391.55926513671875,221.7947540283203,126.03885650634766,-437.52142333984375,-28.91556167602539,33.252410888671875,15.053924560546875,71.63508605957031,16383.5,65535.0
13973.553787337762,389.99755859375,221.79928588867188,103.28490447998047,-449.7261657714844,-26.270774841308594,35.63292694091797,13.353251457214355,71.45002746582031,16383.5,65535.0
13973.554187346392,398.3811950683594,218.40603637695312,83.41267395019531,-450.80657958984375,-34.165191650390625,34.52041244506836,10.464293479919434,65.51139068603516,16383.5,65535.0
13973.554587355022,420.7718811035156,232.80126953125,53.032257080078125,-429.00579833984375,-41.8443603515625,20.537511825561523,0.9790904521942139,57.58320236206055,16383.5,65535.0
13973.554987363652,442.058349609375,235.4238739013672,-0.6703440546989441,-419.8476257324219,-33.10890197753906,30.413066864013672,8.923463821411133,66.15190887451172,16383.5,65535.0
13973.55538737228,445.3680419921875,227.53134155273438,-47.37670135498047,-423.40692138671875,-32.41285705566406,33.332820892333984,9.906516075134277,65.49376678466797,16383.5,65535.0
13973.55578738091,445.935302734375,216.72056579589844,-84.5862808227539,-421.3038635253906,-20.3768253326416,47.52082443237305,18.24736976623535,76.89808654785156,16383.5,65535.0
13973.55618738954,450.23291015625,218.18113708496094,-75.39928436279297,-417.9410400390625,-22.586170196533203,50.002498626708984,17.44042205810547,73.32307434082031,16383.5,65535.0
13973.55658739817,454.1904296875,225.90602111816406,-18.688325881958008,-430.8210754394531,-25.085145950317383,47.232025146484375,18.975112915039062,70.93693542480469,16383.5,65535.0
13973.556987406799,473.8011474609375,223.7650909423828,19.963924407958984,-431.0121765136719,-28.284420013427734,43.84159469604492,14.285760879516602,69.0245590209961,16383.5,65535.0
13973.557387415429,472.7117919921875,235.680908203125,62.14139175415039,-433.4593811035156,-24.605676651000977,47.572357177734375,19.006900787353516,72.16181182861328,16383.5,65535.0
13973.557787424059,464.1716003417969,237.51756286621094,87.07430267333984,-427.274658203125,-29.709651947021484,46.41187286376953,12.865464210510254,66.60291290283203,16383.5,65535.0
13973.558187432689,473.6191711425781,229.63162231445312,77.502685546875,-432.47222900390625,-20.68462371826172,56.936485290527344,23.687454223632812,75.3775634765625,16383.5,65535.0
13973.558587441317,484.1861267089844,224.60520935058594,84.63374328613281,-462.5285949707031,-18.18301010131836,57.866878509521484,24.121461868286133,81.90157318115234,16383.5,65535.0
13973.558987449947,497.8133239746094,240.62330627441406,102.94524383544922,-471.68243408203125,-12.154900550842285,67.10384368896484,27.105571746826172,86.59264373779297,16383.5,65535.0
13973.559387458577,486.5434265136719,232.67916870117188,122.60812377929688,-468.8193054199219,-17.09098243713379,62.72477340698242,25.57562255859375,82.12249755859375,16383.5,65535.0
13973.559787467208,454.1995544433594,232.5524444580078,128.53811645507812,-451.76904296875,-16.058961868286133,64.29930114746094,26.752012252807617,84.24507141113281,16383.5,65535.0
13973.560187475836,409.3385314941406,234.42526245117188,136.1913604736328,-432.99200439453125,-21.011072158813477,57.26539993286133,16.700603485107422,73.52608489990234,16383.5,65535.0
13973.560587484466,362.51751708984375,237.49728393554688,159.21986389160156,-427.5047912597656,-19.618154525756836,57.26032257080078,20.906152725219727,76.71451568603516,16383.5,65535.0
13973.560987493096,349.7601623535156,244.90383911132812,195.8470458984375,-435.5384521484375,-19.49993133544922,60.36299133300781,24.73802947998047,78.75054168701172,16383.5,65535.0
13973.561387501726,333.9118347167969,242.24859619140625,208.73304748535156,-436.2148742675781,-23.22592544555664,55.56438064575195,21.083463668823242,80.32917022705078,16383.5,65535.0
13973.561787510354,313.6143493652344,246.08612060546875,194.45550537109375,-423.07672119140625,-14.24627685546875,61.87637710571289,26.972801208496094,85.31472778320312,16383.5,65535.0
13973.562187518985,288.1238708496094,232.76473999023438,174.1610107421875,-402.8735656738281,-15.298598289489746,60.431880950927734,25.756240844726562,81.11514282226562,16383.5,65535.0
13973.562587527615,258.3691101074219,231.79296875,148.14605712890625,-392.4551086425781,-28.940397262573242,42.94142532348633,13.84230899810791,68.67377471923828,16383.5,65535.0
13973.562987536245,232.7248077392578,238.52249145507812,142.93942260742188,-379.6226806640625,-16.62457275390625,52.67890167236328,22.247343063354492,78.93101501464844,16383.5,65535.0
13973.563387544873,220.5152587890625,242.9721221923828,158.09939575195312,-392.8827209472656,-9.476235389709473,63.404541015625,30.61236000061035,87.35041809082031,16383.5,65535.0
13973.563787553503,203.39076232910156,237.87109375,171.11134338378906,-402.3483581542969,-11.320026397705078,67.94977569580078,31.232406616210938,86.48778533935547,16383.5,65535.0
13973.564187562133,195.0546875,230.0561065673828,194.97158813476562,-403.74053955078125,-10.151053428649902,64.89315795898438,31.41794204711914,86.97159576416016,16383.5,65535.0
13973.564587570763,193.15472412109375,230.21157836914062,238.36170959472656,-415.7376403808594,-9.594840049743652,63.30299758911133,31.9793701171875,88.53173828125,16383.5,65535.0
13973.564987579392,179.65562438964844,228.93417358398438,267.31927490234375,-420.3052673339844,-9.420745849609375,63.886531829833984,31.533470153808594,91.15425872802734,16383.5,65535.0
13973.565387588022,181.9031982421875,241.73094177246094,284.0868835449219,-425.5651550292969,-14.419066429138184,57.94203186035156,27.387752532958984,83.78805541992188,16383.5,65535.0
13973.565787596652,188.08404541015625,240.26858520507812,278.5198059082031,-410.1033020019531,-18.79656982421875,50.994998931884766,21.97844123840332,77.60550689697266,16383.5,65535.0
13973.566187605282,209.1510772705078,229.71910095214844,293.2030334472656,-370.53057861328125,-20.237262725830078,47.70051574707031,20.216136932373047,78.18177795410156,16383.5,65535.0
13973.56658761391,216.4887237548828,222.085693359375,311.2375183105469,-362.9047546386719,-16.345685958862305,49.55125427246094,23.512340545654297,83.25332641601562,16383.5,65535.0
13973.56698762254,205.10299682617188,226.1343536376953,316.2811279296875,-349.7638244628906,-26.25493049621582,39.600120544433594,15.097768783569336,72.09255981445312,16383.5,65535.0
13973.56738763117,186.887451171875,227.7721405029297,326.59307861328125,-345.66156005859375,-26.542890548706055,38.52449417114258,15.471633911132812,73.9105224609375,16383.5,65535.0
13973.5677876398,171.7425079345703,231.82080078125,330.69476318359375,-322.7575378417969,-31.113706588745117,33.87935256958008,12.824097633361816,67.90045928955078,16383.5,65535.0
13973.568187648429,160.7658233642578,225.5369873046875,308.0080871582031,-298.3992004394531,-33.04550552368164,23.161161422729492,7.255281448364258,62.90309143066406,16383.5,65535.0
13973.568587657059,169.96875,231.04226684570312,291.8346252441406,-265.7863464355469,-25.533287048339844,30.57067108154297,13.18889045715332,71.9664077758789,16383.5,65535.0
13973.568987665689,187.33425903320312,228.9515838623047,284.4902038574219,-238.81187438964844,-28.36237907409668,32.04072952270508,14.845678329467773,68.3094711303711,16383.5,65535.0
13973.569387674319,199.46034240722656,233.55702209472656,281.5133361816406,-223.90335083007812,-20.29212760925293,37.88439178466797,23.788360595703125,77.10555267333984,16383.5,65535.0
13973.569787682947,222.4763946533203,231.54624938964844,289.8656921386719,-191.74835205078125,-23.208253860473633,39.91075897216797,20.4727840423584,74.82872009277344,16383.5,65535.0
13973.570187691577,241.1275634765625,237.5072784423828,273.15240478515625,-164.86277770996094,-29.78026580810547,33.305816650390625,11.704090118408203,67.17475891113281,16383.5,65535.0
13973.570587700207,255.84811401367188,232.00619506835938,252.71722412109375,-156.59413146972656,-34.216156005859375,26.01626205444336,10.411906242370605,65.81830596923828,16383.5,65535.0
13973.570987708837,269.4495849609375,220.7863006591797,245.4174346923828,-141.2941131591797,-19.616968154907227,40.318416595458984,22.742006301879883,76.96595764160156,16383.5,65535.0
13973.571387717466,278.7185363769531,226.9132537841797,213.04248046875,-117.67821502685547,-24.045166015625,38.66314697265625,20.485187530517578,74.75932312011719,16383.5,65535.0
13973.571787726096,310.3985290527344,232.72596740722656,166.95899963378906,-119.61212921142578,-30.096311569213867,33.4765510559082,10.895455360412598,69.56419372558594,16383.5,65535.0
13973.572187734726,328.3748779296875,242.5891876220703,139.94924926757812,-135.7023162841797,-27.330705642700195,34.38401794433594,11.747748374938965,68.92635345458984,16383.5,65535.0
13973.572587743356,352.34796142578125,228.31922912597656,122.5590591430664,-171.21067810058594,-25.56875228881836,38.00387191772461,13.869336128234863,71.0073471069336,16383.5,65535.0
13973.572987751984,361.1522216796875,235.1975860595703,82.39921569824219,-198.48338317871094,-28.158935546875,35.46469497680664,13.279383659362793,68.92805480957031,16383.5,65535.0
13973.573387760614,348.8415222167969,238.17588806152344,61.589881896972656,-208.4292449951172,-23.300579071044922,39.826900482177734,18.685243606567383,72.84190368652344,16383.5,65535.0
13973.573787769245,352.3164978027344,233.90771484375,74.6559829711914,-189.55503845214844,-17.258010864257812,48.73724365234375,23.194612503051758,78.60186767578125,16383.5,65535.0
13973.574187777875,355.9601745605469,228.15493774414062,62.81782913208008,-193.98638916015625,-13.50899600982666,57.53144073486328,27.410181045532227,84.8134765625,16383.5,65535.0
13973.574587786503,345.1760559082031,241.08648681640625,35.29008483886719,-195.89630126953125,-16.34928321838379,54.075992584228516,23.752182006835938,80.08610534667969,16383.5,65535.0
13973.574987795133,335.9441223144531,240.4111328125,32.707305908203125,-196.53170776367188,-14.950196266174316,53.3880500793457,27.880098342895508,82.40938568115234,16383.5,65535.0
13973.575387803763,328.9097900390625,228.565185546875,29.97239112854004,-172.94296264648438,-24.688522338867188,48.626853942871094,18.954448699951172,73.85429382324219,16383.5,65535.0
13973.575787812393,313.2452087402344,224.1790771484375,26.55548095703125,-154.4543914794922,-12.924399375915527,59.30796813964844,26.70966339111328,82.62332916259766,16383.5,65535.0
13973.576187821021,326.86334228515625,233.5138397216797,-3.72902250289917,-166.8535614013672,-15.870956420898438,57.28425979614258,26.56482696533203,78.9686508178711,16383.5,65535.0
13973.576587829652,378.4207458496094,240.91650390625,-47.61855697631836,-206.1198272705078,-9.844298362731934,65.24352264404297,30.688800811767578,88.55307006835938,16383.5,65535.0
13973.576987838282,415.8047790527344,238.04373168945312,-86.9478759765625,-224.0250244140625,-7.826523780822754,69.45038604736328,30.788639068603516,90.83576965332031,16383.5,65535.0
13973.577387846912,452.5523986816406,235.06626892089844,-117.25022888183594,-241.978271484375,-9.619974136352539,69.4066162109375,30.88431739807129,88.31497955322266,16383.5,65535.0
13973.57778785554,482.9667663574219,232.0820770263672,-130.64071655273438,-285.9927978515625,-11.334705352783203,67.36096954345703,30.242183685302734,89.84423828125,16383.5,65535.0
13973.57818786417,473.7987060546875,231.54200744628906,-143.3608856201172,-314.716064453125,-21.98504638671875,55.40831756591797,17.500244140625,72.7779769897461,16383.5,65535.0
13973.5785878728,469.5243225097656,231.6253662109375,-189.49594116210938,-299.02587890625,-23.38936996459961,53.83638000488281,19.54062271118164,76.31688690185547,16383.5,65535.0
13973.57898788143,474.341552734375,231.904541015625,-220.27072143554688,-276.166748046875,-12.61522388458252,66.71659088134766,31.857913970947266,84.94205474853516,16383.5,65535.0
13973.579387890059,476.4445495605469,236.9873809814453,-218.33432006835938,-266.7796325683594,-5.17151403427124,72.646484375,36.01995849609375,89.3150405883789,16383.5,65535.0
13973.579787898689,472.84930419921875,238.60772705078125,-202.40744018554688,-287.3987731933594,-11.013598442077637,71.7334976196289,31.351743698120117,86.92948150634766,16383.5,65535.0
13973.580187907319,467.5259704589844,230.5388946533203,-207.9482879638672,-341.5845947265625,-22.30527114868164,55.75000762939453,20.78107452392578,76.11134338378906,16383.5,65535.0
13973.580587915949,457.976318359375,241.08590698242188,-216.49095153808594,-413.0721435546875,-17.447248458862305,61.1943473815918,25.377792358398438,80.20860290527344,16383.5,65535.0
13973.580987924577,445.4084167480469,244.4724884033203,-192.69082641601562,-472.0324401855469,-15.771097183227539,63.103824615478516,26.087574005126953,84.56825256347656,16383.5,65535.0
13973.581387933207,429.4534912109375,240.33509826660156,-174.7430419921875,-526.9633178710938,-10.926013946533203,66.98726654052734,31.042097091674805,88.45943450927734,16383.5,65535.0
13973.581787941837,434.12384033203125,246.80630493164062,-197.16363525390625,-545.6906127929688,-12.705791473388672,64.61652374267578,30.431167602539062,86.17670440673828,16383.5,65535.0
13973.582187950467,439.8791198730469,232.31243896484375,-193.13316345214844,-520.9325561523438,-12.023355484008789,65.50727081298828,29.47590446472168,86.4383773803711,16383.5,65535.0
13973.582587959096,430.2734680175781,234.90484619140625,-171.07594299316406,-513.0394897460938,-9.802863121032715,63.9143180847168,27.336904525756836,85.31652069091797,16383.5,65535.0
13973.582987967726,425.7655334472656,243.47775268554688,-161.9658203125,-503.5433349609375,-21.352399826049805,52.79483413696289,18.21398162841797,75.37556457519531,16383.5,65535.0
13973.583387976356,440.5160827636719,227.01927185058594,-125.89098358154297,-507.7501525878906,-29.980873107910156,43.2298583984375,10.64852523803711,69.08197021484375,16383.5,65535.0
13973.583787984986,444.1676025390625,230.9393310546875,-113.64393615722656,-512.2495727539062,-21.434226989746094,49.289588928222656,18.333499908447266,75.86935424804688,16383.5,65535.0
13973.584187993614,453.8368225097656,233.03860473632812,-119.38996124267578,-548.4337158203125,-27.31231689453125,43.07277297973633,12.48082447052002,68.4001693725586,16383.5,65535.0
13973.584588002244,472.75567626953125,230.97047424316406,-126.73338317871094,-585.0573120117188,-35.88173294067383,33.428871154785156,5.085245132446289,65.92418670654297,16383.5,65535.0
13973.584988010874,460.3450927734375,232.97885131835938,-155.63201904296875,-608.8850708007812,-24.311946868896484,39.24600601196289,15.93155574798584,70.90884399414062,16383.5,65535.0
13973.585388019503,471.5201110839844,229.46446228027344,-143.32228088378906,-635.2210693359375,-26.13079833984375,39.23153305053711,16.493236541748047,74.31043243408203,16383.5,65535.0
13973.585788028133,477.8599548339844,242.88717651367188,-145.3224639892578,-637.37353515625,-44.19938278198242,21.875165939331055,-0.009083623997867107,56.23373794555664,16383.5,65535.0
13973.586188036763,475.6974182128906,244.3115234375,-153.16807556152344,-631.787109375,-49.84492874145508,11.22570514678955,-4.638763904571533,51.582130432128906,16383.5,65535.0
13973.586588045393,479.30999755859375,243.09756469726562,-167.63772583007812,-611.5944213867188,-47.20463180541992,12.768630027770996,-4.350823402404785,52.39484786987305,16383.5,65535.0
13973.586988054023,456.34619140625,238.04307556152344,-184.10411071777344,-594.3079223632812,-42.237735748291016,15.660539627075195,-0.25763896107673645,53.18955612182617,16383.5,65535.0
13973.587388062651,446.7868957519531,232.17588806152344,-182.16575622558594,-578.2293701171875,-47.26573181152344,10.19028091430664,-4.233168125152588,51.07664108276367,16383.5,65535.0
13973.587788071281,428.218017578125,230.515869140625,-149.39540100097656,-570.5647583007812,-47.68783187866211,9.155969619750977,-6.75862455368042,51.21805191040039,16383.5,65535.0
13973.588188079912,420.5504455566406,231.12026977539062,-152.66891479492188,-578.1568603515625,-47.45768737792969,10.95085334777832,-5.619811058044434,49.93045425415039,16383.5,65535.0
13973.58858808854,412.2198791503906,228.71810913085938,-168.21096801757812,-593.3816528320312,-46.56307601928711,10.035922050476074,-5.462762355804443,51.46809768676758,16383.5,65535.0
13973.58898809717,389.144287109375,237.46900939941406,-192.5985565185547,-612.5892944335938,-50.303993225097656,4.127657413482666,-9.31248950958252,47.56312942504883,16383.5,65535.0
13973.5893881058,393.7686767578125,227.44366455078125,-225.57940673828125,-620.4273681640625,-56.729400634765625,0.33070874214172363,-12.919827461242676,44.23487091064453,16383.5,65535.0
13973.58978811443,397.32965087890625,230.55323791503906,-239.06103515625,-614.96142578125,-46.274200439453125,9.243125915527344,-3.2719662189483643,51.254669189453125,16383.5,65535.0
13973.59018812306,393.69720458984375,223.9568634033203,-269.23895263671875,-594.4273681640625,-46.36141586303711,12.600563049316406,-2.3666443824768066,53.617340087890625,16383.5,65535.0
13973.590588131688,376.6474304199219,220.5443572998047,-285.4222106933594,-585.3128662109375,-55.88954162597656,4.156370162963867,-12.8119535446167,44.55347442626953,16383.5,65535.0
13973.590988140319,360.2312316894531,215.8601531982422,-262.7493896484375,-582.485107421875,-49.25905990600586,5.716593265533447,-7.275333881378174,49.66254806518555,16383.5,65535.0
13973.591388148949,347.0873107910156,220.56626892089844,-197.94656372070312,-577.8308715820312,-36.42685317993164,19.469987869262695,5.800413608551025,61.222389221191406,16383.5,65535.0
13973.591788157577,322.8287658691406,232.821044921875,-174.859130859375,-581.2681884765625,-31.126760482788086,29.232728958129883,9.683115005493164,64.88455963134766,16383.5,65535.0
13973.592188166207,287.2916564941406,237.52352905273438,-173.0008544921875,-584.7791748046875,-35.37919616699219,26.003894805908203,4.4512858390808105,61.628623962402344,16383.5,65535.0
13973.592588174837,261.6386413574219,234.22335815429688,-134.25244140625,-587.3062133789062,-45.517120361328125,16.4300479888916,-0.8610107898712158,53.940223693847656,16383.5,65535.0
13973.592988183467,262.7105712890625,223.83514404296875,-91.3293228149414,-586.9561767578125,-37.07837677001953,22.190942764282227,7.609899044036865,60.31333923339844,16383.5,65535.0
13973.593388192097,278.5638122558594,221.20521545410156,-71.8466796875,-583.2194213867188,-31.998430252075195,28.77484893798828,9.64630126953125,63.504364013671875,16383.5,65535.0
13973.593788200726,291.9516296386719,223.94189453125,-76.51439666748047,-559.4340209960938,-36.357357025146484,27.538116455078125,5.779567241668701,61.06085968017578,16383.5,65535.0
13973.594188209356,293.3481140136719,225.2393798828125,-84.54779052734375,-550.6612548828125,-31.266708374023438,30.668134689331055,8.375272750854492,63.72024917602539,16383.5,65535.0
13973.594588217986,287.6708679199219,230.9662628173828,-77.04071044921875,-545.5319213867188,-27.744112014770508,38.57700729370117,13.845279693603516,68.70451354980469,16383.5,65535.0
13973.594988226614,277.82568359375,227.15037536621094,-61.12416076660156,-538.5648803710938,-35.0873908996582,32.35481262207031,7.867530822753906,63.0720329284668,16383.5,65535.0
13973.595388235244,275.73248291015625,218.40335083007812,-84.23534393310547,-533.9613037109375,-34.53247833251953,34.92469787597656,6.2446746826171875,61.4463005065918,16383.5,65535.0
13973.595788243874,284.7326354980469,212.56871032714844,-139.09945678710938,-538.8795776367188,-32.07517623901367,34.330875396728516,10.078639030456543,65.52416229248047,16383.5,65535.0
13973.596188252504,280.73529052734375,220.2263946533203,-133.2761993408203,-539.2346801757812,-35.12971115112305,37.200523376464844,8.20697021484375,62.613399505615234,16383.5,65535.0
13973.596588261133,265.0475158691406,214.65676879882812,-92.8334732055664,-535.9161376953125,-26.003629684448242,45.53289794921875,14.630644798278809,70.1569595336914,16383.5,65535.0
13973.596988269763,271.3123474121094,218.0642547607422,-70.28411865234375,-523.7560424804688,-13.467936515808105,57.371952056884766,26.57370376586914,79.74898529052734,16383.5,65535.0
13973.597388278393,282.67822265625,223.31520080566406,-73.43335723876953,-501.7818298339844,-27.49477767944336,47.69285202026367,14.04697322845459,68.66230773925781,16383.5,65535.0
13973.597788287023,297.5135498046875,229.473876953125,-68.35389709472656,-503.35003662109375,-20.917316436767578,52.251434326171875,21.588558197021484,75.19771575927734,16383.5,65535.0
13973.598188295651,312.16558837890625,218.4291534423828,-42.13052749633789,-523.3072509765625,-9.551502227783203,69.8613510131836,31.020601272583008,88.3578872680664,16383.5,65535.0
13973.598588304281,320.49169921875,222.9330291748047,-27.816585540771484,-515.4984130859375,-20.490629196166992,61.627925872802734,20.50821876525879,79.95140075683594,16383.5,65535.0
13973.598988312911,328.8828125,230.4143829345703,-33.02069854736328,-511.4772644042969,-15.822611808776855,62.663063049316406,25.45551109313965,79.63786315917969,16383.5,65535.0
13973.599388321541,314.7543029785156,228.90145874023438,-41.04670715332031,-510.87164306640625,-15.723858833312988,68.90037536621094,29.028078079223633,83.18368530273438,16383.5,65535.0
