0,1,2,3,4,5,6,7,8,9,10
19736.01245127495,-133.03578186035156,229.9933624267578,100.97814178466797,-373.71136474609375,-18.884130477905273,47.35223388671875,22.99656105041504,76.95830535888672,206.54147338867188,65535.0
19736.0128512835,-146.38096618652344,223.71910095214844,103.65267944335938,-336.28021240234375,-24.839696884155273,39.10932159423828,15.32839298248291,70.76680755615234,216.8280029296875,65535.0
19736.013251292054,-147.38943481445312,215.92373657226562,101.31668853759766,-327.17950439453125,-21.55121421813965,43.89448928833008,15.612089157104492,73.76844787597656,204.45126342773438,65535.0
19736.013651300607,-162.02076721191406,216.77159118652344,91.27751922607422,-330.39691162109375,-21.489763259887695,46.98278045654297,17.564369201660156,71.34168243408203,203.82318115234375,65535.0
19736.01405130916,-167.27212524414062,215.19973754882812,91.5843505859375,-371.6886901855469,-11.030160903930664,60.997711181640625,30.467571258544922,86.0307846069336,215.9439239501953,65535.0
19736.01445131771,-163.53074645996094,216.25904846191406,91.87210845947266,-411.4969482421875,-20.440601348876953,52.59630584716797,19.52381134033203,74.77955627441406,203.56187438964844,65535.0
19736.014851326265,-174.1524658203125,204.23011779785156,92.91173553466797,-412.1539001464844,-9.217939376831055,66.60018920898438,33.3667106628418,88.1153335571289,197.22024536132812,65535.0
19736.01525133482,-189.310791015625,196.29173278808594,96.67341613769531,-396.4079895019531,-3.451777935028076,76.30025482177734,37.82637405395508,94.27034759521484,194.50698852539062,65535.0
19736.01565134337,-198.3018798828125,204.7743682861328,87.97940063476562,-390.1638488769531,-16.019256591796875,64.84234619140625,26.283206939697266,82.64456939697266,198.66651916503906,65535.0
19736.016051351922,-203.0970458984375,199.55569458007812,83.02497863769531,-384.92327880859375,-16.079069137573242,62.17640686035156,27.236473083496094,81.9182357788086,201.09439086914062,65535.0
19736.016451360476,-188.75204467773438,199.3218536376953,84.53289794921875,-375.39337158203125,-19.118305206298828,59.45270538330078,20.841047286987305,77.5715103149414,212.70814514160156,65535.0
19736.01685136903,-180.49383544921875,197.7552032470703,91.10309600830078,-371.4840087890625,-13.723094940185547,65.89521789550781,26.428722381591797,83.37532043457031,217.55267333984375,65535.0
19736.01725137758,-184.85557556152344,202.26095581054688,85.16744232177734,-375.7733154296875,-13.586752891540527,67.69023132324219,29.8251953125,80.7327651977539,196.9873504638672,65535.0
19736.017651386133,-193.01132202148438,194.67971801757812,87.94540405273438,-381.20562744140625,-8.11655330657959,74.92134857177734,32.95713806152344,86.88195037841797,193.4186248779297,65535.0
19736.018051394687,-186.27682495117188,203.362548828125,86.94052124023438,-385.7988586425781,-5.337367534637451,81.3612289428711,40.21637725830078,95.24266052246094,204.67544555664062,65535.0
19736.018451403237,-185.60577392578125,217.5497589111328,83.65401458740234,-426.92974853515625,-0.4150635302066803,87.22164154052734,45.019126892089844,101.20832824707031,213.0975799560547,65535.0
19736.01885141179,-213.19850158691406,212.81971740722656,91.50379943847656,-440.8403625488281,-5.854537487030029,80.28071594238281,39.56720733642578,91.6621322631836,201.81871032714844,65535.0
19736.019251420345,-241.86703491210938,219.88031005859375,85.29743194580078,-440.2776794433594,-6.407411575317383,77.15084838867188,34.02934265136719,91.0093765258789,201.72645568847656,65535.0
19736.0196514289,-239.07958984375,225.74806213378906,89.2684097290039,-406.4709167480469,-14.061028480529785,69.22392272949219,28.744449615478516,83.35802459716797,215.87571716308594,65535.0
19736.02005143745,-218.82606506347656,212.7532501220703,87.25137329101562,-375.85162353515625,-12.791614532470703,66.23717498779297,26.676179885864258,83.17974853515625,203.80349731445312,65535.0
19736.020451446002,-215.23838806152344,227.3765869140625,88.16336059570312,-382.5729675292969,-9.508257865905762,72.79144287109375,32.95188903808594,91.82003784179688,204.2570343017578,65535.0
19736.020851454556,-250.3405303955078,239.2503662109375,91.98446655273438,-399.20428466796875,-7.674651622772217,75.81265258789062,34.95269012451172,92.84546661376953,208.76783752441406,65535.0
19736.021251463106,-248.49755859375,225.9566650390625,84.92871856689453,-423.2944030761719,-17.277196884155273,63.46437454223633,24.328771591186523,79.87322235107422,207.0704345703125,65535.0
19736.02165147166,-222.7368927001953,228.53424072265625,93.82575988769531,-454.8341369628906,-9.90838623046875,63.11338424682617,29.763193130493164,83.98241424560547,217.51095581054688,65535.0
19736.022051480213,-192.00750732421875,225.09947204589844,95.17587280273438,-482.544677734375,-12.090425491333008,64.3709945678711,28.378564834594727,82.65342712402344,219.49937438964844,65535.0
19736.022451488767,-169.91102600097656,220.42575073242188,102.70632934570312,-500.1231994628906,-16.872163772583008,59.754737854003906,25.91156005859375,79.07904815673828,209.9123077392578,65535.0
19736.022851497317,-149.82647705078125,225.48309326171875,104.77537536621094,-504.15911865234375,-3.770345449447632,71.9962387084961,36.04582595825195,91.8194351196289,216.98541259765625,65535.0
19736.02325150587,-138.23831176757812,232.9000701904297,99.66108703613281,-500.08270263671875,-8.668142318725586,69.27925872802734,31.992904663085938,86.99195098876953,214.45794677734375,65535.0
19736.023651514424,-150.74725341796875,237.1812286376953,98.92578887939453,-491.05029296875,-19.08621597290039,53.947906494140625,23.143962860107422,76.79015350341797,213.1766815185547,65535.0
19736.024051522974,-171.64126586914062,246.81118774414062,99.47169494628906,-499.07421875,-15.6170015335083,55.68437957763672,26.01314353942871,79.27245330810547,221.41079711914062,65535.0
19736.024451531528,-192.29518127441406,250.82081604003906,105.20596313476562,-483.50933837890625,-6.491086483001709,62.27922439575195,31.648874282836914,85.7855224609375,211.032958984375,65535.0
19736.02485154008,-185.1573486328125,249.7189178466797,104.664794921875,-475.4063415527344,-4.750866413116455,69.00409698486328,38.48768997192383,94.59388732910156,204.76771545410156,65535.0
19736.02525154863,-180.75489807128906,244.20974731445312,106.38443756103516,-485.04559326171875,-22.257431030273438,47.59697341918945,18.46589469909668,75.54667663574219,216.4631805419922,65535.0
19736.025651557185,-189.61669921875,248.40830993652344,100.53693389892578,-520.4068603515625,-17.337648391723633,45.98701477050781,24.399587631225586,75.86088562011719,215.30564880371094,65535.0
19736.02605156574,-182.24774169921875,245.52041625976562,93.89474487304688,-536.1289672851562,-16.9458065032959,48.73872375488281,24.184879302978516,75.48898315429688,218.19374084472656,65535.0
19736.026451574293,-143.90174865722656,239.41232299804688,105.07987976074219,-503.5040588378906,-20.095966339111328,44.067771911621094,21.280929565429688,75.23284912109375,208.73472595214844,65535.0
19736.026851582843,-125.79601287841797,240.76634216308594,99.2842788696289,-437.20989990234375,-14.925966262817383,53.53718566894531,29.977447509765625,82.78226470947266,209.7390594482422,65535.0
19736.027251591397,-114.95426940917969,248.3468475341797,90.9138412475586,-396.4847412109375,-17.382429122924805,45.6182975769043,23.45489501953125,79.2881851196289,206.36630249023438,65535.0
19736.02765159995,-96.48828887939453,231.21302795410156,103.68067169189453,-393.1900329589844,-18.446916580200195,43.74917984008789,22.247392654418945,77.66020965576172,199.46096801757812,65535.0
19736.0280516085,-62.4829216003418,223.45709228515625,96.23799896240234,-396.6569519042969,-24.768178939819336,38.08637237548828,14.605369567871094,70.04324340820312,216.15660095214844,65535.0
19736.028451617054,-36.30133819580078,230.96446228027344,92.64559936523438,-381.8657531738281,-22.745197296142578,38.13554000854492,16.411439895629883,72.19463348388672,210.88401794433594,65535.0
19736.028851625608,-38.2908821105957,231.12033081054688,92.39781951904297,-381.4103698730469,-21.8900146484375,40.4634895324707,21.32071304321289,75.60590362548828,207.79672241210938,65535.0
19736.02925163416,-52.269447326660156,227.1031494140625,86.24251556396484,-388.4078369140625,-22.760604858398438,39.6196174621582,21.052919387817383,76.6588134765625,213.7547149658203,65535.0
19736.02965164271,-46.43878173828125,230.52041625976562,76.9267349243164,-408.7800598144531,-28.554210662841797,35.223541259765625,14.231488227844238,70.35059356689453,199.810791015625,65535.0
19736.030051651265,-35.15763854980469,223.77561950683594,83.9286880493164,-436.04833984375,-33.33835220336914,29.570287704467773,8.508244514465332,63.60165023803711,216.94158935546875,65535.0
19736.03045165982,-26.160951614379883,220.27139282226562,81.28919982910156,-453.3885192871094,-17.156147003173828,42.08940124511719,22.12664794921875,78.35266876220703,200.50045776367188,65535.0
19736.03085166837,-17.652040481567383,220.04830932617188,81.91851806640625,-464.9553527832031,-19.199871063232422,49.527164459228516,23.428176879882812,79.84551239013672,212.54986572265625,65535.0
19736.031251676923,-13.892704963684082,219.89208984375,86.7034912109375,-497.0605163574219,-26.491989135742188,42.163448333740234,16.469892501831055,74.62555694580078,222.64089965820312,65535.0
19736.031651685476,-39.179317474365234,224.1370086669922,83.05927276611328,-545.0399169921875,-15.961386680603027,48.45165252685547,21.351667404174805,80.53406524658203,208.9160614013672,65535.0
19736.03205169403,-55.61316680908203,225.04666137695312,87.57019805908203,-557.0050048828125,-9.108861923217773,57.61894989013672,28.55964469909668,85.31745147705078,216.26873779296875,65535.0
19736.03245170258,-83.85200500488281,228.0674591064453,75.22314453125,-532.3073120117188,-26.747390747070312,41.11872100830078,12.919450759887695,68.44950103759766,221.68605041503906,65535.0
19736.032851711134,-106.56563568115234,220.5223388671875,74.8580551147461,-511.1231689453125,-19.484235763549805,49.497982025146484,22.58906364440918,77.92864227294922,206.0009765625,65535.0
19736.033251719688,-125.39369201660156,209.27975463867188,82.76868438720703,-457.9566650390625,-14.319488525390625,58.12565994262695,28.602689743041992,84.49159240722656,206.5889434814453,65535.0
19736.033651728238,-153.30227661132812,212.01202392578125,85.33883666992188,-403.72509765625,-9.703824996948242,60.931819915771484,30.347881317138672,87.69825744628906,218.6981201171875,65535.0
19736.03405173679,-167.06961059570312,204.71434020996094,81.17098236083984,-384.4353942871094,-14.333226203918457,59.89551544189453,25.649337768554688,82.80453491210938,216.17294311523438,65535.0
19736.034451745345,-180.01507568359375,210.6685028076172,75.54476165771484,-368.4234924316406,-15.850217819213867,57.34334945678711,26.063722610473633,80.57357025146484,216.28207397460938,65535.0
19736.0348517539,-193.37954711914062,205.38145446777344,70.02163696289062,-344.0665283203125,-0.6860954761505127,75.45806884765625,39.885189056396484,94.92619323730469,210.46023559570312,65535.0
19736.03525176245,-183.47389221191406,202.05552673339844,68.24513244628906,-321.6484680175781,-13.118260383605957,66.89506530761719,28.368600845336914,83.31558990478516,206.15672302246094,65535.0
19736.035651771002,-144.20108032226562,197.3780517578125,66.46831512451172,-316.02655029296875,-13.751059532165527,65.79118347167969,27.910152435302734,84.234375,215.011962890625,65535.0
19736.036051779556,-81.16032409667969,191.84652709960938,65.6221694946289,-310.3451843261719,-10.555765151977539,69.13143920898438,32.16057586669922,87.14151763916016,215.946533203125,65535.0
19736.036451788106,-51.72557830810547,187.6542205810547,68.93518829345703,-306.85400390625,-8.87572956085205,72.38322448730469,33.34517288208008,87.25386810302734,203.14984130859375,65535.0
19736.03685179666,-51.82602310180664,192.7786865234375,63.76808547973633,-312.6254577636719,-4.251017093658447,80.76891326904297,40.29460906982422,94.30374908447266,202.66505432128906,65535.0
19736.037251805214,-51.647804260253906,182.7682647705078,59.50695037841797,-330.8487548828125,-9.13783073425293,75.86019134521484,34.55730438232422,88.2440414428711,215.14617919921875,65535.0
19736.037651813767,-49.014739990234375,188.5336456298828,67.3226318359375,-358.4914855957031,3.1688783168792725,90.52017974853516,43.883663177490234,98.4144287109375,214.05332946777344,65535.0
19736.038051822317,-58.06150817871094,194.2008056640625,75.94884490966797,-374.6915283203125,-8.57336139678955,79.41133880615234,35.33674621582031,87.09674072265625,216.43359375,65535.0
19736.03845183087,-52.853240966796875,187.26124572753906,72.05827331542969,-385.6319580078125,-8.304580688476562,78.05821228027344,32.63142776489258,88.96797943115234,217.98199462890625,65535.0
19736.038851839425,-37.01131057739258,195.38555908203125,74.25938415527344,-390.4739685058594,-0.01409812644124031,83.83744812011719,39.157222747802734,94.78173828125,213.02114868164062,65535.0
19736.039251847975,-38.71621322631836,205.51214599609375,80.65987396240234,-387.5016174316406,-2.884077548980713,81.74727630615234,36.81004333496094,89.81159210205078,204.969482421875,65535.0
19736.03965185653,-54.938323974609375,199.30123901367188,85.87039184570312,-382.2370300292969,-7.412598609924316,81.19351196289062,34.178955078125,90.17743682861328,199.74240112304688,65535.0
19736.040051865082,-65.51802825927734,203.18771362304688,86.84695434570312,-367.8020935058594,-19.35411262512207,68.3379135131836,25.774139404296875,79.24799346923828,216.15261840820312,65535.0
19736.040451873636,-70.02281951904297,208.90892028808594,83.1827392578125,-359.3838195800781,-6.07194709777832,77.33318328857422,38.3113899230957,90.18065643310547,210.8074951171875,65535.0
19736.040851882186,-93.34156036376953,209.29055786132812,74.64289855957031,-372.90191650390625,-10.413568496704102,74.5665283203125,30.946914672851562,86.4554672241211,211.1580352783203,65535.0
19736.04125189074,-124.80496978759766,212.92982482910156,80.72759246826172,-370.47314453125,-20.773160934448242,59.49363327026367,17.73121452331543,75.23688507080078,204.0701904296875,65535.0
19736.041651899293,-140.91737365722656,203.67893981933594,84.5443115234375,-372.0184326171875,-15.97620677947998,63.9356575012207,24.921253204345703,78.82211303710938,204.72523498535156,65535.0
19736.042051907843,-155.76873779296875,199.0443572998047,76.02874755859375,-342.5716247558594,-11.633828163146973,73.3669204711914,30.461078643798828,87.130859375,213.19834899902344,65535.0
19736.042451916397,-164.61746215820312,198.79380798339844,76.61749267578125,-307.3347473144531,-6.480452060699463,77.45117950439453,35.15734100341797,90.97948455810547,207.6006622314453,65535.0
19736.04285192495,-158.05845642089844,205.34780883789062,86.81462860107422,-295.7873840332031,-9.403160095214844,70.48332977294922,30.525177001953125,85.15351867675781,203.06649780273438,65535.0
19736.043251933505,-163.30580139160156,205.13424682617188,90.83861541748047,-279.5088195800781,-10.802647590637207,66.50325012207031,29.524599075317383,87.38813781738281,206.72052001953125,65535.0
19736.043651942055,-170.4585418701172,208.2769012451172,90.41744232177734,-274.2503967285156,-12.08798599243164,67.25883483886719,30.892606735229492,86.80854797363281,216.6841583251953,65535.0
19736.04405195061,-190.96340942382812,209.70152282714844,88.69294738769531,-294.6756896972656,-5.729595184326172,74.27921295166016,33.981048583984375,91.3051528930664,198.8848419189453,65535.0
19736.044451959162,-206.55067443847656,212.00592041015625,88.04704284667969,-318.23101806640625,-4.295435905456543,73.2763671875,35.600189208984375,91.22632598876953,206.678466796875,65535.0
19736.044851967712,-196.35064697265625,212.15386962890625,91.78370666503906,-342.433349609375,-18.36483383178711,58.29157257080078,23.08909797668457,77.63397979736328,209.66897583007812,65535.0
19736.045251976266,-196.86656188964844,217.21263122558594,97.6686019897461,-356.77557373046875,-13.196542739868164,58.24571228027344,26.736190795898438,83.52237701416016,199.919921875,65535.0
19736.04565198482,-220.37681579589844,214.08035278320312,92.7917251586914,-398.8002014160156,-27.16312599182129,41.429351806640625,14.618077278137207,68.74822998046875,196.58180236816406,65535.0
19736.046051993373,-247.60919189453125,211.36453247070312,94.20413208007812,-416.0119934082031,-25.876792907714844,37.878108978271484,14.039948463439941,67.61019134521484,219.51239013671875,65535.0
19736.046452001923,-257.9483947753906,225.4761505126953,99.78333282470703,-410.79852294921875,-21.95734977722168,44.117008209228516,18.81932258605957,72.37641143798828,196.99752807617188,65535.0
19736.046852010477,-255.25181579589844,223.64280700683594,93.02110290527344,-415.3724365234375,-26.94183921813965,38.89653015136719,15.502756118774414,69.50508117675781,209.58544921875,65535.0
19736.04725201903,-264.7122497558594,232.8563690185547,93.24589538574219,-405.61077880859375,-29.021018981933594,33.676204681396484,14.900091171264648,65.37236022949219,213.5822296142578,65535.0
19736.04765202758,-267.6960144042969,221.56927490234375,90.93682098388672,-397.4260559082031,-30.385467529296875,34.792789459228516,15.096081733703613,66.4069595336914,203.35821533203125,65535.0
19736.048052036134,-251.4257354736328,211.45849609375,88.97318267822266,-373.4576416015625,-37.16087341308594,24.14544677734375,6.342023849487305,60.83875274658203,212.26856994628906,65535.0
19736.048452044688,-224.83145141601562,214.77491760253906,88.21267700195312,-371.6637268066406,-31.149152755737305,32.29032516479492,11.743367195129395,66.2430191040039,210.1042022705078,65535.0
19736.04885205324,-209.34912109375,211.1775360107422,97.11318969726562,-380.8600769042969,-28.42361068725586,35.08742904663086,14.121295928955078,68.54190063476562,202.1728057861328,65535.0
19736.04925206179,-216.19552612304688,209.60403442382812,97.48217010498047,-383.2626037597656,-28.056020736694336,32.98707962036133,13.494068145751953,66.55888366699219,205.79653930664062,65535.0
19736.049652070345,-225.84335327148438,220.5192413330078,92.38099670410156,-395.48260498046875,-30.249004364013672,31.06876564025879,11.837923049926758,63.736167907714844,197.13360595703125,65535.0
19736.0500520789,-227.41416931152344,212.2686767578125,81.36298370361328,-419.7575988769531,-23.348098754882812,40.81843948364258,16.735309600830078,71.64344024658203,215.51522827148438,65535.0
19736.05045208745,-236.02691650390625,210.7535858154297,76.6158447265625,-471.79083251953125,-17.03887367248535,52.54007339477539,24.943225860595703,82.94072723388672,205.46463012695312,65535.0
19736.050852096003,-227.466796875,219.6417694091797,79.36792755126953,-511.2734069824219,-33.3875617980957,34.43922424316406,7.306476593017578,64.39213562011719,202.43116760253906,65535.0
19736.051252104557,-218.01609802246094,210.12086486816406,69.17137145996094,-512.228759765625,-23.39751625061035,41.40159606933594,15.807452201843262,72.1789321899414,212.2406005859375,65535.0
19736.05165211311,-221.3267364501953,214.01095581054688,72.41637420654297,-499.0151672363281,-16.248987197875977,51.88453674316406,27.437673568725586,80.30728149414062,192.74488830566406,65535.0
19736.05205212166,-214.58656311035156,210.56642150878906,82.1388168334961,-488.319091796875,-29.70548439025879,40.827266693115234,14.637663841247559,66.21669006347656,196.21310424804688,65535.0
19736.052452130214,-221.53810119628906,208.02749633789062,77.86286926269531,-460.58258056640625,-25.80635643005371,45.57235336303711,17.382795333862305,74.64930725097656,197.97061157226562,65535.0
19736.052852138768,-221.1448974609375,213.1392822265625,65.97457122802734,-405.99725341796875,-15.634782791137695,55.404483795166016,25.96685028076172,78.47222137451172,200.76123046875,65535.0
19736.053252147318,-215.37574768066406,217.51553344726562,70.6628189086914,-393.90692138671875,-17.44567108154297,53.062286376953125,23.204090118408203,77.63823699951172,190.35398864746094,65535.0
19736.05365215587,-202.643798828125,214.04298400878906,59.752994537353516,-396.41070556640625,-17.48640251159668,55.10503387451172,21.746097564697266,78.98125457763672,215.34222412109375,65535.0
19736.054052164425,-193.80650329589844,216.53271484375,69.79867553710938,-372.5965881347656,-10.505672454833984,64.68891906738281,31.573732376098633,84.25379943847656,217.430908203125,65535.0
19736.05445217298,-178.88381958007812,196.61871337890625,65.4935302734375,-346.27117919921875,3.163450002670288,79.32115936279297,44.8310432434082,100.47280883789062,204.08596801757812,65535.0
19736.05485218153,-162.08944702148438,196.1312713623047,56.48497009277344,-340.0091552734375,-2.0925965309143066,80.38650512695312,38.823936462402344,96.5128402709961,205.52906799316406,65535.0
19736.055252190083,-178.4363555908203,189.64932250976562,60.6258544921875,-352.4745788574219,-9.773576736450195,66.88676452636719,28.933391571044922,82.81273651123047,201.70358276367188,65535.0
19736.055652198636,-207.4683837890625,188.86410522460938,68.93819427490234,-370.04254150390625,11.286229133605957,89.04206085205078,47.16732406616211,104.6719970703125,197.19741821289062,65535.0
19736.056052207186,-244.9908447265625,185.3287811279297,69.50279998779297,-389.37841796875,5.920400619506836,90.31136322021484,46.95271301269531,101.3833999633789,206.3818817138672,65535.0
19736.05645221574,-242.28131103515625,173.62904357910156,61.64231491088867,-385.0401611328125,-6.18297004699707,79.2205581665039,33.7543830871582,90.72731018066406,204.4141845703125,65535.0
19736.056852224294,-231.11488342285156,179.7299041748047,57.7769889831543,-390.7704162597656,-8.177469253540039,75.25055694580078,30.308204650878906,84.91654205322266,204.14064025878906,65535.0
19736.057252232848,-208.43118286132812,181.1892852783203,54.64065933227539,-383.5749206542969,0.06649048626422882,84.9636001586914,38.76289749145508,94.34785461425781,201.80426025390625,65535.0
19736.057652241398,-203.730224609375,177.93307495117188,56.21310043334961,-353.16485595703125,2.3396921157836914,87.7972183227539,44.31992721557617,99.42923736572266,212.3442840576172,65535.0
19736.05805224995,-208.22698974609375,191.35897827148438,61.34944534301758,-298.7107238769531,3.1476681232452393,92.68267822265625,46.12859344482422,99.38394927978516,202.739013671875,65535.0
19736.058452258505,-216.7115936279297,194.32174682617188,67.95133209228516,-266.8869323730469,3.628948926925659,93.07838439941406,45.16053771972656,99.57373809814453,197.31820678710938,65535.0
19736.058852267055,-203.85340881347656,197.00755310058594,74.21308135986328,-273.5149841308594,11.530599594116211,102.90164947509766,51.81856155395508,108.63591766357422,203.71139526367188,65535.0
19736.05925227561,-189.53683471679688,205.34378051757812,84.23878479003906,-295.3755798339844,5.2538886070251465,95.7352066040039,47.81869125366211,101.95677185058594,207.32745361328125,65535.0
19736.059652284162,-174.6859893798828,204.60958862304688,66.78858947753906,-309.6288146972656,-2.921412229537964,86.03289794921875,38.02008819580078,94.73202514648438,200.8118896484375,65535.0
19736.060052292716,-170.73931884765625,202.724609375,75.04219818115234,-320.2135009765625,-0.861339807510376,86.03300476074219,40.552005767822266,94.14016723632812,212.67123413085938,65535.0
19736.060452301266,-190.0245819091797,218.08828735351562,82.489013671875,-314.6972351074219,-14.509684562683105,71.95313262939453,27.00493812561035,81.3951644897461,205.12892150878906,65535.0
19736.06085230982,-208.0810089111328,217.19189453125,80.3282241821289,-329.76727294921875,-10.267471313476562,73.67925262451172,32.164466857910156,89.71073150634766,208.55157470703125,65535.0
19736.061252318374,-208.07350158691406,215.54379272460938,89.40074920654297,-358.7402648925781,-0.6952886581420898,85.0999984741211,40.29933547973633,99.03522491455078,194.3788299560547,65535.0
19736.061652326924,-207.09747314453125,210.93130493164062,80.61109924316406,-382.8003234863281,-8.353096008300781,74.41873931884766,31.1130313873291,87.89483642578125,190.91708374023438,65535.0
19736.062052335477,-173.069091796875,217.13621520996094,76.60794067382812,-391.87255859375,0.5745234489440918,85.85131072998047,44.95159912109375,98.40705871582031,205.33160400390625,65535.0
19736.06245234403,-149.77394104003906,223.66717529296875,78.8764877319336,-387.688232421875,1.91693115234375,88.3270034790039,45.94328689575195,100.8650131225586,201.3990936279297,65535.0
19736.062852352585,-137.3068389892578,208.61734008789062,77.14847564697266,-376.7738952636719,6.468912601470947,87.93162536621094,45.514923095703125,102.4473648071289,194.45352172851562,65535.0
19736.063252361135,-129.73431396484375,213.55421447753906,80.64903259277344,-366.05975341796875,-11.939020156860352,66.85588073730469,29.849544525146484,84.72527313232422,205.24066162109375,65535.0
19736.06365236969,-124.70403289794922,218.78195190429688,83.06682586669922,-368.4970703125,-3.497483253479004,75.11014556884766,37.795047760009766,92.1613998413086,205.62451171875,65535.0
19736.064052378242,-130.55369567871094,215.92396545410156,83.12755584716797,-370.9437255859375,-3.414780855178833,75.3670883178711,35.68858337402344,93.07625579833984,197.69894409179688,65535.0
19736.064452386792,-135.80543518066406,215.03648376464844,80.80806732177734,-362.7964782714844,-3.252466917037964,69.9950942993164,35.47996139526367,90.44709777832031,194.44821166992188,65535.0
19736.064852395346,-145.49203491210938,224.76031494140625,85.85520935058594,-321.7281494140625,-1.1768531799316406,73.06175231933594,36.009124755859375,88.462158203125,215.86874389648438,65535.0
19736.0652524039,-147.55288696289062,220.15444946289062,92.32909393310547,-302.2661437988281,-7.461877822875977,63.328060150146484,32.174415588378906,85.80545043945312,207.7869415283203,65535.0
19736.065652412453,-149.60362243652344,219.89402770996094,80.6764144897461,-294.0035095214844,-14.810965538024902,56.13154983520508,26.157846450805664,79.15399932861328,203.26516723632812,65535.0
19736.066052421003,-150.10989379882812,215.93637084960938,91.34394073486328,-302.26483154296875,-18.408084869384766,50.58438491821289,22.970962524414062,77.50788879394531,197.89942932128906,65535.0
19736.066452429557,-148.2459716796875,227.58702087402344,90.30487823486328,-314.0126037597656,-10.945493698120117,58.991886138916016,30.02272605895996,85.25727081298828,195.56663513183594,65535.0
19736.06685243811,-136.69158935546875,230.14720153808594,82.31768798828125,-344.57110595703125,-17.34087562561035,48.35221862792969,24.03260040283203,76.77528381347656,215.97373962402344,65535.0
19736.06725244666,-140.30564880371094,227.4373321533203,87.02375793457031,-385.95086669921875,-19.468849182128906,44.67658233642578,20.656749725341797,75.34366607666016,200.73939514160156,65535.0
19736.067652455215,-146.0609893798828,225.62643432617188,71.98722839355469,-417.9603576660156,-16.37653160095215,46.385154724121094,22.12956428527832,76.93518829345703,199.83775329589844,65535.0
19736.06805246377,-154.42593383789062,213.65806579589844,81.00576782226562,-406.0833435058594,-14.763470649719238,48.33629608154297,25.586166381835938,83.01605987548828,191.9001922607422,65535.0
19736.068452472322,-161.40867614746094,204.6450653076172,86.7750015258789,-375.8637390136719,-20.743200302124023,43.041778564453125,22.63419532775879,76.22459411621094,195.5353240966797,65535.0
19736.068852480872,-163.8702392578125,220.28311157226562,86.36355590820312,-355.5139465332031,-14.355491638183594,48.4609375,26.60641860961914,80.81623077392578,188.85861206054688,65535.0
19736.069252489426,-161.603515625,218.664306640625,86.55978393554688,-336.8556823730469,-7.994806289672852,54.756290435791016,30.833189010620117,85.67227172851562,204.50698852539062,65535.0
19736.06965249798,-165.16380310058594,212.964599609375,76.62679290771484,-343.6247863769531,-19.706960678100586,43.19917678833008,22.23590660095215,74.74382019042969,203.55392456054688,65535.0
19736.07005250653,-173.81207275390625,224.2332763671875,70.1390609741211,-334.3937072753906,-21.077720642089844,44.818748474121094,21.265411376953125,76.35078430175781,206.0067138671875,65535.0
19736.070452515083,-187.3870391845703,230.04876708984375,76.00811004638672,-314.33868408203125,-23.647432327270508,39.887420654296875,16.125389099121094,71.70417785644531,197.50677490234375,65535.0
19736.070852523637,-190.3836669921875,236.2646942138672,76.2435302734375,-311.49200439453125,-25.3570556640625,37.08711242675781,15.093193054199219,71.54560089111328,208.6881866455078,65535.0
19736.07125253219,-177.18035888671875,232.93133544921875,79.18029022216797,-323.9571838378906,-11.239856719970703,55.48842239379883,29.613332748413086,83.76285552978516,205.62913513183594,65535.0
19736.07165254074,-185.29673767089844,226.70730590820312,68.04467010498047,-304.8393249511719,-18.346763610839844,49.74711990356445,24.246252059936523,79.10224914550781,201.46983337402344,65535.0
19736.072052549294,-184.2659149169922,233.2548065185547,63.7066535949707,-287.4073791503906,-15.097612380981445,51.982749938964844,25.500850677490234,83.43444061279297,210.69264221191406,65535.0
19736.072452557848,-191.67080688476562,214.2130889892578,67.63575744628906,-279.43487548828125,-16.594501495361328,55.368690490722656,27.442819595336914,81.30921936035156,204.76425170898438,65535.0
19736.072852566398,-194.8944091796875,216.32810974121094,69.04338073730469,-302.798095703125,-17.62018585205078,53.429412841796875,26.03944206237793,79.05968475341797,199.6546173095703,65535.0
19736.07325257495,-186.96054077148438,223.795166015625,68.26163482666016,-325.57354736328125,-10.933064460754395,60.4802360534668,30.627384185791016,86.88492584228516,199.3804168701172,65535.0
19736.073652583505,-184.91380310058594,221.56448364257812,67.11721801757812,-318.8334045410156,-12.787261009216309,59.63435363769531,27.76677131652832,80.54913330078125,204.62191772460938,65535.0
19736.07405259206,-183.4944305419922,226.51004028320312,70.68287658691406,-325.1799011230469,-11.841459274291992,59.97315979003906,27.00556182861328,84.5263671875,208.71217346191406,65535.0
19736.07445260061,-194.06454467773438,213.9415283203125,60.74726486206055,-349.43426513671875,-15.330849647521973,59.50727844238281,27.691301345825195,82.9333724975586,212.69036865234375,65535.0
19736.074852609163,-224.0901641845703,209.83212280273438,55.135833740234375,-364.20404052734375,-13.464838981628418,59.171051025390625,27.39971351623535,80.07676696777344,204.68312072753906,65535.0
19736.075252617717,-232.23779296875,217.97630310058594,64.55825805664062,-362.3011474609375,-9.126575469970703,68.10791015625,30.230266571044922,86.24407196044922,196.8918914794922,65535.0
19736.075652626267,-173.7524871826172,216.26788330078125,61.84358215332031,-395.4674072265625,-6.18277645111084,74.18264770507812,34.12104415893555,93.36266326904297,209.37289428710938,65535.0
19736.07605263482,-137.171142578125,219.66427612304688,75.0274429321289,-456.2923889160156,-13.470860481262207,63.56919860839844,26.957910537719727,82.247802734375,207.8466339111328,65535.0
19736.076452643374,-145.3899688720703,221.3366241455078,83.56073760986328,-519.7459106445312,-5.174060821533203,74.86315155029297,36.5987434387207,92.04243469238281,207.59991455078125,65535.0
19736.076852651928,-174.31549072265625,213.8572235107422,76.41121673583984,-567.5093994140625,2.181462287902832,87.04110717773438,42.21531295776367,99.81261444091797,205.17437744140625,65535.0
19736.077252660478,-187.93450927734375,214.64535522460938,83.23804473876953,-563.500244140625,-8.893451690673828,76.07970428466797,32.213871002197266,86.33769989013672,194.94822692871094,65535.0
19736.07765266903,-206.22377014160156,219.70240783691406,72.19549560546875,-533.5547485351562,-6.250061988830566,77.65901184082031,35.29542541503906,89.9263687133789,197.79469299316406,65535.0
19736.078052677585,-216.5429229736328,221.01129150390625,64.70963287353516,-448.1636657714844,-5.96375036239624,78.50895690917969,38.18316650390625,89.79133605957031,195.47335815429688,65535.0
19736.078452686135,-220.57122802734375,216.71754455566406,67.9229736328125,-334.9708251953125,-6.5882954597473145,75.90572357177734,34.53872299194336,89.02413177490234,196.8638153076172,65535.0
19736.07885269469,-198.06973266601562,223.2211151123047,64.5844497680664,-233.06361389160156,-9.639848709106445,73.77892303466797,32.37324905395508,89.0849609375,201.63722229003906,65535.0
19736.079252703243,-167.2410888671875,224.36732482910156,64.33843994140625,-177.74302673339844,-5.919840335845947,77.43997955322266,34.09114456176758,90.13243103027344,209.38833618164062,65535.0
19736.079652711796,-168.18675231933594,228.3960418701172,67.52864074707031,-181.19647216796875,-5.715819358825684,74.85195922851562,34.826229095458984,89.01636505126953,203.52574157714844,65535.0
19736.080052720346,-161.85523986816406,229.13345336914062,74.42439270019531,-180.2807159423828,-3.3563194274902344,78.04353332519531,38.626277923583984,91.1536636352539,192.95584106445312,65535.0
19736.0804527289,-153.43650817871094,227.42758178710938,77.21646118164062,-180.41506958007812,-1.0905141830444336,81.87010192871094,39.43580627441406,95.9296875,194.893310546875,65535.0
19736.080852737454,-157.74339294433594,230.6842803955078,77.09790802001953,-232.635009765625,-3.9805004596710205,80.6918716430664,39.1489143371582,93.80065155029297,196.92062377929688,65535.0
19736.081252746004,-168.3030548095703,225.75973510742188,78.53105926513672,-291.0936279296875,-10.495599746704102,70.0850601196289,31.608179092407227,85.30634307861328,197.5691680908203,65535.0
19736.081652754558,-175.728271484375,229.24417114257812,74.94182586669922,-317.4810485839844,-10.866647720336914,72.0708999633789,31.668407440185547,85.85661315917969,199.98965454101562,65535.0
19736.08205276311,-156.79766845703125,217.78155517578125,76.2804183959961,-331.31085205078125,-16.648855209350586,62.47822952270508,24.71316146850586,80.0101547241211,215.44058227539062,65535.0
19736.08245277166,-125.16168975830078,225.82911682128906,74.42713928222656,-342.765869140625,-18.202898025512695,61.036651611328125,27.162473678588867,81.848388671875,205.33848571777344,65535.0
19736.082852780215,-119.17420196533203,231.23570251464844,66.74967956542969,-344.2949523925781,-23.098251342773438,53.36420822143555,18.38433837890625,75.08837890625,214.64382934570312,65535.0
19736.08325278877,-137.4049835205078,228.8659210205078,66.82634735107422,-322.2799377441406,-13.411505699157715,64.9762954711914,26.835926055908203,81.1109390258789,209.6896209716797,65535.0
19736.083652797322,-124.74091339111328,238.46429443359375,86.44280242919922,-304.5613708496094,-20.40154266357422,53.43836975097656,20.596134185791016,73.72047424316406,206.98081970214844,65535.0
19736.084052805872,-101.53375244140625,233.26480102539062,111.00350952148438,-315.5596618652344,-17.29766273498535,53.175411224365234,21.71508026123047,80.3924789428711,200.4312744140625,65535.0
19736.084452814426,-97.25725555419922,236.24896240234375,90.55592346191406,-335.5577392578125,-8.870323181152344,63.44023513793945,32.13899612426758,86.15339660644531,199.0970458984375,65535.0
19736.08485282298,-113.23046875,248.0224151611328,97.525390625,-365.1115417480469,-20.147262573242188,54.8125114440918,22.237091064453125,80.2914047241211,209.32928466796875,65535.0
19736.08525283153,-134.18753051757812,251.20924377441406,99.78022766113281,-385.4615173339844,-15.097307205200195,55.72766876220703,25.319320678710938,82.50796508789062,205.42291259765625,65535.0
19736.085652840084,-132.64488220214844,251.49559020996094,91.0522232055664,-364.82281494140625,-10.158646583557129,59.54759216308594,30.737031936645508,84.88311767578125,216.3948974609375,65535.0
19736.086052848637,-131.04908752441406,246.97000122070312,90.95491790771484,-317.568115234375,-19.194961547851562,49.499420166015625,21.56463623046875,77.03738403320312,202.33274841308594,65535.0
19736.08645285719,-146.60755920410156,253.03289794921875,93.32550811767578,-269.5425720214844,-22.087242126464844,45.22658157348633,21.713693618774414,76.25733184814453,201.00830078125,65535.0
19736.08685286574,-148.53697204589844,244.97401428222656,94.05352020263672,-269.6414489746094,-24.036699295043945,41.87910842895508,16.152099609375,69.9716796875,207.0244140625,65535.0
19736.087252874295,-127.56505584716797,252.62428283691406,87.90348052978516,-272.4843444824219,-21.193281173706055,41.691070556640625,21.50572967529297,74.64529418945312,215.04727172851562,65535.0
19736.08765288285,-107.8175277709961,247.9034423828125,86.0927963256836,-279.091064453125,-25.037567138671875,35.898345947265625,16.17739486694336,69.45929718017578,211.8790283203125,65535.0
19736.0880528914,-131.73880004882812,235.31549072265625,93.64246368408203,-280.53057861328125,-21.064613342285156,40.82033157348633,18.49629783630371,74.89102935791016,203.8223419189453,65535.0
19736.088452899952,-155.27830505371094,233.84986877441406,96.42918395996094,-288.6263122558594,-21.150310516357422,43.844974517822266,21.141992568969727,75.89402770996094,214.7379608154297,65535.0
19736.088852908506,-160.00914001464844,229.5655517578125,89.51300811767578,-304.4956970214844,-18.89903450012207,46.94804382324219,24.34278106689453,78.59747314453125,202.03302001953125,65535.0
19736.08925291706,-142.27503967285156,227.56326293945312,98.01546478271484,-301.0461730957031,-21.457143783569336,43.5987663269043,20.5422306060791,76.28467559814453,191.79598999023438,65535.0
19736.08965292561,-108.49060821533203,233.28599548339844,92.51589965820312,-311.6388244628906,-22.631370544433594,39.57426071166992,19.670055389404297,74.36515045166016,209.9846649169922,65535.0
19736.090052934163,-98.50213623046875,229.5009002685547,89.56047821044922,-361.43450927734375,-17.92837142944336,47.87274169921875,25.411945343017578,77.5300064086914,224.51380920410156,65535.0
19736.090452942717,-106.39443969726562,231.33474731445312,91.15240478515625,-381.2240905761719,-27.583600997924805,37.517887115478516,14.422723770141602,69.79113006591797,212.0526885986328,65535.0
19736.090852951267,-101.3819808959961,220.7357940673828,92.94100189208984,-363.8210144042969,-29.765331268310547,29.358484268188477,9.80146312713623,64.8858413696289,202.21165466308594,65535.0
19736.09125295982,-110.38373565673828,208.0489959716797,89.65365600585938,-324.0715637207031,-18.68619728088379,43.63267135620117,21.87474822998047,75.40032196044922,202.1728973388672,65535.0
19736.091652968375,-118.48845672607422,218.97862243652344,76.04652404785156,-304.2735900878906,-20.488550186157227,50.54277420043945,24.752962112426758,78.02244567871094,203.80429077148438,65535.0
19736.09205297693,-127.67123413085938,230.60379028320312,79.07396697998047,-309.2377014160156,-20.73516845703125,46.393798828125,20.397314071655273,75.9386215209961,209.433349609375,65535.0
19736.09245298548,-125.06605529785156,219.8779754638672,82.3797607421875,-296.4837341308594,-12.02247428894043,57.29559326171875,34.60249710083008,86.4449462890625,212.34774780273438,65535.0
19736.092852994032,-135.44874572753906,220.78329467773438,71.52928161621094,-277.3846740722656,-19.987262725830078,50.68743896484375,22.24623680114746,76.56739044189453,206.85287475585938,65535.0
19736.093253002586,-133.37332153320312,225.58944702148438,72.6636734008789,-270.0947570800781,-13.927539825439453,56.31358337402344,25.31920051574707,80.67176055908203,216.14315795898438,65535.0
19736.093653011136,-118.66874694824219,223.58193969726562,80.24591064453125,-260.67791748046875,-20.131603240966797,53.228023529052734,21.76567268371582,77.15080261230469,212.8461151123047,65535.0
19736.09405301969,-105.61617279052734,228.54725646972656,83.32107543945312,-234.8643035888672,-16.91551399230957,57.0135612487793,25.37413787841797,79.3346176147461,202.25270080566406,65535.0
19736.094453028243,-102.9124526977539,229.3679962158203,83.6492919921875,-243.02760314941406,-17.69249153137207,55.2603759765625,26.089609146118164,79.52835845947266,207.0928192138672,65535.0
19736.094853036797,-118.0925064086914,237.9761962890625,82.2516860961914,-266.2548522949219,-19.53682518005371,54.88604736328125,22.917118072509766,77.37252807617188,204.00271606445312,65535.0
19736.095253045347,-122.18334197998047,225.59347534179688,80.29315948486328,-263.895263671875,-18.008121490478516,60.04381561279297,21.47455596923828,78.39640045166016,206.47772216796875,65535.0
19736.0956530539,-102.61091613769531,216.9475860595703,80.23334503173828,-242.36886596679688,-12.74172592163086,68.83255767822266,29.904279708862305,84.47897338867188,212.07330322265625,65535.0
19736.096053062454,-103.48845672607422,232.72589111328125,70.08519744873047,-250.7549591064453,-8.399141311645508,70.17426300048828,31.156721115112305,85.48261260986328,204.51556396484375,65535.0
19736.096453071004,-116.54145050048828,230.04885864257812,68.48388671875,-219.92637634277344,-11.789490699768066,64.6167984008789,28.136249542236328,85.1124496459961,204.88819885253906,65535.0
19736.096853079558,-127.8095474243164,218.4987030029297,71.78043365478516,-171.48316955566406,-3.652359962463379,77.5902099609375,34.37822341918945,91.66133880615234,213.49639892578125,65535.0
19736.09725308811,-139.7725830078125,227.07861328125,55.07201385498047,-117.54486846923828,-0.5684686899185181,87.39972686767578,40.36777877807617,96.32563018798828,207.43629455566406,65535.0
19736.097653096665,-133.9398956298828,226.21807861328125,71.9508285522461,-57.71550369262695,0.7256500720977783,89.48375701904297,44.287109375,98.2716064453125,216.33261108398438,65535.0
19736.098053105216,-125.5499038696289,232.89505004882812,71.39112854003906,-15.091556549072266,2.9240493774414062,90.63944244384766,44.94038009643555,100.0160903930664,211.78646850585938,65535.0
19736.09845311377,-117.05989837646484,233.97413635253906,71.74108123779297,-5.15513277053833,2.317171096801758,90.069580078125,45.40802764892578,102.38958740234375,216.9828643798828,65535.0
19736.098853122323,-122.1878433227539,239.94232177734375,79.61259460449219,-2.7226555347442627,-6.774602890014648,80.00753784179688,36.460777282714844,93.4506607055664,219.582275390625,65535.0
19736.099253130873,-138.20138549804688,236.03628540039062,78.50497436523438,-12.972249031066895,5.483063697814941,90.34135437011719,47.43210983276367,100.98262786865234,191.6685791015625,65535.0
19736.099653139427,-137.7611083984375,234.0292510986328,84.25676727294922,-14.0204439163208,2.5866849422454834,89.61107635498047,45.158302307128906,99.0003890991211,193.48289489746094,65535.0
19736.10005314798,-135.89971923828125,231.24317932128906,78.92150115966797,-30.715505599975586,5.404664993286133,88.51071166992188,45.34609603881836,102.8294448852539,211.36614990234375,65535.0
19736.100453156534,-114.94593048095703,229.83338928222656,77.0518798828125,-62.706817626953125,-0.7645653486251831,81.31819915771484,41.71443557739258,96.6747055053711,211.33248901367188,65535.0
19736.100853165084,-86.94024658203125,234.98086547851562,75.56990814208984,-135.309326171875,-9.632244110107422,69.7632827758789,31.179405212402344,83.83606719970703,205.37171936035156,65535.0
19736.101253173638,-84.00521850585938,246.06785583496094,75.91716766357422,-218.25205993652344,-9.681941986083984,67.10140991210938,30.154447555541992,84.41716766357422,205.5093536376953,65535.0
19736.10165318219,-87.44429779052734,239.00961303710938,76.53738403320312,-320.8703308105469,-11.926690101623535,66.62004089355469,28.834692001342773,83.53086853027344,217.6090087890625,65535.0
19736.10205319074,-103.81368255615234,243.51071166992188,73.15461730957031,-476.36981201171875,-8.563549041748047,68.79774475097656,32.5105094909668,88.8951187133789,195.98081970214844,65535.0
19736.102453199295,-132.30665588378906,241.88821411132812,71.12504577636719,-572.1293334960938,-14.359003067016602,63.093772888183594,27.760194778442383,81.73564910888672,194.32037353515625,65535.0
19736.10285320785,-139.76197814941406,238.03175354003906,68.34730529785156,-598.7506103515625,-19.27456283569336,57.01866149902344,21.2701473236084,77.80056762695312,209.78993225097656,65535.0
19736.103253216403,-145.3978729248047,250.02777099609375,69.2397689819336,-630.5889892578125,-23.831811904907227,51.57856369018555,17.22674560546875,73.2283935546875,216.07470703125,65535.0
19736.103653224953,-144.0393524169922,249.95108032226562,84.2953109741211,-619.7025146484375,-30.130998611450195,43.598731994628906,12.274051666259766,65.13752746582031,213.44712829589844,65535.0
19736.104053233506,-118.64823150634766,257.8034362792969,96.80989074707031,-574.980712890625,-26.456266403198242,46.62589645385742,15.789894104003906,71.84175109863281,208.6372833251953,65535.0
19736.10445324206,-68.23402404785156,256.6722412109375,99.06598663330078,-527.0236206054688,-24.560977935791016,47.69322204589844,19.338796615600586,73.85774993896484,208.45162963867188,65535.0
19736.10485325061,-66.0566635131836,260.406494140625,105.15340423583984,-490.26446533203125,-18.876554489135742,49.45632553100586,19.600610733032227,75.95525360107422,205.09518432617188,65535.0
19736.105253259164,-88.04826354980469,254.88328552246094,103.24280548095703,-479.9598083496094,-21.06283187866211,45.869537353515625,17.583030700683594,73.80918884277344,218.6189727783203,65535.0
19736.105653267718,-87.94160461425781,255.7126922607422,97.35162353515625,-477.3660888671875,-18.366819381713867,51.131595611572266,22.70347785949707,78.45122528076172,223.18325805664062,65535.0
19736.10605327627,-61.75066375732422,254.03663635253906,99.28668212890625,-466.62225341796875,-25.99160385131836,43.769439697265625,18.2132568359375,71.94878387451172,197.20803833007812,65535.0
19736.10645328482,-32.89323806762695,254.00900268554688,104.35814666748047,-454.58087158203125,-21.718656539916992,43.94358825683594,18.53892707824707,73.55252838134766,207.8809356689453,65535.0
19736.106853293375,-11.9459867477417,257.8112487792969,103.67545318603516,-429.9383544921875,-17.37544059753418,48.509212493896484,24.442424774169922,78.4095687866211,202.7782440185547,65535.0
19736.10725330193,-12.662781715393066,253.38751220703125,92.91529083251953,-401.15496826171875,-24.079313278198242,38.83011245727539,16.1315860748291,71.7620849609375,207.0530242919922,65535.0
19736.10765331048,-36.537532806396484,246.3761749267578,95.85334777832031,-348.4412536621094,-30.094552993774414,34.6455078125,11.43247127532959,67.32946014404297,223.76316833496094,65535.0
19736.108053319032,-30.151124954223633,229.26123046875,88.5448226928711,-331.60015869140625,-33.18476486206055,29.04754638671875,10.553359031677246,64.89106750488281,220.21975708007812,65535.0
19736.108453327586,-3.805689811706543,227.3956298828125,84.78414154052734,-324.9241638183594,-23.946292877197266,39.518836975097656,17.11717414855957,71.89599609375,202.7058563232422,65535.0
19736.10885333614,-5.334242343902588,224.94317626953125,91.5700454711914,-302.0904541015625,-26.624740600585938,37.90592956542969,17.019777297973633,70.41864013671875,205.01055908203125,65535.0
19736.10925334469,-8.050372123718262,236.63389587402344,94.81600952148438,-290.2089538574219,-37.30866622924805,23.379085540771484,2.0104575157165527,57.991546630859375,204.5908966064453,65535.0
19736.109653353244,-5.424494743347168,235.0489501953125,91.04853820800781,-300.51116943359375,-31.73712730407715,29.90018081665039,7.962973594665527,65.88666534423828,199.27804565429688,65535.0
19736.110053361797,-3.4430534839630127,229.0027313232422,84.54717254638672,-323.02008056640625,-34.46739959716797,29.284406661987305,6.413396835327148,63.29703903198242,202.1835174560547,65535.0
19736.110453370347,-6.117398738861084,224.3364715576172,87.1717300415039,-351.8702392578125,-29.068470001220703,33.91916275024414,13.547879219055176,68.56369018554688,194.78128051757812,65535.0
19736.1108533789,-15.53021240234375,224.2237091064453,80.80210876464844,-367.84576416015625,-17.657791137695312,47.844390869140625,22.62081527709961,77.4117431640625,219.5709686279297,65535.0
19736.111253387455,-31.93551254272461,224.75253295898438,80.05706024169922,-397.7763366699219,-15.344494819641113,53.04781723022461,23.860485076904297,80.61952209472656,211.33462524414062,65535.0
19736.11165339601,-54.17399978637695,217.71554565429688,73.77880859375,-403.3312072753906,-22.357208251953125,43.75245666503906,17.402278900146484,74.76366424560547,216.07357788085938,65535.0
19736.11205340456,-78.26880645751953,218.04989624023438,76.47691345214844,-374.4277038574219,-26.229454040527344,39.769126892089844,17.27616310119629,71.77693939208984,220.16819763183594,65535.0
19736.112453413112,-87.50007629394531,226.52708435058594,71.06963348388672,-345.359130859375,-29.732160568237305,37.95341110229492,14.066349983215332,70.95724487304688,217.0459442138672,65535.0
19736.112853421666,-103.62020111083984,230.3647918701172,61.88835144042969,-347.3487243652344,-25.069194793701172,41.65708541870117,17.57013702392578,69.59912872314453,219.07626342773438,65535.0
19736.113253430216,-138.07669067382812,227.1213836669922,81.33744049072266,-357.5021667480469,-19.1453914642334,47.90319061279297,24.436193466186523,75.23947143554688,204.96739196777344,65535.0
19736.11365343877,-185.84555053710938,220.06185913085938,71.92228698730469,-374.02911376953125,-15.336613655090332,55.75345993041992,22.602779388427734,79.05925750732422,205.28546142578125,65535.0
19736.114053447323,-201.5513458251953,216.37648010253906,71.4974594116211,-395.3505554199219,-22.949087142944336,50.63914489746094,20.41849708557129,75.73960876464844,198.61111450195312,65535.0
19736.114453455877,-208.1896209716797,222.0133056640625,77.75773620605469,-408.1566467285156,-21.953271865844727,50.68693542480469,21.124732971191406,74.04378509521484,195.80740356445312,65535.0
19736.114853464427,-223.80410766601562,212.84286499023438,64.89912414550781,-439.760498046875,-10.622657775878906,60.81763458251953,28.90082359313965,80.85595703125,209.55194091796875,65535.0
19736.11525347298,-236.94668579101562,214.13540649414062,74.2654037475586,-467.5572509765625,-10.033804893493652,66.3829345703125,30.765905380249023,85.89644622802734,209.40150451660156,65535.0
19736.115653481535,-242.41641235351562,216.7672119140625,70.81426239013672,-475.7054748535156,-26.515647888183594,54.58784866333008,16.680137634277344,73.03861999511719,212.66859436035156,65535.0
19736.116053490085,-226.47386169433594,210.96395874023438,65.91678619384766,-460.4239807128906,-24.106130599975586,53.51970672607422,16.23444366455078,74.98248291015625,213.4853515625,65535.0
19736.11645349864,-211.73135375976562,215.579833984375,63.8915901184082,-441.631103515625,-19.790197372436523,57.638885498046875,17.81012725830078,76.13201141357422,211.66619873046875,65535.0
19736.116853507192,-197.89613342285156,209.13336181640625,64.08959197998047,-427.203125,-10.122889518737793,73.74176025390625,29.634187698364258,86.27181243896484,209.35552978515625,65535.0
19736.117253515746,-193.1022186279297,214.38775634765625,74.15275573730469,-409.1585998535156,-2.282958507537842,83.04899597167969,35.54230880737305,93.75697326660156,199.5461883544922,65535.0
19736.117653524296,-216.9104461669922,216.9662322998047,64.83507537841797,-405.2862548828125,-5.410420894622803,80.02667999267578,35.373565673828125,90.16853332519531,208.42208862304688,65535.0
19736.11805353285,-225.00656127929688,218.00653076171875,75.74376678466797,-403.9599609375,-5.607085704803467,77.3895263671875,35.55995178222656,90.74168395996094,199.3339385986328,65535.0
19736.118453541403,-220.53244018554688,224.2133026123047,77.5693588256836,-397.4109191894531,-1.0805937051773071,84.82427978515625,37.920223236083984,94.58293151855469,208.34210205078125,65535.0
19736.118853549953,-237.34042358398438,223.7022705078125,75.89276123046875,-378.7975158691406,-3.152646780014038,82.55489349365234,38.392635345458984,93.2547378540039,219.60400390625,65535.0
19736.119253558507,-234.4652557373047,231.91244506835938,66.23722839355469,-361.14837646484375,-5.12483549118042,81.08356475830078,36.87961196899414,92.02958679199219,217.806396484375,65535.0
19736.11965356706,-234.26437377929688,241.19607543945312,69.2315902709961,-346.98370361328125,-4.432572841644287,84.96440887451172,38.116912841796875,92.83704376220703,212.72802734375,65535.0
19736.120053575614,-215.99636840820312,240.5990753173828,87.5281982421875,-350.517578125,2.3261806964874268,90.34757995605469,45.11539077758789,98.1540756225586,206.68533325195312,65535.0
19736.120453584164,-196.28594970703125,245.70103454589844,78.70989990234375,-361.0673828125,-5.227405071258545,80.68762969970703,37.2675666809082,91.43302154541016,211.8903350830078,65535.0
19736.120853592718,-188.7803192138672,238.9105682373047,76.88774108886719,-376.27685546875,-5.629128932952881,77.9483642578125,37.32094955444336,92.13432312011719,216.41151428222656,65535.0
19736.12125360127,-179.89002990722656,234.50411987304688,77.06352996826172,-357.3259582519531,-5.5887017250061035,79.48090362548828,33.464637756347656,90.48421478271484,216.01858520507812,65535.0
19736.12165360982,-172.74668884277344,238.00637817382812,73.60191345214844,-329.7915954589844,-7.924201488494873,71.04873657226562,30.04267692565918,87.19402313232422,205.82899475097656,65535.0
19736.122053618376,-182.92343139648438,235.6958465576172,70.42942810058594,-325.9646911621094,-10.533438682556152,70.25456237792969,30.427968978881836,83.75772857666016,204.72308349609375,65535.0
19736.12245362693,-182.7288818359375,236.47561645507812,72.88943481445312,-332.6946105957031,-3.459582567214966,78.88591766357422,39.79567337036133,94.96693420410156,207.7036590576172,65535.0
19736.122853635483,-172.9452667236328,235.3319091796875,81.4153060913086,-348.5485534667969,-3.215317964553833,77.53305053710938,36.262813568115234,92.85406494140625,208.64486694335938,65535.0
19736.123253644033,-183.51222229003906,240.28688049316406,79.67843627929688,-335.8253479003906,-6.708526611328125,72.00950622558594,31.703105926513672,88.66110229492188,206.6502685546875,65535.0
19736.123653652587,-187.2411651611328,254.411865234375,79.6962661743164,-314.6310729980469,-5.928874969482422,71.47278594970703,35.49420928955078,91.18611145019531,203.27598571777344,65535.0
19736.12405366114,-164.70025634765625,249.7507781982422,88.79488372802734,-284.3896484375,-13.836180686950684,63.054893493652344,28.0647029876709,80.9238510131836,210.0192413330078,65535.0
19736.12445366969,-141.85765075683594,236.65968322753906,87.78366088867188,-281.4660339355469,-12.740544319152832,61.81290817260742,27.812877655029297,82.55057525634766,217.4379425048828,65535.0
19736.124853678244,-152.3113555908203,236.45742797851562,81.27066802978516,-275.5740966796875,-9.389018058776855,59.566646575927734,27.768766403198242,84.43558502197266,205.3297576904297,65535.0
19736.125253686798,-145.7845458984375,235.9961700439453,87.07637786865234,-296.7453918457031,-8.954268455505371,62.76685333251953,32.63615798950195,88.59280395507812,195.9822540283203,65535.0
19736.12565369535,-141.13861083984375,249.7711639404297,77.26553344726562,-324.12347412109375,-13.003374099731445,59.85713577270508,29.671749114990234,84.81781005859375,197.52113342285156,65535.0
19736.1260537039,-123.59452056884766,258.9266052246094,80.7997055053711,-333.19012451171875,-24.838088989257812,41.08980178833008,15.547819137573242,71.51428985595703,207.69239807128906,65535.0
19736.126453712455,-128.33486938476562,258.0133972167969,90.25631713867188,-348.9574279785156,-20.13816261291504,49.5626106262207,18.677101135253906,77.18870544433594,213.66915893554688,65535.0
19736.12685372101,-151.79843139648438,258.0029296875,93.07286834716797,-348.65667724609375,-14.361525535583496,53.12303161621094,25.42667007446289,81.4925537109375,213.09756469726562,65535.0
19736.12725372956,-102.74610900878906,246.3668670654297,90.82469177246094,-352.6532287597656,-15.312403678894043,52.03315353393555,23.542566299438477,80.14082336425781,199.99266052246094,65535.0
19736.127653738113,-43.678749084472656,245.94456481933594,97.77882385253906,-354.7256774902344,-16.974315643310547,51.118553161621094,23.46708869934082,80.4266357421875,205.44285583496094,65535.0
19736.128053746666,3.074457883834839,253.95823669433594,96.86383819580078,-344.7982482910156,-14.918190956115723,54.70948791503906,28.545324325561523,85.05547332763672,216.60202026367188,65535.0
19736.12845375522,15.498671531677246,244.38331604003906,96.83229064941406,-333.2425231933594,-12.333698272705078,53.592708587646484,29.001066207885742,84.97224426269531,221.0721435546875,65535.0
19736.12885376377,19.259803771972656,250.30816650390625,91.6257553100586,-326.2204895019531,-11.086902618408203,56.315975189208984,30.916339874267578,86.35569763183594,222.2506866455078,65535.0
19736.129253772324,-10.408839225769043,255.08702087402344,97.81620788574219,-322.1087646484375,-8.850496292114258,57.74522399902344,30.425331115722656,87.62698364257812,204.57113647460938,65535.0
19736.129653780878,-45.17982864379883,245.48289489746094,86.41248321533203,-313.4120788574219,-18.31307029724121,48.19316101074219,20.765159606933594,78.26842498779297,209.51449584960938,65535.0
19736.130053789428,-53.63115310668945,233.80593872070312,88.02173614501953,-321.9844665527344,-15.611777305603027,47.372413635253906,23.297306060791016,82.3428955078125,205.8944549560547,65535.0
19736.13045379798,-69.03511047363281,242.60516357421875,80.31280517578125,-332.11798095703125,-10.837140083312988,53.98672866821289,27.55533218383789,86.30308532714844,198.96453857421875,65535.0
19736.130853806535,-52.80024719238281,241.19338989257812,85.1303482055664,-333.3496398925781,-12.656505584716797,53.52606964111328,30.4477481842041,84.09151458740234,201.01145935058594,65535.0
19736.13125381509,-4.1676788330078125,251.54290771484375,85.07711029052734,-338.7437744140625,-6.743253231048584,59.493465423583984,35.512718200683594,92.49476623535156,200.53836059570312,65535.0
19736.13165382364,5.271350383758545,243.8162078857422,75.694580078125,-340.3346862792969,-13.650256156921387,54.37393569946289,25.867029190063477,85.08357238769531,204.97640991210938,65535.0
19736.132053832192,-17.1309757232666,244.4371337890625,74.88606262207031,-345.3577575683594,-16.65113639831543,51.201786041259766,25.767885208129883,80.49737548828125,197.5794219970703,65535.0
19736.132453840746,-1.313167691230774,247.9239044189453,74.09265899658203,-346.1770935058594,-13.934797286987305,53.40300369262695,27.742977142333984,83.63334655761719,217.45640563964844,65535.0
19736.132853849296,2.1053783893585205,235.89064025878906,76.66226959228516,-334.9032287597656,-12.576980590820312,57.07880401611328,30.357746124267578,85.8814926147461,202.6400146484375,65535.0
19736.13325385785,2.7336795330047607,228.14036560058594,67.80497741699219,-321.35150146484375,-12.404427528381348,59.84929656982422,32.529335021972656,87.7988052368164,201.80380249023438,65535.0
19736.133653866404,8.361591339111328,234.37838745117188,63.877174377441406,-317.2800598144531,-8.144686698913574,63.248680114746094,32.894168853759766,88.90204620361328,202.37747192382812,65535.0
19736.134053874957,-2.1795012950897217,243.51564025878906,69.7750244140625,-337.0010681152344,-5.349331378936768,68.23136138916016,34.22874069213867,91.14999389648438,208.91812133789062,65535.0
19736.134453883507,-17.185516357421875,234.859619140625,73.7028579711914,-350.954345703125,-9.689769744873047,62.13886642456055,30.493330001831055,86.59477996826172,208.4773406982422,65535.0
19736.13485389206,-32.43206024169922,229.9381866455078,77.81228637695312,-376.3870849609375,-11.487761497497559,62.81894302368164,30.650985717773438,87.11126708984375,208.56585693359375,65535.0
19736.135253900615,-49.187923431396484,233.3037567138672,72.9427261352539,-428.0665588378906,-9.901426315307617,63.217445373535156,28.38224983215332,86.84101867675781,209.09515380859375,65535.0
19736.135653909165,-95.90672302246094,235.56683349609375,64.52948760986328,-465.21600341796875,-3.686568260192871,70.51903533935547,35.533058166503906,91.62989044189453,200.57080078125,65535.0
19736.13605391772,-136.96844482421875,237.21726989746094,52.41630172729492,-492.7232971191406,-4.265097141265869,75.18644714355469,36.43541717529297,90.9805679321289,208.41900634765625,65535.0
19736.136453926272,-165.57015991210938,250.16134643554688,60.78932571411133,-504.56573486328125,3.0621800422668457,79.8736343383789,45.78212356567383,100.3184814453125,215.39395141601562,65535.0
19736.136853934826,-178.99510192871094,230.77114868164062,55.103397369384766,-495.9836730957031,3.1026008129119873,85.10211944580078,44.22743225097656,100.20926666259766,200.6803436279297,65535.0
19736.137253943376,-175.32960510253906,216.32907104492188,62.365875244140625,-488.9518737792969,1.7807910442352295,85.81968688964844,41.408599853515625,97.84870147705078,200.62184143066406,65535.0
19736.13765395193,-185.49107360839844,230.9994354248047,62.263668060302734,-485.6681213378906,-7.0999836921691895,78.56977844238281,33.6953239440918,89.7682876586914,201.79930114746094,65535.0
19736.138053960483,-200.9991455078125,230.2361602783203,55.249168395996094,-484.91619873046875,-9.256766319274902,76.07232666015625,34.6273307800293,88.531982421875,199.51515197753906,65535.0
19736.138453969033,-216.35870361328125,227.11387634277344,51.06007385253906,-473.24639892578125,-0.9866229295730591,77.8449478149414,37.844669342041016,94.45965576171875,199.5133056640625,65535.0
19736.138853977587,-235.25521850585938,224.0124053955078,52.716835021972656,-461.7847595214844,-3.9679274559020996,80.32835388183594,35.184730529785156,92.39794921875,202.12318420410156,65535.0
19736.13925398614,-227.13775634765625,222.7608642578125,68.62442016601562,-450.1399841308594,1.47316575050354,88.71163177490234,45.751590728759766,98.69424438476562,201.39788818359375,65535.0
19736.139653994695,-194.06739807128906,222.12644958496094,68.63929748535156,-412.19012451171875,-11.9761962890625,73.40062713623047,29.52192497253418,86.0785903930664,210.2454071044922,65535.0
19736.140054003245,-178.78094482421875,215.80084228515625,69.66617584228516,-334.6397705078125,-21.381927490234375,57.509971618652344,18.59166145324707,73.8416748046875,204.0551300048828,65535.0
19736.1404540118,-162.25186157226562,221.81471252441406,78.8565902709961,-275.71795654296875,-10.18807601928711,69.11262512207031,32.8689079284668,87.3666000366211,208.47996520996094,65535.0
19736.140854020352,-159.35166931152344,219.77740478515625,72.07621765136719,-262.85736083984375,-6.702113628387451,73.64447784423828,36.4317626953125,91.83598327636719,209.01318359375,65535.0
19736.141254028902,-169.71478271484375,217.16163635253906,72.82395935058594,-302.9876708984375,-4.422216892242432,77.04460906982422,35.62123107910156,92.57029724121094,214.49302673339844,65535.0
19736.141654037456,-186.321533203125,216.65603637695312,64.51777648925781,-374.3197021484375,-11.024486541748047,70.08687591552734,31.543691635131836,86.12852478027344,208.17413330078125,65535.0
19736.14205404601,-204.81729125976562,223.56661987304688,61.133792877197266,-413.6576843261719,-13.622749328613281,65.56979370117188,27.935977935791016,80.42955780029297,206.3181610107422,65535.0
19736.142454054563,-199.8376007080078,220.03643798828125,73.70677185058594,-435.0472106933594,-12.970451354980469,65.65685272216797,27.79385757446289,84.056396484375,194.2269287109375,65535.0
19736.142854063113,-192.35130310058594,223.1589813232422,79.83136749267578,-429.4649353027344,-15.172005653381348,61.19987487792969,26.711788177490234,82.83987426757812,195.93478393554688,65535.0
19736.143254071667,-207.84249877929688,239.164794921875,72.5272445678711,-411.90533447265625,-19.90973472595215,59.93375778198242,24.4484920501709,76.2638168334961,194.8134307861328,65535.0
19736.14365408022,-216.68490600585938,241.4659423828125,68.31309509277344,-408.5965270996094,-14.6481351852417,62.93984603881836,28.90660858154297,81.56945037841797,209.04505920410156,65535.0
19736.14405408877,-213.56362915039062,245.67918395996094,69.65687561035156,-408.2750549316406,-14.217094421386719,58.675926208496094,26.641029357910156,82.94804382324219,214.205322265625,65535.0
19736.144454097324,-203.60325622558594,249.59634399414062,79.70016479492188,-387.6213073730469,-6.868418216705322,65.21710205078125,32.8120002746582,87.509033203125,216.7432403564453,65535.0
19736.144854105878,-164.49937438964844,254.24378967285156,84.91642761230469,-368.33319091796875,-10.14388656616211,60.236656188964844,26.899362564086914,84.52693939208984,206.848876953125,65535.0
19736.14525411443,-145.94625854492188,258.27972412109375,85.03150939941406,-387.1323547363281,-20.575193405151367,51.28712844848633,22.522186279296875,75.57959747314453,197.4958038330078,65535.0
19736.14565412298,-153.24053955078125,258.35675048828125,76.85982513427734,-415.22235107421875,-18.030805587768555,49.422264099121094,24.50931167602539,77.45499420166016,196.41818237304688,65535.0
19736.146054131535,-153.90528869628906,248.0956268310547,72.66352081298828,-397.1848449707031,-17.405437469482422,46.00202560424805,22.59421730041504,78.06310272216797,206.15072631835938,65535.0
19736.14645414009,-193.8143310546875,239.90093994140625,86.26274871826172,-381.32562255859375,-28.055463790893555,37.91261672973633,15.38866901397705,70.14755249023438,206.53720092773438,65535.0
19736.14685414864,-207.18466186523438,241.2572479248047,98.82499694824219,-361.0347595214844,-28.16449546813965,35.90962600708008,12.675317764282227,72.69184112548828,203.30307006835938,65535.0
19736.147254157193,-199.3146209716797,250.83203125,91.94930267333984,-349.5647277832031,-25.49909019470215,37.41377639770508,19.73175048828125,71.52606201171875,209.5646209716797,65535.0
19736.147654165747,-208.18165588378906,244.79037475585938,83.51268768310547,-335.08648681640625,-31.521272659301758,30.582321166992188,13.466313362121582,66.88407135009766,195.56027221679688,65535.0
19736.1480541743,-191.91456604003906,235.14491271972656,79.25831604003906,-318.7110595703125,-26.385311126708984,34.54969787597656,13.092845916748047,69.15309143066406,199.39097595214844,65535.0
19736.14845418285,-175.9556121826172,233.49525451660156,74.74928283691406,-307.5744323730469,-22.596027374267578,37.52339553833008,17.72941017150879,72.88966369628906,216.00473022460938,65535.0
19736.148854191404,-175.10403442382812,240.0845184326172,66.95816802978516,-279.4903869628906,-24.17854881286621,38.91358947753906,19.256925582885742,74.42144012451172,205.6662139892578,65535.0
19736.149254199958,-184.76707458496094,240.75942993164062,70.1383056640625,-259.0986328125,-23.57613754272461,40.03880310058594,17.43058204650879,75.37672424316406,200.63043212890625,65535.0
19736.149654208508,-167.16094970703125,228.2895050048828,70.54350280761719,-232.0906219482422,-18.596168518066406,44.538612365722656,21.880756378173828,75.046142578125,210.53109741210938,65535.0
19736.15005421706,-150.22750854492188,226.53016662597656,77.94012451171875,-213.8880615234375,-6.586507797241211,58.05441665649414,33.36471939086914,86.90196228027344,190.31396484375,65535.0
19736.150454225615,-161.8670196533203,227.26510620117188,70.65745544433594,-225.00572204589844,-2.072528600692749,67.2724838256836,39.72577667236328,94.80907440185547,203.32272338867188,65535.0
19736.15085423417,-159.9093780517578,231.44464111328125,66.1402359008789,-265.5867919921875,-18.712373733520508,50.35546112060547,23.211750030517578,80.986083984375,210.0221710205078,65535.0
19736.15125424272,-163.67938232421875,228.9178924560547,69.88208770751953,-252.05889892578125,-15.566620826721191,47.26293182373047,23.76997184753418,79.58979034423828,199.8921661376953,65535.0
19736.151654251273,-162.78282165527344,229.225830078125,62.681854248046875,-226.89405822753906,-13.948485374450684,50.4449348449707,25.806737899780273,83.02171325683594,199.20101928710938,65535.0
19736.152054259826,-149.33900451660156,230.0587158203125,66.18853759765625,-198.34408569335938,-16.95435333251953,48.91322708129883,22.941091537475586,81.10530853271484,200.2340087890625,65535.0
19736.152454268376,-148.8839569091797,232.4213104248047,78.04401397705078,-173.88449096679688,-17.965179443359375,47.848228454589844,21.346511840820312,79.0116958618164,206.82772827148438,65535.0
19736.15285427693,-159.94850158691406,233.05752563476562,78.45992279052734,-165.76580810546875,-19.67426300048828,47.17501449584961,20.980472564697266,78.38813781738281,213.2247772216797,65535.0
19736.153254285484,-156.21774291992188,231.5148468017578,65.6141357421875,-159.49465942382812,-11.43401050567627,56.36610412597656,28.225582122802734,81.5583724975586,197.8506622314453,65535.0
19736.153654294038,-159.0583038330078,231.5139617919922,64.88269805908203,-180.2994842529297,-21.492752075195312,47.96989822387695,19.330612182617188,74.95086669921875,194.46336364746094,65535.0
19736.154054302588,-174.5659942626953,228.52435302734375,71.3144760131836,-220.79913330078125,-13.31101131439209,56.54622268676758,27.195009231567383,82.22996520996094,206.65342712402344,65535.0
19736.15445431114,-186.6382598876953,218.88575744628906,70.83332061767578,-237.36619567871094,-16.754453659057617,56.585357666015625,23.613880157470703,78.61975860595703,199.71630859375,65535.0
19736.154854319695,-214.66868591308594,213.89129638671875,68.76273345947266,-234.43360900878906,-15.666391372680664,58.17069625854492,26.363937377929688,83.79877471923828,206.9816436767578,65535.0
19736.155254328245,-234.1805419921875,219.67376708984375,64.2146224975586,-254.02969360351562,-12.324104309082031,64.54326629638672,28.724388122558594,87.76945495605469,214.62857055664062,65535.0
19736.1556543368,-239.3159637451172,217.48568725585938,60.42094421386719,-292.16302490234375,-17.49940299987793,60.4005126953125,25.925048828125,80.04800415039062,184.2127227783203,65535.0
19736.156054345352,-224.1444549560547,219.55813598632812,65.05127716064453,-359.62139892578125,-5.089776515960693,72.92211151123047,35.45323944091797,89.46160125732422,201.44773864746094,65535.0
19736.156454353906,-219.53640747070312,217.09381103515625,67.33786010742188,-420.71173095703125,-8.902318000793457,68.5809555053711,28.952449798583984,86.09839630126953,205.5465545654297,65535.0
19736.156854362456,-188.09361267089844,208.64691162109375,68.61279296875,-450.9497375488281,-14.655938148498535,65.1281509399414,26.978389739990234,80.55866241455078,209.5166015625,65535.0
19736.15725437101,-178.85511779785156,209.07662963867188,59.09531784057617,-479.3721008300781,-13.134905815124512,66.69752502441406,29.117435455322266,85.66002655029297,199.7589874267578,65535.0
19736.157654379564,-165.07838439941406,205.15538024902344,59.757568359375,-497.2593994140625,-5.12080717086792,76.12683868408203,34.5018196105957,90.2712173461914,204.3548583984375,65535.0
19736.158054388114,-151.93209838867188,210.39920043945312,58.811790466308594,-505.4170227050781,-19.603805541992188,60.78872299194336,21.025693893432617,75.73736572265625,184.1245880126953,65535.0
19736.158454396667,-139.80482482910156,221.44773864746094,62.22166061401367,-499.6849365234375,-12.071504592895508,66.74187469482422,26.823110580444336,85.54582214355469,194.17007446289062,65535.0
19736.15885440522,-140.08164978027344,215.5513916015625,68.79971313476562,-464.75726318359375,-0.5919564366340637,83.8736572265625,38.64812469482422,96.85236358642578,213.81504821777344,65535.0
19736.159254413775,-155.7035369873047,220.89381408691406,67.18119049072266,-422.0448913574219,-9.429305076599121,74.68172454833984,32.41802978515625,87.57494354248047,204.3505401611328,65535.0
19736.159654422325,-170.60546875,224.67604064941406,66.54232788085938,-387.8636474609375,-6.5481133460998535,75.85887908935547,34.35931396484375,90.54373168945312,216.5583953857422,65535.0
19736.16005443088,-170.61465454101562,220.73336791992188,66.91954803466797,-352.81719970703125,-2.78256893157959,82.34488677978516,36.92972183227539,92.76325225830078,205.50692749023438,65535.0
19736.160454439432,-157.02206420898438,227.57383728027344,66.26929473876953,-349.3702392578125,-14.00697135925293,67.57858276367188,27.238218307495117,82.90644836425781,199.93710327148438,65535.0
19736.160854447982,-160.62879943847656,231.61056518554688,65.52513885498047,-342.20819091796875,-17.207504272460938,60.76054000854492,23.197317123413086,83.08821868896484,198.25233459472656,65535.0
19736.161254456536,-150.42958068847656,232.7318572998047,73.32740020751953,-339.859375,-12.795479774475098,67.63375854492188,28.86590003967285,85.54779052734375,195.1280975341797,65535.0
19736.16165446509,-151.8568572998047,220.96192932128906,85.63304138183594,-357.7886047363281,-14.705034255981445,63.37299346923828,27.908348083496094,80.76725769042969,209.31982421875,65535.0
19736.162054473643,-178.20211791992188,218.59756469726562,86.14021301269531,-366.5356140136719,-11.61058235168457,65.46287536621094,26.648880004882812,83.42005157470703,202.0173797607422,65535.0
19736.162454482193,-208.46031188964844,229.3153076171875,84.35641479492188,-357.2470703125,-11.517054557800293,65.4654541015625,28.46575355529785,85.96720123291016,198.50576782226562,65535.0
19736.162854490747,-215.55020141601562,226.96826171875,77.68378448486328,-373.6187744140625,-20.077638626098633,53.13971710205078,19.840120315551758,74.8038330078125,186.73089599609375,65535.0
19736.1632544993,-190.36953735351562,229.33705139160156,74.56768035888672,-380.9930725097656,-25.999462127685547,45.44503402709961,15.479606628417969,70.28366088867188,189.9913787841797,65535.0
19736.16365450785,-160.3040771484375,233.96640014648438,80.89523315429688,-385.3641662597656,-26.624534606933594,45.29838943481445,15.864872932434082,73.77249908447266,192.99143981933594,65535.0
19736.164054516405,-168.7300567626953,239.11203002929688,88.62483215332031,-392.28662109375,-17.478193283081055,52.639060974121094,23.487079620361328,80.20231628417969,212.5973663330078,65535.0
19736.16445452496,-169.6368865966797,235.18289184570312,86.71772003173828,-408.67352294921875,-29.817237854003906,39.454952239990234,13.855777740478516,66.84451293945312,214.01844787597656,65535.0
19736.164854533512,-183.68896484375,232.9896697998047,76.76486206054688,-390.3633117675781,-28.88323974609375,36.36031723022461,12.313745498657227,66.75796508789062,206.5471954345703,65535.0
19736.165254542062,-189.2036895751953,236.34963989257812,78.79932403564453,-352.67938232421875,-27.789140701293945,38.62071228027344,13.373430252075195,68.20381164550781,204.9998779296875,65535.0
19736.165654550616,-188.67347717285156,228.80775451660156,81.28924560546875,-334.231689453125,-29.76390266418457,33.83243942260742,9.993473052978516,66.76726531982422,198.80589294433594,65535.0
19736.16605455917,-206.73695373535156,227.56381225585938,86.07119750976562,-345.92822265625,-24.408662796020508,39.00711441040039,17.745269775390625,72.19619750976562,200.6306915283203,65535.0
19736.16645456772,-215.6896514892578,234.77577209472656,83.11820983886719,-338.5307312011719,-31.85234832763672,31.119577407836914,8.350643157958984,63.65354537963867,211.14036560058594,65535.0
19736.166854576273,-210.2901153564453,237.35043334960938,80.7958984375,-326.55609130859375,-35.64535903930664,27.16988182067871,6.957571506500244,62.30562973022461,196.33132934570312,65535.0
19736.167254584827,-204.628173828125,240.2907257080078,87.81937408447266,-314.2992248535156,-31.630752563476562,29.928844451904297,11.261819839477539,66.48735809326172,197.31881713867188,65535.0
19736.16765459338,-211.70022583007812,245.559814453125,86.65433502197266,-336.5338439941406,-37.283878326416016,21.901531219482422,4.065876007080078,61.4290885925293,208.08934020996094,65535.0
19736.16805460193,-218.41940307617188,232.0157470703125,71.94139099121094,-348.8001403808594,-36.76407241821289,22.391054153442383,4.417980194091797,59.83039093017578,206.69297790527344,65535.0
19736.168454610484,-209.32766723632812,226.9207305908203,61.67036819458008,-350.98101806640625,-37.15837478637695,24.1216983795166,6.495111465454102,61.94116973876953,199.7580108642578,65535.0
19736.168854619038,-199.06088256835938,235.9014129638672,53.3836669921875,-355.0959167480469,-39.23638916015625,19.29316520690918,1.8310850858688354,55.6066780090332,205.8643341064453,65535.0
19736.169254627588,-198.4271697998047,236.78079223632812,58.108890533447266,-374.8434753417969,-44.652809143066406,13.943519592285156,-5.075675010681152,51.746131896972656,208.69163513183594,65535.0
19736.16965463614,-187.05252075195312,229.67410278320312,67.54878997802734,-392.6750183105469,-36.26591491699219,19.478225708007812,1.3648115396499634,59.7713508605957,195.38250732421875,65535.0
19736.170054644695,-161.59410095214844,226.03082275390625,67.83511352539062,-384.87664794921875,-29.609817504882812,27.910980224609375,11.423937797546387,66.7956314086914,201.70889282226562,65535.0
19736.17045465325,-154.64845275878906,218.75314331054688,75.7818603515625,-384.13812255859375,-31.947126388549805,28.54547882080078,10.218698501586914,65.09381866455078,197.44387817382812,65535.0
19736.1708546618,-145.81329345703125,219.3769989013672,63.85544967651367,-424.978271484375,-28.20354652404785,32.3590202331543,9.471251487731934,66.380126953125,205.6365509033203,65535.0
19736.171254670353,-131.26809692382812,223.29727172851562,58.7259407043457,-452.3870849609375,-22.476699829101562,40.13700485229492,20.586772918701172,72.09170532226562,209.17613220214844,65535.0
19736.171654678907,-131.18724060058594,223.7365264892578,59.96870803833008,-463.6277160644531,-26.915355682373047,34.6696891784668,13.747173309326172,67.01901245117188,196.49220275878906,65535.0
19736.172054687457,-143.89300537109375,219.62710571289062,67.3938980102539,-465.3262939453125,-27.46169662475586,35.630699157714844,14.149093627929688,69.01339721679688,198.62432861328125,65535.0
19736.17245469601,-150.42254638671875,224.58099365234375,71.62923431396484,-466.5353088378906,-30.20855140686035,32.39678955078125,10.905354499816895,67.34651184082031,214.55484008789062,65535.0
19736.172854704564,-153.2572479248047,220.73597717285156,74.82627868652344,-474.48638916015625,-39.54758071899414,28.00636863708496,1.4460570812225342,59.9876594543457,214.58949279785156,65535.0
19736.173254713118,-162.10072326660156,223.59254455566406,70.22879028320312,-503.5316162109375,-27.125385284423828,38.57343292236328,14.686012268066406,70.78376770019531,199.96807861328125,65535.0
19736.173654721668,-170.14120483398438,226.63255310058594,74.90701293945312,-516.430419921875,-22.205820083618164,44.276649475097656,18.630220413208008,73.64418029785156,197.0116729736328,65535.0
19736.17405473022,-186.68643188476562,227.13250732421875,73.23597717285156,-474.3179931640625,-16.56960678100586,56.03934860229492,24.07552146911621,80.46759033203125,208.1754608154297,65535.0
19736.174454738775,-194.7957763671875,220.20143127441406,63.673763275146484,-441.91217041015625,-19.75957489013672,52.81295394897461,18.405960083007812,77.1927490234375,204.9196014404297,65535.0
19736.174854747325,-185.44424438476562,206.58323669433594,56.11769104003906,-412.5948181152344,-21.41791343688965,50.9630126953125,20.239225387573242,76.08391571044922,207.38954162597656,65535.0
19736.17525475588,-167.90077209472656,203.03396606445312,57.509918212890625,-404.1864318847656,-17.074853897094727,58.006813049316406,24.41069221496582,80.13375854492188,211.64279174804688,65535.0
19736.175654764433,-154.88600158691406,204.55667114257812,63.972496032714844,-406.8994445800781,-16.151803970336914,60.60032653808594,26.847230911254883,84.62761688232422,205.2672119140625,65535.0
19736.176054772986,-136.97122192382812,201.76564025878906,52.7750244140625,-375.6667785644531,-8.77813720703125,64.54994201660156,30.20298957824707,87.12570190429688,201.04490661621094,65535.0
19736.176454781536,-120.25066375732422,210.3931427001953,63.6167106628418,-352.9482421875,-16.292713165283203,60.48667907714844,25.397567749023438,78.9889144897461,211.41529846191406,65535.0
19736.17685479009,-133.7987823486328,197.4086456298828,56.66740417480469,-328.973388671875,-19.179899215698242,60.97193908691406,22.60260581970215,77.94475555419922,203.00917053222656,65535.0
19736.177254798644,-155.70184326171875,196.1505889892578,55.411312103271484,-324.34808349609375,-7.8099164962768555,73.82266998291016,34.26289749145508,90.34864044189453,208.3740692138672,65535.0
19736.177654807194,-176.346923828125,205.34024047851562,54.279056549072266,-307.88330078125,-4.7630934715271,78.13967895507812,38.04399490356445,93.67015838623047,211.01478576660156,65535.0
19736.178054815748,-207.58363342285156,210.72732543945312,66.04071807861328,-278.9803466796875,-12.352326393127441,71.44584655761719,30.661792755126953,88.34757232666016,200.68048095703125,65535.0
19736.1784548243,-210.83258056640625,217.914306640625,76.338623046875,-263.2577209472656,-8.248234748840332,75.00607299804688,34.19221878051758,91.55229949951172,201.62338256835938,65535.0
19736.178854832855,-213.6478271484375,210.66549682617188,75.30256652832031,-248.4362335205078,-11.854745864868164,70.78143310546875,29.116228103637695,84.33507537841797,213.81332397460938,65535.0
19736.179254841405,-226.60227966308594,204.9613494873047,82.9451904296875,-245.72036743164062,-12.274620056152344,70.84270477294922,29.300962448120117,84.63383483886719,209.73611450195312,65535.0
19736.17965484996,-211.58319091796875,204.35520935058594,71.47127532958984,-282.75897216796875,-10.813385963439941,72.08971405029297,31.188570022583008,83.83611297607422,206.92811584472656,65535.0
19736.180054858512,-183.20697021484375,204.6841583251953,83.9559326171875,-276.69873046875,-9.087749481201172,74.04940795898438,32.81668472290039,85.50257110595703,209.39637756347656,65535.0
19736.180454867063,-162.2917022705078,214.92701721191406,88.61846160888672,-235.3160400390625,-8.527739524841309,75.5586929321289,33.83875274658203,89.46205139160156,205.05970764160156,65535.0
19736.180854875616,-168.10064697265625,218.92393493652344,81.93513488769531,-207.27342224121094,-12.176647186279297,71.79127502441406,30.1245174407959,87.86001586914062,199.16151428222656,65535.0
19736.18125488417,-194.22459411621094,211.02627563476562,86.40376281738281,-185.64035034179688,-17.129409790039062,61.30599594116211,25.04214096069336,78.81033325195312,195.5028533935547,65535.0
19736.181654892724,-215.26039123535156,217.4650115966797,75.34317779541016,-199.22744750976562,-18.680265426635742,59.37828063964844,23.634689331054688,78.16661834716797,203.60011291503906,65535.0
19736.182054901274,-228.80470275878906,218.6339569091797,77.93070220947266,-178.8603973388672,-13.967206954956055,66.14466094970703,27.39412498474121,84.50910949707031,194.22251892089844,65535.0
19736.182454909827,-213.3318634033203,219.06976318359375,87.57601165771484,-144.5104522705078,-16.913288116455078,61.714073181152344,24.18990707397461,81.34317016601562,197.97633361816406,65535.0
19736.18285491838,-217.75067138671875,224.0367889404297,79.19964599609375,-143.73837280273438,-8.544511795043945,69.88668823242188,32.47059631347656,89.0361099243164,200.65921020507812,65535.0
19736.18325492693,-212.44981384277344,226.93255615234375,83.57797241210938,-191.33087158203125,-13.056159973144531,65.53915405273438,28.502866744995117,83.87764739990234,215.29953002929688,65535.0
19736.183654935485,-198.7586669921875,227.55885314941406,83.4162826538086,-263.34661865234375,-12.582249641418457,62.836830139160156,33.33257293701172,85.80615997314453,206.8683624267578,65535.0
19736.18405494404,-206.60079956054688,219.87042236328125,86.5124740600586,-317.37896728515625,-18.161006927490234,54.359222412109375,24.94534683227539,80.40177154541016,204.093505859375,65535.0
19736.184454952592,-218.78416442871094,230.44569396972656,87.1393051147461,-342.4349060058594,-17.205965042114258,54.769412994384766,24.431489944458008,80.34388732910156,200.89373779296875,65535.0
19736.184854961142,-207.4879608154297,236.22805786132812,90.02751922607422,-357.0321350097656,-17.07484245300293,52.615543365478516,23.004404067993164,80.9991683959961,199.3147735595703,65535.0
19736.185254969696,-201.52166748046875,237.14883422851562,90.10490417480469,-367.6302490234375,-29.538436889648438,40.35940170288086,16.044654846191406,70.05070495605469,196.99839782714844,65535.0
19736.18565497825,-201.5277099609375,230.53564453125,90.16683197021484,-370.7016906738281,-33.8199577331543,31.556785583496094,8.459039688110352,63.37670135498047,192.8719940185547,65535.0
19736.1860549868,-188.3672637939453,237.34877014160156,86.36333465576172,-378.36810302734375,-29.05465316772461,36.159969329833984,11.551831245422363,68.5557861328125,203.0380096435547,65535.0
19736.186454995353,-176.3291015625,241.52725219726562,98.2576904296875,-367.401611328125,-31.63502311706543,35.839080810546875,11.797813415527344,65.73029327392578,199.00775146484375,65535.0
19736.186855003907,-177.36668395996094,236.08824157714844,94.71842956542969,-331.97723388671875,-31.508132934570312,31.71017074584961,8.60036849975586,66.15393829345703,195.98818969726562,65535.0
19736.18725501246,-184.13206481933594,228.48501586914062,94.35507202148438,-293.1089172363281,-25.052640914916992,37.4798583984375,13.402359008789062,72.64266204833984,205.5755157470703,65535.0
19736.18765502101,-194.25181579589844,228.78997802734375,90.55741882324219,-280.1732482910156,-26.401777267456055,36.718910217285156,13.580389976501465,69.62281036376953,201.19622802734375,65535.0
19736.188055029565,-180.5546875,227.54409790039062,90.01092529296875,-295.72821044921875,-25.573287963867188,35.510223388671875,17.0920352935791,73.95487213134766,203.98233032226562,65535.0
19736.18845503812,-166.4971160888672,231.20599365234375,88.71897888183594,-286.4777526855469,-27.757463455200195,31.46014976501465,12.415007591247559,68.38274383544922,206.75140380859375,65535.0
19736.18885504667,-152.9191131591797,227.23074340820312,88.97469329833984,-292.2444763183594,-29.57134437561035,30.259151458740234,11.3900728225708,68.11518096923828,199.88563537597656,65535.0
19736.189255055222,-126.46063232421875,221.8958740234375,87.22702026367188,-325.37042236328125,-36.416419982910156,27.867738723754883,7.282485008239746,63.84429168701172,197.48776245117188,65535.0
19736.189655063776,-114.59222412109375,221.3047332763672,80.12907409667969,-308.2257385253906,-42.19906234741211,19.498430252075195,1.4624954462051392,54.4101676940918,201.9984588623047,65535.0
19736.19005507233,-91.57456970214844,222.05245971679688,80.34562683105469,-237.39659118652344,-42.25851821899414,17.120677947998047,-0.0720171332359314,53.51035690307617,200.66387939453125,65535.0
19736.19045508088,-85.54419708251953,207.65237426757812,78.65970611572266,-172.4199676513672,-37.11843490600586,21.208688735961914,6.046964168548584,59.7000732421875,197.38047790527344,65535.0
19736.190855089433,-76.59274291992188,208.52645874023438,80.020263671875,-150.52908325195312,-25.372989654541016,35.89906311035156,18.242328643798828,73.48483276367188,192.756591796875,65535.0
19736.191255097987,-75.61563873291016,209.4078826904297,61.06435775756836,-156.0432586669922,-33.05793762207031,28.80227279663086,8.115065574645996,64.22465515136719,215.24874877929688,65535.0
19736.191655106537,-81.26036071777344,206.9943084716797,64.44312286376953,-167.87472534179688,-32.40115737915039,32.240596771240234,7.779500961303711,65.31428527832031,211.94879150390625,65535.0
19736.19205511509,-85.25883483886719,200.49929809570312,68.73762512207031,-195.52565002441406,-17.204130172729492,44.60816192626953,20.533184051513672,76.67928314208984,201.28128051757812,65535.0
19736.192455123644,-85.18714141845703,200.81423950195312,64.98187255859375,-181.0050506591797,-15.791921615600586,53.260501861572266,28.99869728088379,82.49728393554688,198.071533203125,65535.0
19736.192855132198,-88.19632720947266,210.82623291015625,70.23931884765625,-147.62017822265625,-18.83885955810547,50.556541442871094,22.735876083374023,81.58289337158203,195.51747131347656,65535.0
19736.193255140748,-94.86195373535156,210.19960021972656,73.04195404052734,-158.42637634277344,-24.86501121520996,42.41834259033203,16.02483367919922,72.06454467773438,193.4324493408203,65535.0
19736.1936551493,-110.41862487792969,205.8677215576172,70.40929412841797,-185.73910522460938,-27.895172119140625,40.90495300292969,14.492777824401855,67.90962982177734,198.66259765625,65535.0
19736.194055157855,-116.2986831665039,207.7617645263672,76.7689437866211,-251.2664794921875,-21.95357894897461,47.90301513671875,19.8573055267334,77.43396759033203,196.4709930419922,65535.0
19736.194455166406,-135.98789978027344,198.21945190429688,76.7212905883789,-305.2704162597656,-17.00013542175293,55.35602951049805,24.409698486328125,80.97344970703125,200.99142456054688,65535.0
19736.19485517496,-144.2156524658203,192.04736328125,82.74703216552734,-324.2705383300781,-18.148183822631836,55.25216293334961,22.51854133605957,80.601806640625,204.67364501953125,65535.0
19736.195255183513,-136.64682006835938,200.01219177246094,76.60426330566406,-287.3954162597656,-25.90304946899414,50.900901794433594,17.916461944580078,72.23817443847656,199.9469451904297,65535.0
19736.195655192067,-136.73721313476562,198.55523681640625,68.00543212890625,-222.29710388183594,-10.94453239440918,65.5372543334961,31.102046966552734,85.27818298339844,209.23739624023438,65535.0
19736.196055200617,-152.70814514160156,211.16905212402344,75.9019546508789,-183.8445281982422,2.550950050354004,80.34651947021484,42.001129150390625,97.21095275878906,199.59710693359375,65535.0
19736.19645520917,-165.61500549316406,215.69398498535156,75.00940704345703,-175.93287658691406,-3.5336697101593018,79.7538833618164,38.01981735229492,93.01477813720703,195.1276092529297,65535.0
19736.196855217724,-179.32350158691406,211.29469299316406,71.13961029052734,-165.89080810546875,-1.5475889444351196,83.24816131591797,37.85868453979492,95.90840148925781,197.38339233398438,65535.0
19736.197255226274,-165.59254455566406,222.32550048828125,57.132869720458984,-171.47853088378906,-2.840686559677124,80.93247985839844,37.59370803833008,93.922607421875,196.56105041503906,65535.0
19736.197655234828,-133.1514892578125,228.18621826171875,70.56542205810547,-187.56219482421875,-14.15925121307373,68.76026153564453,28.455463409423828,83.8081283569336,202.8156280517578,65535.0
19736.19805524338,-116.90660095214844,229.26795959472656,78.95855712890625,-237.43235778808594,2.2328672409057617,87.26190185546875,44.542381286621094,100.53649139404297,205.4527130126953,65535.0
19736.198455251935,-127.1799545288086,236.1361541748047,63.92697525024414,-291.29559326171875,5.386491775512695,94.95130157470703,46.1915397644043,101.10748291015625,198.59408569335938,65535.0
19736.198855260485,-126.02622985839844,224.22752380371094,70.9467544555664,-351.55401611328125,-2.552293300628662,83.56680297851562,37.57570266723633,94.0411148071289,183.51217651367188,65535.0
19736.19925526904,-125.53923797607422,221.86216735839844,75.32880401611328,-424.9537048339844,-12.703490257263184,71.08720397949219,27.770418167114258,84.86222839355469,198.9849395751953,65535.0
19736.199655277593,-139.81802368164062,228.09921264648438,75.76019287109375,-470.4735107421875,-12.770195007324219,71.22962188720703,30.688508987426758,85.31397247314453,184.73472595214844,65535.0
19736.200055286143,-117.38265228271484,230.8989715576172,86.60816192626953,-501.6650390625,-4.49859094619751,77.81517028808594,38.044891357421875,94.01895904541016,194.08103942871094,65535.0
19736.200455294696,-94.75567626953125,232.81895446777344,89.31459045410156,-484.3283996582031,-6.105783462524414,73.8033447265625,32.520992279052734,89.94979858398438,202.06423950195312,65535.0
19736.20085530325,-94.09778594970703,238.06956481933594,93.39590454101562,-458.14056396484375,-8.822527885437012,72.94742584228516,32.684234619140625,90.20423889160156,199.8924102783203,65535.0
19736.201255311804,-81.08135223388672,232.69485473632812,88.95968627929688,-406.51568603515625,-1.8207029104232788,83.074462890625,40.37848663330078,96.4399185180664,202.89617919921875,65535.0
19736.201655320354,-79.4673080444336,225.9781494140625,88.25945281982422,-346.70947265625,-2.2684988975524902,79.7531967163086,38.80951690673828,94.32009887695312,200.5439910888672,65535.0
19736.202055328908,-120.69629669189453,225.3595733642578,94.35775756835938,-309.3258056640625,-7.365173816680908,70.52141571044922,35.22358322143555,89.8155517578125,197.46726989746094,65535.0
19736.20245533746,-143.85243225097656,226.67567443847656,88.32514953613281,-280.05352783203125,-4.316540241241455,74.97859954833984,36.79164505004883,90.74547576904297,204.20411682128906,65535.0
19736.20285534601,-148.60984802246094,234.6252899169922,98.45686340332031,-264.85406494140625,-11.86301326751709,67.7281265258789,32.203269958496094,86.53952026367188,202.6715087890625,65535.0
19736.203255354565,-165.07260131835938,235.93902587890625,95.1451187133789,-261.4774475097656,-6.23740291595459,70.74091339111328,35.516788482666016,94.24317169189453,192.8174285888672,65535.0
19736.20365536312,-161.8128204345703,235.0463409423828,96.72042846679688,-269.28436279296875,-10.449743270874023,67.91803741455078,30.54534912109375,88.86585998535156,198.8347930908203,65535.0
19736.204055371672,-127.46609497070312,238.41311645507812,93.52806854248047,-301.13433837890625,-24.282316207885742,52.2098503112793,18.77300262451172,75.59901428222656,195.42642211914062,65535.0
19736.204455380222,-97.39021301269531,245.9468994140625,81.54335021972656,-354.3570861816406,-18.59323501586914,49.944522857666016,21.90821075439453,76.70384979248047,210.2300567626953,65535.0
19736.204855388776,-75.95100402832031,239.93157958984375,80.92335510253906,-403.2434997558594,-18.933374404907227,49.45021057128906,21.313982009887695,76.16155242919922,192.78878784179688,65535.0
19736.20525539733,-44.40782165527344,235.38636779785156,85.00919342041016,-468.0690612792969,-27.501903533935547,40.70137405395508,14.400136947631836,69.91190338134766,190.44517517089844,65535.0
19736.20565540588,-10.4380464553833,238.6380615234375,90.7451171875,-493.1782531738281,-25.19838523864746,40.74379348754883,16.557350158691406,72.70286560058594,205.3562774658203,65535.0
19736.206055414434,-0.1629236936569214,237.15821838378906,89.1258316040039,-464.59698486328125,-26.58815574645996,38.833595275878906,14.298741340637207,70.80622863769531,198.494873046875,65535.0
19736.206455422987,10.199539184570312,243.6929168701172,82.18841552734375,-421.1814880371094,-24.59579086303711,40.848350524902344,18.22948455810547,73.74691009521484,209.83856201171875,65535.0
19736.20685543154,4.088161468505859,252.89773559570312,90.38468933105469,-371.3671875,-25.80081558227539,35.758766174316406,13.079534530639648,70.9168930053711,192.42800903320312,65535.0
19736.20725544009,-39.97866439819336,235.2639617919922,80.48291015625,-377.63043212890625,-32.52357864379883,27.12388801574707,6.390768051147461,65.6220703125,189.10122680664062,65535.0
19736.207655448645,-81.48249816894531,235.88172912597656,81.21141815185547,-412.7145690917969,-29.243093490600586,30.761188507080078,9.618507385253906,67.50991821289062,203.66448974609375,65535.0
19736.2080554572,-96.99606323242188,236.83843994140625,79.89444732666016,-451.447021484375,-26.888202667236328,32.04145812988281,12.30688190460205,68.50019836425781,203.5182342529297,65535.0
19736.20845546575,-96.53263092041016,229.87725830078125,82.2098617553711,-499.2235412597656,-34.555572509765625,26.678062438964844,8.450982093811035,63.30155563354492,202.66326904296875,65535.0
19736.208855474302,-103.16936492919922,223.2823486328125,80.44242095947266,-511.9529113769531,-43.1466064453125,15.690603256225586,-1.1086962223052979,53.57863998413086,196.1693115234375,65535.0
19736.209255482856,-111.13964080810547,223.6744842529297,81.67749786376953,-511.2557678222656,-46.4500732421875,10.435418128967285,-5.2966508865356445,50.95000076293945,190.82247924804688,65535.0
19736.20965549141,-94.7954330444336,218.48228454589844,78.87260437011719,-518.1903076171875,-34.7603874206543,24.15170669555664,5.9510345458984375,62.42375183105469,201.2795867919922,65535.0
19736.21005549996,-114.7383041381836,218.38943481445312,73.02993774414062,-518.4100952148438,-34.56542205810547,28.522018432617188,6.396742820739746,62.76881790161133,195.4055633544922,65535.0
19736.210455508513,-177.63238525390625,228.11557006835938,75.23165893554688,-494.3941345214844,-34.103538513183594,26.52773666381836,3.9123990535736084,60.82717514038086,192.69384765625,65535.0
19736.210855517067,-214.78445434570312,229.28135681152344,68.071533203125,-483.35394287109375,-28.81379508972168,33.711524963378906,12.676511764526367,70.212890625,200.7755126953125,65535.0
19736.211255525617,-200.15098571777344,224.08285522460938,80.32032775878906,-478.1197509765625,-28.354244232177734,36.5373420715332,12.623520851135254,69.14669036865234,200.0993194580078,65535.0
19736.21165553417,-162.72413635253906,227.7504425048828,80.76322937011719,-473.13458251953125,-28.083927154541016,34.216426849365234,12.003819465637207,67.51768493652344,183.8154754638672,65535.0
19736.212055542725,-133.3895721435547,230.22532653808594,74.82500457763672,-448.41351318359375,-32.51125717163086,33.276424407958984,12.396512985229492,66.60904693603516,195.6833953857422,65535.0
19736.21245555128,-116.31194305419922,229.71119689941406,73.5273666381836,-409.2549133300781,-25.85784912109375,42.34425354003906,19.616674423217773,73.56928253173828,198.37355041503906,65535.0
19736.21285555983,-103.39436340332031,228.9539794921875,69.93938446044922,-389.1007080078125,-9.448286056518555,55.667781829833984,30.279451370239258,84.59493255615234,192.53770446777344,65535.0
19736.213255568382,-96.81266784667969,230.72244262695312,58.8976936340332,-395.9028015136719,-22.379364013671875,47.723575592041016,18.408382415771484,77.33148956298828,189.15814208984375,65535.0
19736.213655576936,-81.51847076416016,223.98806762695312,68.74891662597656,-395.79107666015625,-27.906755447387695,40.91712188720703,14.014237403869629,69.46839141845703,190.8716278076172,65535.0
19736.214055585486,-56.225799560546875,228.71337890625,77.39492797851562,-407.1262512207031,-14.320308685302734,55.31460189819336,28.09062385559082,82.43500518798828,194.78990173339844,65535.0
19736.21445559404,-20.477523803710938,226.33285522460938,69.17488098144531,-420.0040283203125,-21.249713897705078,53.08247756958008,20.574474334716797,76.8130874633789,208.1480255126953,65535.0
19736.214855602593,1.9674893617630005,217.7296905517578,70.12129211425781,-434.3189697265625,-22.21549415588379,49.48139190673828,20.86786460876465,76.1102066040039,210.06512451171875,65535.0
19736.215255611147,-11.723953247070312,219.7957763671875,63.10745620727539,-415.5542907714844,-18.6173152923584,55.69438552856445,22.435762405395508,79.88468933105469,197.88560485839844,65535.0
19736.215655619697,-29.23624610900879,222.32254028320312,58.54996871948242,-365.39300537109375,-14.006287574768066,61.06960678100586,23.91050148010254,80.58024597167969,192.05569458007812,65535.0
19736.21605562825,-46.04400634765625,220.9234161376953,53.76236343383789,-345.73809814453125,-14.851465225219727,60.61366271972656,28.37739372253418,83.74716186523438,192.7967071533203,65535.0
19736.216455636804,-63.21134567260742,218.44386291503906,62.68221664428711,-349.64459228515625,-21.079927444458008,59.23076248168945,23.588748931884766,79.95209503173828,198.00413513183594,65535.0
19736.216855645354,-70.01319122314453,222.45809936523438,55.54866027832031,-379.63531494140625,-17.049823760986328,62.85457992553711,22.638601303100586,82.07679748535156,191.5266571044922,65535.0
19736.217255653908,-57.54193115234375,210.9483184814453,72.9876937866211,-409.0729064941406,-8.470455169677734,74.7529067993164,31.221391677856445,86.96659851074219,191.6757049560547,65535.0
19736.21765566246,-54.50469970703125,204.84658813476562,78.08773040771484,-409.7101135253906,-9.86737060546875,76.57347869873047,32.522953033447266,88.30647277832031,193.54617309570312,65535.0
19736.218055671015,-57.56366729736328,218.8852996826172,75.5440902709961,-406.6823425292969,-18.953914642333984,63.9881477355957,22.35727310180664,78.60741424560547,198.5878143310547,65535.0
19736.218455679566,-43.168521881103516,223.11663818359375,74.83743286132812,-399.2960205078125,-7.101901531219482,73.71403503417969,32.02389144897461,88.5799331665039,197.64320373535156,65535.0
19736.21885568812,-29.848501205444336,228.8942413330078,80.63184356689453,-382.81365966796875,-12.050728797912598,71.10423278808594,31.34828758239746,84.5608139038086,197.522705078125,65535.0
19736.219255696673,-10.929253578186035,231.589111328125,74.41810607910156,-392.40411376953125,-17.611492156982422,68.31843566894531,24.148195266723633,79.972900390625,197.42381286621094,65535.0
19736.219655705223,-9.279342651367188,224.2903289794922,72.15767669677734,-383.660888671875,-6.7293291091918945,75.16876983642578,33.45777893066406,88.8047103881836,197.588623046875,65535.0
19736.220055713777,-27.156204223632812,224.27769470214844,79.43148803710938,-368.2490539550781,-14.641257286071777,70.2039794921875,31.948871612548828,85.11654663085938,201.5480499267578,65535.0
19736.22045572233,-43.84341812133789,233.18841552734375,77.82681274414062,-356.51165771484375,-14.822782516479492,66.00424194335938,28.839183807373047,85.6238021850586,205.13597106933594,65535.0
19736.220855730884,-59.01384353637695,234.09791564941406,77.56505584716797,-343.6160888671875,-5.24046516418457,77.46981048583984,35.77531051635742,92.71006774902344,189.4853057861328,65535.0
19736.221255739434,-93.92227935791016,225.94483947753906,75.9417724609375,-347.4259338378906,-11.892690658569336,68.98126220703125,27.58005142211914,87.70612335205078,196.54669189453125,65535.0
19736.221655747988,-146.0616455078125,227.32675170898438,79.94046783447266,-371.4822998046875,-7.56036901473999,70.29228210449219,33.36705017089844,90.20950317382812,208.21922302246094,65535.0
19736.22205575654,-175.80291748046875,229.29931640625,82.64665985107422,-392.7323303222656,-7.398354530334473,75.94473266601562,36.60854721069336,93.16193389892578,195.3793182373047,65535.0
19736.22245576509,-210.16329956054688,217.83114624023438,73.73695373535156,-404.43341064453125,-12.406328201293945,68.32356262207031,32.29709243774414,89.14388275146484,195.80950927734375,65535.0
19736.222855773645,-219.1150360107422,212.3325653076172,72.66989135742188,-406.2177429199219,-15.204678535461426,63.35008239746094,27.546361923217773,84.34637451171875,202.58859252929688,65535.0
19736.2232557822,-185.42916870117188,207.04319763183594,71.6005630493164,-414.1926574707031,-8.037453651428223,73.59127044677734,33.28786087036133,91.04853057861328,186.32717895507812,65535.0
19736.223655790753,-182.17442321777344,225.0093994140625,79.23181915283203,-430.17474365234375,-15.221549034118652,62.86568832397461,24.793256759643555,80.86080932617188,194.25363159179688,65535.0
19736.224055799303,-184.25404357910156,219.16705322265625,79.60538482666016,-433.86041259765625,-15.302142143249512,59.78749084472656,27.764455795288086,84.74942779541016,210.50848388671875,65535.0
19736.224455807856,-189.75155639648438,205.73898315429688,76.27747344970703,-407.7559814453125,-13.930047988891602,58.77976608276367,27.117502212524414,86.72786712646484,188.6699981689453,65535.0
19736.22485581641,-220.55123901367188,222.41883850097656,87.81819152832031,-381.3115234375,-9.79510498046875,63.093326568603516,28.61922264099121,86.0622787475586,196.12808227539062,65535.0
19736.22525582496,-231.5879669189453,229.31617736816406,77.76005554199219,-366.6867370605469,-15.812661170959473,55.80397415161133,23.899120330810547,81.5204086303711,190.78834533691406,65535.0
19736.225655833514,-240.25404357910156,242.37118530273438,76.69656372070312,-348.5078430175781,-12.405586242675781,59.0288200378418,29.884037017822266,86.49201202392578,193.08370971679688,65535.0
19736.226055842068,-253.01071166992188,239.7205047607422,86.42301177978516,-325.80316162109375,-25.21906852722168,45.93156433105469,18.5627498626709,74.85767364501953,200.46005249023438,65535.0
19736.226455850618,-267.29376220703125,234.36911010742188,84.15473937988281,-322.763427734375,-29.125844955444336,37.098026275634766,10.959112167358398,67.87004089355469,199.93505859375,65535.0
19736.22685585917,-276.59783935546875,237.5899200439453,84.4277114868164,-319.72515869140625,-28.6510009765625,36.45358657836914,11.722644805908203,68.18584442138672,207.0072479248047,65535.0
19736.227255867725,-276.330322265625,244.79788208007812,83.152099609375,-328.7759704589844,-24.4787654876709,40.520687103271484,15.681151390075684,73.76344299316406,193.01168823242188,65535.0
19736.22765587628,-244.48703002929688,244.38031005859375,74.62028503417969,-354.3262023925781,-17.6735897064209,46.781463623046875,25.088905334472656,81.07933807373047,194.80702209472656,65535.0
19736.22805588483,-230.1978759765625,244.5713653564453,76.3510971069336,-348.6346740722656,-22.435041427612305,41.48523712158203,18.392684936523438,75.3777084350586,203.6708984375,65535.0
19736.228455893382,-236.78359985351562,238.9656219482422,73.33921813964844,-342.6617126464844,-36.72773742675781,24.135591506958008,4.983222961425781,58.979740142822266,201.8567352294922,65535.0
19736.228855901936,-210.54176330566406,241.88722229003906,72.093017578125,-362.42333984375,-33.66078186035156,26.314559936523438,8.284351348876953,62.2808952331543,211.16676330566406,65535.0
19736.229255910486,-165.52401733398438,227.83612060546875,82.533447265625,-411.1473083496094,-26.963489532470703,35.01323699951172,13.854646682739258,69.54830169677734,203.69833374023438,65535.0
19736.22965591904,-159.82330322265625,227.05783081054688,72.81094360351562,-428.6370849609375,-25.149066925048828,37.45505142211914,17.79596519470215,74.82441711425781,206.48150634765625,65535.0
19736.230055927594,-170.74656677246094,232.45140075683594,67.77758026123047,-425.0906677246094,-28.413541793823242,36.0849723815918,14.642070770263672,70.82526397705078,197.00030517578125,65535.0
19736.230455936147,-178.39646911621094,231.0185089111328,63.741458892822266,-401.75396728515625,-15.431283950805664,49.605228424072266,23.48446273803711,78.17437744140625,195.4200897216797,65535.0
19736.230855944697,-164.1853485107422,227.20440673828125,72.33268737792969,-382.9641418457031,-7.739611625671387,57.12680435180664,31.045114517211914,87.6026840209961,205.13958740234375,65535.0
19736.23125595325,-183.49331665039062,222.94952392578125,79.6481704711914,-356.20452880859375,-15.627998352050781,52.41248321533203,27.35859489440918,82.06375122070312,206.05609130859375,65535.0
19736.231655961805,-221.2685546875,227.326904296875,74.09014129638672,-350.80517578125,-8.097399711608887,59.854312896728516,31.3797664642334,88.56706237792969,202.94247436523438,65535.0
19736.232055970355,-223.33609008789062,225.15792846679688,75.56904602050781,-362.0177917480469,-6.4683942794799805,66.9294204711914,34.48129653930664,92.69625091552734,205.68515014648438,65535.0
19736.23245597891,-227.63975524902344,222.82058715820312,80.78194427490234,-361.3726806640625,-11.457754135131836,61.742549896240234,33.578826904296875,89.7444839477539,184.8218231201172,65535.0
19736.232855987462,-230.51597595214844,224.55653381347656,77.53718566894531,-360.2490539550781,-14.15921688079834,54.23731994628906,28.96836280822754,84.00801086425781,183.66880798339844,65535.0
19736.233255996016,-238.7683868408203,216.42247009277344,60.76368713378906,-326.7580871582031,-11.974774360656738,60.962467193603516,28.98208999633789,88.4382553100586,204.89735412597656,65535.0
19736.233656004566,-251.23973083496094,228.31832885742188,60.61588668823242,-266.8398742675781,-16.876388549804688,54.45530319213867,25.008325576782227,81.17105102539062,191.9158935546875,65535.0
19736.23405601312,-246.06961059570312,227.97930908203125,77.9504165649414,-233.28854370117188,-12.158456802368164,62.57048416137695,30.209882736206055,85.87203979492188,193.81004333496094,65535.0
19736.234456021673,-233.0822296142578,232.80825805664062,68.56957244873047,-229.45762634277344,-2.088536500930786,78.37537384033203,40.14837646484375,93.9363021850586,198.44747924804688,65535.0
19736.234856030223,-224.7447509765625,222.29660034179688,66.36844635009766,-238.1772918701172,-16.072406768798828,64.56573486328125,27.837860107421875,82.47244262695312,211.0298309326172,65535.0
19736.235256038777,-233.3172149658203,219.47962951660156,67.87163543701172,-237.5544891357422,-15.17936897277832,63.82204818725586,26.686187744140625,83.64529418945312,205.6096954345703,65535.0
19736.23565604733,-251.7103271484375,220.3230743408203,61.58033752441406,-221.47145080566406,-4.945893287658691,75.42976379394531,36.5003547668457,93.60950469970703,200.8590850830078,65535.0
19736.236056055885,-264.5513916015625,221.9769744873047,67.45446014404297,-209.40594482421875,-14.678823471069336,67.7944564819336,26.252933502197266,82.54379272460938,199.1527862548828,65535.0
19736.236456064435,-273.857666015625,221.20643615722656,65.70410919189453,-224.66070556640625,-12.990796089172363,70.9435043334961,29.501665115356445,86.97499084472656,187.12185668945312,65535.0
19736.23685607299,-284.97637939453125,225.71034240722656,57.23305130004883,-235.00418090820312,-6.729127883911133,77.38159942626953,35.93868637084961,92.78860473632812,194.382080078125,65535.0
19736.237256081542,-283.28753662109375,226.68966674804688,60.30506134033203,-228.89108276367188,-6.74849271774292,73.65522003173828,34.362918853759766,91.98747253417969,184.54522705078125,65535.0
19736.237656090092,-259.7130126953125,229.29298400878906,55.75553512573242,-216.24566650390625,-10.48863697052002,68.4815902709961,27.161428451538086,83.85816955566406,198.1389617919922,65535.0
19736.238056098646,-239.66946411132812,224.53109741210938,58.12517547607422,-215.12107849121094,0.8358074426651001,82.10362243652344,37.8417854309082,94.5213394165039,203.6502227783203,65535.0
19736.2384561072,-266.1254577636719,216.71128845214844,65.10714721679688,-208.98294067382812,-12.441516876220703,74.01587677001953,30.001476287841797,86.59161376953125,202.2865753173828,65535.0
19736.238856115753,-264.87646484375,226.80003356933594,58.48761749267578,-193.40794372558594,-16.316011428833008,68.70091247558594,24.976533889770508,79.99373626708984,197.27938842773438,65535.0
19736.239256124303,-242.78619384765625,230.21168518066406,62.39171600341797,-182.42025756835938,-11.379895210266113,71.48542022705078,30.327556610107422,86.2812271118164,193.82786560058594,65535.0
19736.239656132857,-238.0968475341797,232.08343505859375,66.68864440917969,-199.25025939941406,-15.91108226776123,69.73027038574219,27.065622329711914,83.1289291381836,193.1800079345703,65535.0
19736.24005614141,-222.9886932373047,231.8046112060547,75.7906494140625,-240.43084716796875,-17.974824905395508,64.8332290649414,24.814258575439453,80.72096252441406,202.91249084472656,65535.0
19736.24045614996,-217.86550903320312,240.99380493164062,72.54651641845703,-281.158935546875,-22.41476821899414,60.36311340332031,20.89090347290039,76.37102508544922,204.980712890625,65535.0
19736.240856158514,-220.27687072753906,234.20530700683594,72.21968841552734,-300.71685791015625,-35.06277084350586,47.31611251831055,8.838726997375488,64.71244049072266,186.85250854492188,65535.0
19736.241256167068,-220.57855224609375,226.27101135253906,76.42349243164062,-312.6396484375,-18.13802146911621,60.67481231689453,22.276451110839844,80.63508605957031,197.75689697265625,65535.0
19736.24165617562,-213.3663330078125,239.57582092285156,86.70170593261719,-331.9261779785156,-17.812456130981445,58.06796646118164,23.09747886657715,78.66778564453125,204.39695739746094,65535.0
19736.24205618417,-213.03271484375,247.04624938964844,82.64310455322266,-347.0004577636719,-21.849990844726562,51.464054107666016,18.477123260498047,72.88982391357422,193.11248779296875,65535.0
19736.242456192726,-211.185302734375,243.3643035888672,75.62541198730469,-347.6731872558594,-15.084845542907715,61.895442962646484,25.67017936706543,83.34162139892578,186.70484924316406,65535.0
19736.24285620128,-223.91358947753906,251.21047973632812,79.6900634765625,-378.20831298828125,-15.84281063079834,61.78254318237305,25.354206085205078,80.47176361083984,192.42564392089844,65535.0
19736.24325620983,-219.8253631591797,252.6772918701172,84.49983215332031,-402.12158203125,-9.534954071044922,65.76838684082031,30.12483024597168,83.77191162109375,190.26210021972656,65535.0
19736.243656218383,-201.47317504882812,253.78761291503906,88.0852279663086,-410.7786560058594,-16.949054718017578,60.85462951660156,26.164976119995117,80.78299713134766,202.31118774414062,65535.0
19736.244056226937,-197.46682739257812,261.1322937011719,79.42255401611328,-410.4455871582031,-23.771068572998047,47.192569732666016,19.228588104248047,74.5754623413086,195.792236328125,65535.0
19736.24445623549,-199.30728149414062,255.51441955566406,79.29679870605469,-422.9246826171875,-13.615448951721191,57.21297836303711,26.884857177734375,84.24829864501953,197.08419799804688,65535.0
19736.24485624404,-216.41331481933594,260.2548522949219,88.77738952636719,-450.7317810058594,-17.054340362548828,56.51713180541992,23.097122192382812,80.94236755371094,198.19813537597656,65535.0
19736.245256252594,-225.05804443359375,261.49072265625,83.345703125,-509.4937438964844,-21.331727981567383,50.08909606933594,19.729455947875977,75.53217315673828,196.7620391845703,65535.0
19736.245656261148,-218.32447814941406,249.96141052246094,79.36969757080078,-527.3314819335938,-27.50532341003418,38.42533874511719,15.175735473632812,68.78598022460938,201.8004913330078,65535.0
19736.246056269698,-200.34176635742188,258.93426513671875,87.1611557006836,-510.650390625,-21.316770553588867,44.562225341796875,21.25990867614746,76.81316375732422,202.24276733398438,65535.0
19736.24645627825,-190.70204162597656,264.3001708984375,78.92789459228516,-524.7700805664062,-20.318790435791016,47.59043884277344,21.414670944213867,74.90105438232422,192.3872833251953,65535.0
19736.246856286805,-171.28610229492188,274.1614074707031,84.7641830444336,-541.33544921875,-24.497798919677734,36.47032165527344,14.582833290100098,69.08153533935547,208.0218505859375,65535.0
19736.24725629536,-168.30621337890625,270.5998229980469,90.3331069946289,-529.3202514648438,-27.649085998535156,35.95471954345703,17.472719192504883,70.61041259765625,204.8665008544922,65535.0
19736.24765630391,-159.86846923828125,264.38507080078125,82.7271728515625,-471.14605712890625,-23.554258346557617,38.29536819458008,19.62745475769043,75.1178970336914,198.01524353027344,65535.0
19736.248056312463,-153.9677276611328,260.08160400390625,83.45072937011719,-375.8091125488281,-20.55358123779297,42.23683166503906,20.809127807617188,78.99850463867188,193.25088500976562,65535.0
19736.248456321016,-146.0394287109375,254.78155517578125,81.7981948852539,-296.044921875,-17.79714584350586,43.19028091430664,24.283489227294922,77.83540344238281,187.42311096191406,65535.0
19736.248856329566,-139.4839630126953,258.2196960449219,74.77641296386719,-274.76336669921875,-15.423685073852539,47.053524017333984,26.556020736694336,84.4590072631836,196.97518920898438,65535.0
19736.24925633812,-138.11380004882812,260.1991271972656,76.77141571044922,-281.0460205078125,-18.744653701782227,43.58790969848633,23.152132034301758,80.6936264038086,210.7056427001953,65535.0
19736.249656346674,-142.91104125976562,251.94346618652344,70.2426528930664,-302.2093200683594,-9.942805290222168,51.90887451171875,31.430599212646484,86.51415252685547,209.91622924804688,65535.0
19736.250056355228,-138.42933654785156,256.60491943359375,64.65338897705078,-333.5678405761719,-16.463621139526367,50.998313903808594,28.378402709960938,82.61238098144531,190.79006958007812,65535.0
19736.250456363778,-139.85446166992188,257.9942321777344,72.85099029541016,-400.3575439453125,-11.402470588684082,50.69523620605469,29.32288360595703,81.89563751220703,185.41175842285156,65535.0
19736.25085637233,-140.73495483398438,237.40542602539062,71.59222412109375,-475.2137145996094,-12.171695709228516,51.2715950012207,28.367876052856445,84.61052703857422,193.9018096923828,65535.0
19736.251256380885,-135.46142578125,228.511474609375,68.43218231201172,-504.780517578125,-8.33045482635498,54.57491683959961,32.845497131347656,88.57681274414062,196.13937377929688,65535.0
19736.251656389435,-134.62779235839844,234.49334716796875,74.67095184326172,-492.4706726074219,-11.27904224395752,54.00586700439453,31.430681228637695,84.6568374633789,203.56787109375,65535.0
19736.25205639799,-140.6275634765625,242.17083740234375,56.793697357177734,-471.3243408203125,-8.047287940979004,58.350425720214844,34.363162994384766,90.35895538330078,203.36773681640625,65535.0
19736.252456406542,-152.88409423828125,237.77635192871094,55.640625,-444.9416809082031,-8.725184440612793,61.97148132324219,34.56139373779297,90.16352081298828,195.76968383789062,65535.0
19736.252856415096,-158.41830444335938,238.3120574951172,64.75540161132812,-430.204345703125,-2.1400492191314697,69.93429565429688,40.83311080932617,95.32398986816406,191.8924560546875,65535.0
19736.253256423646,-151.61740112304688,246.63177490234375,67.25524139404297,-417.3702697753906,7.532785415649414,77.90228271484375,47.46561813354492,106.38595581054688,203.26284790039062,65535.0
19736.2536564322,-153.0201873779297,240.48980712890625,59.12606430053711,-390.1872253417969,5.221113681793213,79.22747039794922,46.561344146728516,101.66059875488281,204.39505004882812,65535.0
19736.254056440754,-153.67535400390625,239.1521759033203,60.166507720947266,-354.068115234375,1.313586711883545,76.4005126953125,42.784393310546875,98.7720947265625,195.41148376464844,65535.0
19736.254456449304,-144.06576538085938,239.10830688476562,59.73003005981445,-322.4267883300781,-1.0349044799804688,78.02308654785156,42.99187469482422,97.60018157958984,189.42779541015625,65535.0
19736.254856457857,-144.4376220703125,231.1323699951172,60.83201217651367,-303.25701904296875,-9.08527946472168,72.73442077636719,35.27667999267578,91.06809997558594,207.7566680908203,65535.0
19736.25525646641,-155.78756713867188,226.12518310546875,70.24175262451172,-298.3607177734375,-1.8833767175674438,76.7216567993164,40.64484786987305,96.2527084350586,211.4911346435547,65535.0
19736.255656474965,-156.8522186279297,239.6104278564453,60.4028434753418,-290.6580810546875,5.239757061004639,83.73515319824219,47.76598358154297,102.51717376708984,199.62399291992188,65535.0
19736.256056483515,-150.2744598388672,229.98863220214844,57.771331787109375,-294.75,1.6312803030014038,82.110107421875,43.15863037109375,99.9317855834961,204.7232666015625,65535.0
19736.25645649207,-151.35067749023438,230.1418914794922,60.045894622802734,-314.0968933105469,-6.809810638427734,73.0442886352539,35.009395599365234,91.88330841064453,196.00418090820312,65535.0
19736.256856500622,-156.51368713378906,226.95558166503906,53.44158172607422,-338.2343444824219,-5.492550373077393,73.17206573486328,35.527523040771484,93.85118865966797,200.54872131347656,65535.0
19736.257256509172,-163.8541259765625,224.6674346923828,60.10369110107422,-362.5570983886719,-0.9255794286727905,79.1598892211914,40.92960739135742,98.256103515625,206.04576110839844,65535.0
19736.257656517726,-162.82435607910156,220.94146728515625,63.86756134033203,-392.3454895019531,-1.791414737701416,80.96508026123047,40.876285552978516,97.87351989746094,192.05430603027344,65535.0
19736.25805652628,-160.19943237304688,222.3187255859375,61.44980239868164,-409.1170959472656,2.7945635318756104,84.87480926513672,43.36298370361328,100.03791046142578,197.1047821044922,65535.0
19736.258456534833,-163.7218475341797,227.86721801757812,61.926815032958984,-402.27435302734375,-3.3465394973754883,80.3221435546875,43.268672943115234,96.1176528930664,184.66993713378906,65535.0
19736.258856543383,-163.8914337158203,226.6791534423828,62.94596862792969,-401.8096008300781,-6.508913040161133,78.48757934570312,37.87523651123047,92.93801879882812,194.40786743164062,65535.0
19736.259256551937,-178.2260284423828,226.94192504882812,64.25633239746094,-411.2554931640625,-8.944388389587402,73.45481872558594,31.917802810668945,91.48934936523438,209.48114013671875,65535.0
19736.25965656049,-184.99534606933594,236.5050048828125,67.37945556640625,-415.761474609375,-4.205811023712158,70.97216033935547,35.12470626831055,90.24842071533203,206.28013610839844,65535.0
