time,X_NOSE,Y_NOSE,Z_NOSE,visibility_NOSE,X_LEFT_EYE_INNER,Y_LEFT_EYE_INNER,Z_LEFT_EYE_INNER,visibility_LEFT_EYE_INNER,X_LEFT_EYE,Y_LEFT_EYE,Z_LEFT_EYE,visibility_LEFT_EYE,X_LEFT_EYE_OUTER,Y_LEFT_EYE_OUTER,Z_LEFT_EYE_OUTER,visibility_LEFT_EYE_OUTER,X_RIGHT_EYE_OUTER,Y_RIGHT_EYE_OUTER,Z_RIGHT_EYE_OUTER,visibility_RIGHT_EYE_OUTER,X_RIGHT_EYE,Y_RIGHT_EYE,Z_RIGHT_EYE,visibility_RIGHT_EYE,X_RIGHT_EYE_OUTER,Y_RIGHT_EYE_OUTER,Z_RIGHT_EYE_OUTER,visibility_RIGHT_EYE_OUTER,X_LEFT_EAR,Y_LEFT_EAR,Z_LEFT_EAR,visibility_LEFT_EAR,X_RIGHT_EAR,Y_RIGHT_EAR,Z_RIGHT_EAR,visibility_RIGHT_EAR,X_MOUTH_LEFT,Y_MOUTH_LEFT,Z_MOUTH_LEFT,visibility_MOUTH_LEFT,X_MOUTH_RIGHT,Y_MOUTH_RIGHT,Z_MOUTH_RIGHT,visibility_MOUTH_RIGHT,X_LEFT_SHOULDER,Y_LEFT_SHOULDER,Z_LEFT_SHOULDER,visibility_LEFT_SHOULDER,X_RIGHT_SHOULDER,Y_RIGHT_SHOULDER,Z_RIGHT_SHOULDER,visibility_RIGHT_SHOULDER,X_LEFT_ELBOW,Y_LEFT_ELBOW,Z_LEFT_ELBOW,visibility_LEFT_ELBOW,X_RIGHT_ELBOW,Y_RIGHT_ELBOW,Z_RIGHT_ELBOW,visibility_RIGHT_ELBOW,X_LEFT_WRIST,Y_LEFT_WRIST,Z_LEFT_WRIST,visibility_LEFT_WRIST,X_RIGHT_WRIST,Y_RIGHT_WRIST,Z_RIGHT_WRIST,visibility_RIGHT_WRIST,X_LEFT_PINKY,Y_LEFT_PINKY,Z_LEFT_PINKY,visibility_LEFT_PINKY,X_RIGHT_PINKY,Y_RIGHT_PINKY,Z_RIGHT_PINKY,visibility_RIGHT_PINKY,X_LEFT_INDEX,Y_LEFT_INDEX,Z_LEFT_INDEX,visibility_LEFT_INDEX,X_RIGHT_INDEX,Y_RIGHT_INDEX,Z_RIGHT_INDEX,visibility_RIGHT_INDEX,X_LEFT_THUMB,Y_LEFT_THUMB,Z_LEFT_THUMB,visibility_LEFT_THUMB,X_RIGHT_THUMB,Y_RIGHT_THUMB,Z_RIGHT_THUMB,visibility_RIGHT_THUMB,X_LEFT_HIP,Y_LEFT_HIP,Z_LEFT_HIP,visibility_LEFT_HIP,X_RIGHT_HIP,Y_RIGHT_HIP,Z_RIGHT_HIP,visibility_RIGHT_HIP,X_LEFT_KNEE,Y_LEFT_KNEE,Z_LEFT_KNEE,visibility_LEFT_KNEE,X_RIGHT_KNEE,Y_RIGHT_KNEE,Z_RIGHT_KNEE,visibility_RIGHT_KNEE,X_LEFT_ANKLE,Y_LEFT_ANKLE,Z_LEFT_ANKLE,visibility_LEFT_ANKLE,X_RIGHT_ANKLE,Y_RIGHT_ANKLE,Z_RIGHT_ANKLE,visibility_RIGHT_ANKLE,X_LEFT_HEEL,Y_LEFT_HEEL,Z_LEFT_HEEL,visibility_LEFT_HEEL,X_RIGHT_HEEL,Y_RIGHT_HEEL,Z_RIGHT_HEEL,visibility_RIGHT_HEEL,X_LEFT_FOOT_INDEX,Y_LEFT_FOOT_INDEX,Z_LEFT_FOOT_INDEX,visibility_LEFT_FOOT_INDEX,X_RIGHT_FOOT_INDEX,Y_RIGHT_FOOT_INDEX,Z_RIGHT_FOOT_INDEX,visibility_RIGHT_FOOT_INDEX
17923.347435142758,0.443347692489624,0.23334240913391113,-0.9664733409881592,0.999980092048645,0.4473651945590973,0.20974600315093994,-0.9012855887413025,0.9999638795852661,0.4557013213634491,0.20858147740364075,-0.9014085531234741,0.9999595880508423,0.46318602561950684,0.2072768211364746,-0.9014123678207397,0.999951958656311,0.4156653881072998,0.2114940583705902,-0.9357404112815857,0.9999681711196899,0.39727306365966797,0.21168196201324463,-0.9358341097831726,0.9999667406082153,0.377846896648407,0.21225506067276,-0.9359360933303833,0.999961256980896,0.452540785074234,0.214283287525177,-0.525655210018158,0.9999603033065796,0.3261649012565613,0.2224903106689453,-0.6911939978599548,0.9999731779098511,0.4510921239852905,0.2557758390903473,-0.8268406987190247,0.9999880790710449,0.4175199866294861,0.2584812045097351,-0.8735763430595398,0.9999914169311523,0.5326673984527588,0.3461603820323944,-0.26734498143196106,0.9999028444290161,0.1788955181837082,0.3711698353290558,-0.561222493648529,0.9997797608375549,0.5864079594612122,0.5081753730773926,-0.011124718934297562,0.972312331199646,0.1496674120426178,0.5222799181938171,-0.7782915234565735,0.9752441048622131,0.6472402811050415,0.6359951496124268,-0.25451216101646423,0.9732822775840759,0.24692542850971222,0.5535050630569458,-1.297690987586975,0.9440170526504517,0.6666884422302246,0.6784295439720154,-0.3357797861099243,0.9542473554611206,0.2883508801460266,0.563506543636322,-1.4276942014694214,0.9251542687416077,0.6514265537261963,0.6771056652069092,-0.42826130986213684,0.9581779837608337,0.2901727557182312,0.5316126942634583,-1.48037588596344,0.9271619319915771,0.6412782669067383,0.6675963997840881,-0.2950167953968048,0.9588499665260315,0.27937477827072144,0.526644229888916,-1.3278229236602783,0.9105353355407715,0.4897165894508362,0.6318603754043579,0.11184185743331909,0.9985154271125793,0.31719234585762024,0.6518463492393494,-0.11145340651273727,0.9987618923187256,0.48691433668136597,0.8303203582763672,0.3833712339401245,0.9560188055038452,0.33747008442878723,0.864652156829834,0.1256963312625885,0.9801102876663208,0.4860950708389282,0.9563671946525574,1.2128221988677979,0.9040666818618774,0.355486124753952,0.9872555136680603,0.8126397132873535,0.9277262091636658,0.46168187260627747,0.9675220847129822,1.2770742177963257,0.8706725835800171,0.35473722219467163,0.9867025017738342,0.8676303029060364,0.7458205819129944,0.547761082649231,1.016721248626709,0.9947606921195984,0.8711702227592468,0.4011540710926056,1.0770124197006226,0.48112738132476807,0.8316186666488647
17940.014101809425,0.44233718514442444,0.23688611388206482,-0.9587613344192505,0.999974250793457,0.44914141297340393,0.21205559372901917,-0.8935938477516174,0.9999533891677856,0.4577251374721527,0.21107763051986694,-0.8937286734580994,0.999948263168335,0.465334951877594,0.21046245098114014,-0.8937713503837585,0.9999376535415649,0.41682344675064087,0.21335750818252563,-0.9300214052200317,0.999957799911499,0.39870336651802063,0.2133292555809021,-0.9301227927207947,0.9999576807022095,0.3788182735443115,0.21395644545555115,-0.9302865266799927,0.9999517202377319,0.45627227425575256,0.2174646556377411,-0.5093299746513367,0.9999562501907349,0.3257843554019928,0.2242220938205719,-0.6812447905540466,0.9999672174453735,0.4498313069343567,0.2598861753940582,-0.8139727711677551,0.999987006187439,0.41584768891334534,0.26227447390556335,-0.8627642393112183,0.9999901056289673,0.5350794792175293,0.3460223078727722,-0.23781462013721466,0.9999170303344727,0.17720060050487518,0.37084197998046875,-0.5366342067718506,0.9997052550315857,0.5851390957832336,0.5090404152870178,0.06278476119041443,0.9731935262680054,0.15409740805625916,0.5310092568397522,-0.7887929677963257,0.9716296195983887,0.6471557021141052,0.6373418569564819,-0.15539883077144623,0.9733388423919678,0.23891489207744598,0.5519978404045105,-1.383339524269104,0.9511704444885254,0.6673212647438049,0.6793909072875977,-0.23041373491287231,0.9552769660949707,0.28159981966018677,0.5629981756210327,-1.5215083360671997,0.936165988445282,0.6518168449401855,0.6780450940132141,-0.3230440020561218,0.9593956470489502,0.28317123651504517,0.5278300642967224,-1.5774601697921753,0.9389179944992065,0.6415141820907593,0.6678892374038696,-0.19478507339954376,0.960010826587677,0.273194283246994,0.5223237872123718,-1.4159210920333862,0.9235849380493164,0.4903177320957184,0.6354943513870239,0.09355694055557251,0.9988382458686829,0.3186664581298828,0.6568909883499146,-0.09305417537689209,0.998822033405304,0.4876262843608856,0.8350961804389954,0.2390163391828537,0.9705810546875,0.34150102734565735,0.8705871105194092,0.09635154157876968,0.9687625765800476,0.48778337240219116,0.9545801281929016,1.167299509048462,0.9076105952262878,0.35581427812576294,0.9867925643920898,0.8669857382774353,0.8995503783226013,0.4685119688510895,0.9645630121231079,1.240493655204773,0.8339117765426636,0.3557896316051483,0.9843319654464722,0.9302837252616882,0.6738904714584351,0.5325955152511597,1.0214476585388184,0.9292848706245422,0.8520298004150391,0.39178380370140076,1.0795525312423706,0.526687741279602,0.7844833135604858
17956.680768476093,0.4424622654914856,0.23755507171154022,-0.8971585631370544,0.9999550580978394,0.4492495656013489,0.21295490860939026,-0.834352970123291,0.9999173879623413,0.4573756158351898,0.21183690428733826,-0.8345149755477905,0.9999045133590698,0.4646218419075012,0.21114486455917358,-0.834549605846405,0.9998883008956909,0.4179675579071045,0.2145075500011444,-0.8728063702583313,0.9999303817749023,0.4004438817501068,0.2146090865135193,-0.8729267120361328,0.9999288320541382,0.3806292414665222,0.21513256430625916,-0.8731281161308289,0.999922513961792,0.45379793643951416,0.21746444702148438,-0.45956772565841675,0.9999125003814697,0.3279767632484436,0.22427156567573547,-0.640070915222168,0.9999474287033081,0.4495212733745575,0.260163813829422,-0.7547795176506042,0.9999783039093018,0.4159598648548126,0.2627343535423279,-0.8059113025665283,0.9999858140945435,0.5311984419822693,0.3449258804321289,-0.19797486066818237,0.9998829364776611,0.1702827364206314,0.3698405921459198,-0.4984290897846222,0.9997009038925171,0.5855739116668701,0.5083938241004944,0.08123058825731277,0.9748843908309937,0.14473207294940948,0.5306686162948608,-0.7012990713119507,0.9736985564231873,0.6474524736404419,0.636875569820404,-0.17131274938583374,0.9716586470603943,0.24908336997032166,0.5568020343780518,-1.236301302909851,0.949701726436615,0.6653257608413696,0.6799359917640686,-0.2566971480846405,0.9526589512825012,0.2987169921398163,0.5682740807533264,-1.3630216121673584,0.9346616864204407,0.6510339975357056,0.679334282875061,-0.34558019042015076,0.9573286771774292,0.29565149545669556,0.5370608568191528,-1.4255057573318481,0.9382273554801941,0.6416701078414917,0.668595016002655,-0.21051804721355438,0.9584018588066101,0.28361621499061584,0.530436098575592,-1.2682536840438843,0.9234241843223572,0.4902516305446625,0.6393665671348572,0.09640707820653915,0.9982000589370728,0.3169396221637726,0.6577793955802917,-0.09584867209196091,0.998327910900116,0.48729124665260315,0.8383451104164124,0.1907130479812622,0.9578188061714172,0.34305834770202637,0.8666498064994812,0.059387583285570145,0.9566489458084106,0.48838499188423157,0.9627978205680847,1.0621799230575562,0.8719354271888733,0.35470956563949585,0.9821401238441467,0.7826889157295227,0.8649801015853882,0.46843457221984863,0.9726244807243347,1.1303426027297974,0.815596342086792,0.3527022898197174,0.9827502369880676,0.841159462928772,0.6392524242401123,0.5375189781188965,1.021710753440857,0.8301921486854553,0.806229293346405,0.38562071323394775,1.0861303806304932,0.4437440037727356,0.7215611338615417
17973.34743514276,0.4443228244781494,0.2375832200050354,-0.903942883014679,0.9999746084213257,0.4496553838253021,0.2135225534439087,-0.8435714244842529,0.9999533891677856,0.45688241720199585,0.2125624716281891,-0.8437374234199524,0.9999473094940186,0.46364012360572815,0.21177834272384644,-0.8437778353691101,0.9999383687973022,0.4205136299133301,0.21499475836753845,-0.8812794089317322,0.9999595880508423,0.4046977460384369,0.21502402424812317,-0.8813960552215576,0.9999579191207886,0.38543248176574707,0.2153102457523346,-0.8815536499023438,0.9999533891677856,0.44900110363960266,0.21786421537399292,-0.4787060022354126,0.9999536275863647,0.3303353488445282,0.224636048078537,-0.6565490961074829,0.9999663829803467,0.44962096214294434,0.2595863342285156,-0.7650444507598877,0.999987006187439,0.41810470819473267,0.26237916946411133,-0.8154746294021606,0.9999905824661255,0.5317238569259644,0.3461562395095825,-0.2396983802318573,0.9999210834503174,0.1709069162607193,0.36884915828704834,-0.4971889555454254,0.999745786190033,0.5859528183937073,0.5087921619415283,0.01854514144361019,0.9803938865661621,0.14543062448501587,0.5292332768440247,-0.7016682624816895,0.9734299182891846,0.6467639207839966,0.6372684240341187,-0.2439982295036316,0.9777818918228149,0.24548852443695068,0.556045413017273,-1.2536237239837646,0.9554499387741089,0.6649498343467712,0.6794319152832031,-0.33253827691078186,0.9606142640113831,0.28776729106903076,0.5666947960853577,-1.3805007934570312,0.9411091804504395,0.6518504619598389,0.6783204674720764,-0.4203864634037018,0.9642595648765564,0.29084914922714233,0.5369071960449219,-1.439500331878662,0.943854808807373,0.642329752445221,0.6683834195137024,-0.28251808881759644,0.9646304845809937,0.2792198657989502,0.5303617715835571,-1.2850573062896729,0.9303808808326721,0.4929179549217224,0.6381736993789673,0.07265197485685349,0.9979754090309143,0.3191157579421997,0.6601598262786865,-0.07210679352283478,0.9981696605682373,0.4860614538192749,0.8419592976570129,0.18715593218803406,0.9613217711448669,0.3462650179862976,0.8743678331375122,0.07658591866493225,0.9540894031524658,0.4915083944797516,0.9648153781890869,1.0403937101364136,0.8706097602844238,0.3633190393447876,0.9920910000801086,0.7703982591629028,0.8561728000640869,0.4764653146266937,0.9734369516372681,1.1063565015792847,0.8004235029220581,0.36506012082099915,0.9901612401008606,0.8260470032691956,0.628587007522583,0.5478072166442871,1.044371485710144,0.8083910346031189,0.7992268204689026,0.39246535301208496,1.0933407545089722,0.43743792176246643,0.7135270237922668
17990.01410180943,0.44278329610824585,0.23681366443634033,-0.9937751293182373,0.9999804496765137,0.44871973991394043,0.21274760365486145,-0.9314980506896973,0.999962329864502,0.4567593038082123,0.2117268145084381,-0.9316086769104004,0.9999569654464722,0.464012086391449,0.2111218273639679,-0.9315905570983887,0.9999476671218872,0.4178406298160553,0.21416935324668884,-0.9666975736618042,0.9999686479568481,0.40040358901023865,0.21435678005218506,-0.9668236970901489,0.9999682903289795,0.38076311349868774,0.2149505913257599,-0.9669787883758545,0.9999650716781616,0.4530254602432251,0.21808543801307678,-0.5559677481651306,0.9999580383300781,0.3280242383480072,0.2248179316520691,-0.7224645614624023,0.9999748468399048,0.44949400424957275,0.25983306765556335,-0.8520731925964355,0.99998939037323,0.4164145290851593,0.26250341534614563,-0.8991402983665466,0.999993085861206,0.532614529132843,0.3459137976169586,-0.28740549087524414,0.9999126195907593,0.17249834537506104,0.3714355528354645,-0.5686724185943604,0.9997977614402771,0.5847269296646118,0.5097396373748779,-0.008809607475996017,0.9777906537055969,0.14267222583293915,0.5340394973754883,-0.7841504812240601,0.9822371602058411,0.6439459919929504,0.6369455456733704,-0.25722041726112366,0.9762125611305237,0.2598573863506317,0.5551192760467529,-1.3376227617263794,0.9673216938972473,0.662665843963623,0.6790825724601746,-0.3408421277999878,0.9581067562103271,0.3087049722671509,0.5659382343292236,-1.4691390991210938,0.9533668160438538,0.6485812664031982,0.6777528524398804,-0.43099504709243774,0.9617434144020081,0.3067275285720825,0.5352460145950317,-1.5219413042068481,0.9549684524536133,0.6382026672363281,0.6680315732955933,-0.2963285744190216,0.9624239206314087,0.2935248613357544,0.5276358723640442,-1.3663008213043213,0.9430499076843262,0.49209970235824585,0.6379628777503967,0.09090790897607803,0.9982965588569641,0.31882065534591675,0.6597955226898193,-0.09038670361042023,0.9985234141349792,0.4868006408214569,0.8393639326095581,0.22603745758533478,0.9621174931526184,0.3478548526763916,0.8708994388580322,0.07759581506252289,0.9680368900299072,0.49040913581848145,0.9618127942085266,1.0720832347869873,0.8917455673217773,0.3627397119998932,0.9887402653694153,0.7877104878425598,0.8891159296035767,0.4731152057647705,0.9719023704528809,1.136650562286377,0.829167366027832,0.3605337142944336,0.9875040650367737,0.8444179892539978,0.6723871827125549,0.5451916456222534,1.023108720779419,0.8294317126274109,0.8360819816589355,0.4066617488861084,1.0896391868591309,0.4439637064933777,0.7618897557258606
18006.680768476097,0.4424177408218384,0.23727867007255554,-0.9786773324012756,0.9999872446060181,0.44888076186180115,0.21317747235298157,-0.9173594117164612,0.9999752044677734,0.45719820261001587,0.21216675639152527,-0.9174476265907288,0.9999719858169556,0.46474942564964294,0.21153905987739563,-0.9174261689186096,0.9999657869338989,0.4171096682548523,0.21445271372795105,-0.9530824422836304,0.9999790191650391,0.39928191900253296,0.21456292271614075,-0.9532040953636169,0.9999790191650391,0.37985777854919434,0.21508491039276123,-0.9533279538154602,0.9999760389328003,0.4546239376068115,0.21794933080673218,-0.544317364692688,0.9999735355377197,0.3280567228794098,0.22459527850151062,-0.715072751045227,0.9999828338623047,0.4492811858654022,0.2604890763759613,-0.8376664519309998,0.999992847442627,0.4152311682701111,0.262810617685318,-0.8859919309616089,0.9999951124191284,0.531328022480011,0.3455571234226227,-0.2792436182498932,0.99993896484375,0.17399001121520996,0.36998429894447327,-0.5612146854400635,0.9998306035995483,0.585470974445343,0.5086548924446106,0.0076712630689144135,0.9824419617652893,0.14583107829093933,0.5317012667655945,-0.7918584942817688,0.9815672039985657,0.6451078653335571,0.6357819437980652,-0.21891383826732635,0.9819367527961731,0.2510091960430145,0.5535526871681213,-1.3611600399017334,0.9663869738578796,0.6634073257446289,0.6789646148681641,-0.29660066962242126,0.966882050037384,0.30362609028816223,0.5640422701835632,-1.4925754070281982,0.9532425403594971,0.6475082039833069,0.6776279807090759,-0.38664722442626953,0.9697712659835815,0.297211229801178,0.5308919548988342,-1.5453497171401978,0.9548150897026062,0.6371061205863953,0.6679947972297668,-0.2569185197353363,0.9699404835700989,0.28564825654029846,0.5245959758758545,-1.3906339406967163,0.9430875182151794,0.49178752303123474,0.6341215372085571,0.09279055148363113,0.9984272718429565,0.31675809621810913,0.6556577086448669,-0.09227542579174042,0.9986224174499512,0.4876070022583008,0.8328379392623901,0.22851602733135223,0.9656398296356201,0.34617385268211365,0.8681648969650269,0.05858117714524269,0.9724551439285278,0.4897352159023285,0.9591069221496582,1.0529910326004028,0.9033830165863037,0.3634863495826721,0.9886748194694519,0.7376852035522461,0.9046825170516968,0.4701213240623474,0.9704873561859131,1.1156615018844604,0.8465467691421509,0.3704512417316437,1.0170589685440063,0.7909404635429382,0.6942896246910095,0.5476906299591064,1.0191618204116821,0.815893292427063,0.8515869379043579,0.41025400161743164,1.0893278121948242,0.3929826617240906,0.7837314605712891
18023.347435142765,0.4446934759616852,0.23176789283752441,-0.9850271344184875,0.9999779462814331,0.44807949662208557,0.20768621563911438,-0.917996346950531,0.9999600648880005,0.4564098119735718,0.2066885530948639,-0.9181126952171326,0.9999555349349976,0.4641375243663788,0.20561712980270386,-0.9181065559387207,0.9999468326568604,0.4172924757003784,0.20894724130630493,-0.9565072059631348,0.9999649524688721,0.3990381360054016,0.20900294184684753,-0.9565911293029785,0.9999648332595825,0.37964266538619995,0.20954152941703796,-0.9567287564277649,0.9999587535858154,0.4538692533969879,0.21219754219055176,-0.5301944613456726,0.9999589920043945,0.32725244760513306,0.21988320350646973,-0.7128684520721436,0.9999713897705078,0.45272672176361084,0.25468289852142334,-0.8402223587036133,0.9999879598617554,0.4188186228275299,0.2569732069969177,-0.8919790983200073,0.9999911785125732,0.5327376127243042,0.345409095287323,-0.2567727863788605,0.9999133348464966,0.1750192940235138,0.3712771236896515,-0.5705772638320923,0.9996988773345947,0.5885517597198486,0.5065097808837891,0.04974450543522835,0.9752703905105591,0.15054874122142792,0.5287399291992188,-0.8123089671134949,0.9748209118843079,0.6475646495819092,0.6353778839111328,-0.16795702278614044,0.9766023755073547,0.24794581532478333,0.5530906319618225,-1.3879674673080444,0.9486258029937744,0.6661651730537415,0.678469181060791,-0.24395909905433655,0.9587969183921814,0.2903027832508087,0.5634533762931824,-1.5246466398239136,0.9314315915107727,0.6509130597114563,0.6771050691604614,-0.3366800844669342,0.9626134037971497,0.2937459647655487,0.5314760208129883,-1.5814381837844849,0.9342060685157776,0.6407935619354248,0.6674878597259521,-0.20731312036514282,0.9633252024650574,0.28216004371643066,0.526500940322876,-1.4201160669326782,0.9184530377388,0.4940743148326874,0.6342872381210327,0.10747911036014557,0.9988322854042053,0.32128340005874634,0.6566331386566162,-0.1069948822259903,0.9988409876823425,0.48832666873931885,0.830544114112854,0.2893325686454773,0.9651987552642822,0.34443479776382446,0.8690357804298401,0.1020599901676178,0.971558690071106,0.48756659030914307,0.9558098912239075,1.1995517015457153,0.9037970900535583,0.35635408759117126,0.9856364130973816,0.8563969135284424,0.9041579365730286,0.4665985107421875,0.9681565761566162,1.2711021900177002,0.8501279950141907,0.35393980145454407,0.9840564727783203,0.9179651141166687,0.6913832426071167,0.5361033082008362,1.0200700759887695,0.9658184051513672,0.8526120781898499,0.3985292315483093,1.081396460533142,0.5144925713539124,0.7839987874031067
18040.014101809433,0.4438880980014801,0.2335774004459381,-0.9793865084648132,0.9999649524688721,0.4478263258934021,0.21020185947418213,-0.9167405962944031,0.9999338388442993,0.45577356219291687,0.20891809463500977,-0.9168796539306641,0.9999268054962158,0.46308714151382446,0.20747604966163635,-0.9169304370880127,0.9999147653579712,0.41629523038864136,0.21239033341407776,-0.9548699259757996,0.9999433755874634,0.3979887366294861,0.21277189254760742,-0.9550163745880127,0.9999427795410156,0.37833908200263977,0.2134886085987091,-0.9551851153373718,0.9999356269836426,0.4521149694919586,0.21498185396194458,-0.5442528128623962,0.999932050704956,0.32559025287628174,0.22360992431640625,-0.7247984409332275,0.9999545812606812,0.45095986127853394,0.2563328146934509,-0.8389808535575867,0.9999810457229614,0.4169197380542755,0.2596261203289032,-0.8903011679649353,0.9999864101409912,0.5324364900588989,0.3459112346172333,-0.27883395552635193,0.9998750686645508,0.17929533123970032,0.3716515302658081,-0.5765596628189087,0.9996514320373535,0.587004542350769,0.5088677406311035,0.005460844840854406,0.9709455966949463,0.1517086923122406,0.5276180505752563,-0.7796570658683777,0.9724563956260681,0.6486107110977173,0.637234091758728,-0.21950849890708923,0.9672170877456665,0.2532777190208435,0.5553589463233948,-1.297122597694397,0.9381275177001953,0.6674033403396606,0.6791349053382874,-0.29708829522132874,0.9448525905609131,0.29717332124710083,0.5648543834686279,-1.42350172996521,0.918423056602478,0.6536599397659302,0.6784013509750366,-0.38936132192611694,0.9499096274375916,0.2981427311897278,0.5340734124183655,-1.4805858135223389,0.9213173389434814,0.6446362137794495,0.6687384843826294,-0.2594354748725891,0.9515926241874695,0.28644782304763794,0.5283713340759277,-1.3279695510864258,0.9035588502883911,0.4945698380470276,0.6342804431915283,0.0983259528875351,0.998045802116394,0.322101354598999,0.6557707786560059,-0.0979040116071701,0.9981276392936707,0.4869600534439087,0.8371398448944092,0.269295871257782,0.9598399996757507,0.34286680817604065,0.8710809946060181,0.08276603370904922,0.9683007001876831,0.48917829990386963,0.9643810987472534,1.114175796508789,0.8887614607810974,0.3574155867099762,0.9910481572151184,0.7825660705566406,0.8924194574356079,0.4690575897693634,0.9733592867851257,1.1785515546798706,0.8148303031921387,0.3546891212463379,0.9892492294311523,0.8379589319229126,0.6545962691307068,0.5389065146446228,1.0257487297058105,0.8725218772888184,0.8357403874397278,0.39703667163848877,1.0869108438491821,0.43571075797080994,0.7722222208976746
18056.6807684761,0.4465745985507965,0.23218056559562683,-0.946286678314209,0.9999595880508423,0.4493074417114258,0.208624929189682,-0.8789753913879395,0.9999287128448486,0.4568994343280792,0.20759686827659607,-0.8791422843933105,0.9999212026596069,0.4638502597808838,0.20638412237167358,-0.879194438457489,0.9999067783355713,0.4182887375354767,0.20976680517196655,-0.9202008247375488,0.9999377727508545,0.4006054103374481,0.20952823758125305,-0.9203426241874695,0.9999383687973022,0.3808489143848419,0.2096773386001587,-0.9205442667007446,0.9999327659606934,0.4503900706768036,0.2130362093448639,-0.4954001307487488,0.9999315738677979,0.32782304286956787,0.21976029872894287,-0.6871708035469055,0.9999545812606812,0.45261579751968384,0.25468507409095764,-0.8023236989974976,0.9999808073043823,0.42018741369247437,0.25741249322891235,-0.8569231629371643,0.9999861717224121,0.5325740575790405,0.3459511995315552,-0.2325887680053711,0.9998781681060791,0.17287619411945343,0.37134280800819397,-0.5436970591545105,0.9996059536933899,0.5835850238800049,0.5090847015380859,0.04547621309757233,0.9674761295318604,0.14854899048805237,0.5313162207603455,-0.7554263472557068,0.9721829295158386,0.6458850502967834,0.6370172500610352,-0.20662279427051544,0.9607966542243958,0.25340259075164795,0.5540059804916382,-1.2871804237365723,0.9456322193145752,0.6655827164649963,0.679435670375824,-0.28843948245048523,0.9364517331123352,0.2994973063468933,0.5627796053886414,-1.416691541671753,0.9271536469459534,0.6506510376930237,0.6785613894462585,-0.3798021674156189,0.9422521591186523,0.2992297112941742,0.5293469429016113,-1.4734299182891846,0.929948627948761,0.6411885023117065,0.6683759093284607,-0.24702870845794678,0.9442452788352966,0.28708869218826294,0.5243605971336365,-1.3173630237579346,0.9120461940765381,0.49217069149017334,0.6362856030464172,0.0923403948545456,0.9982348680496216,0.3182920217514038,0.6572335958480835,-0.09185029566287994,0.998128354549408,0.48528024554252625,0.8406563401222229,0.20686616003513336,0.9637435674667358,0.34057629108428955,0.8720933198928833,0.06760883331298828,0.9578151106834412,0.4876905679702759,0.9653328061103821,1.0895307064056396,0.8910086154937744,0.3586909770965576,0.9895370006561279,0.8070574998855591,0.8672509789466858,0.4701177179813385,0.9731354713439941,1.156585693359375,0.7918348908424377,0.35795265436172485,0.9872182011604309,0.8660684823989868,0.6056917905807495,0.5297829508781433,1.0278034210205078,0.8288149237632751,0.8300476670265198,0.39137938618659973,1.09114408493042,0.45093271136283875,0.7435773015022278
18073.34743514277,0.44138938188552856,0.2332988977432251,-0.9855014681816101,0.9999759197235107,0.44658052921295166,0.20989635586738586,-0.9208239316940308,0.9999544620513916,0.45477762818336487,0.20884793996810913,-0.9209564328193665,0.9999485015869141,0.46243852376937866,0.20773589611053467,-0.920952320098877,0.9999384880065918,0.41459110379219055,0.21152356266975403,-0.9584972262382507,0.9999624490737915,0.395942747592926,0.21189051866531372,-0.9586419463157654,0.9999619722366333,0.3767366409301758,0.21255654096603394,-0.958804190158844,0.9999566078186035,0.45320290327072144,0.21490329504013062,-0.5415343046188354,0.9999494552612305,0.32541680335998535,0.22289356589317322,-0.7208841443061829,0.9999717473983765,0.4484449326992035,0.25681406259536743,-0.843425452709198,0.9999864101409912,0.41494178771972656,0.258953720331192,-0.8942258954048157,0.9999912977218628,0.5321754217147827,0.3469722867012024,-0.2658374607563019,0.9998880624771118,0.17176564037799835,0.3736398220062256,-0.590830385684967,0.9998130202293396,0.587822675704956,0.509057879447937,0.00902584195137024,0.9718062281608582,0.15074607729911804,0.5304417610168457,-0.7976445555686951,0.9815566539764404,0.6476671099662781,0.6353675127029419,-0.24365931749343872,0.9743388295173645,0.24505650997161865,0.5545296669006348,-1.317623257637024,0.9609469175338745,0.6681162118911743,0.6777396202087402,-0.32752013206481934,0.9563376903533936,0.2887919545173645,0.5644919872283936,-1.449560284614563,0.9462046027183533,0.6531409025192261,0.6768801212310791,-0.42208948731422424,0.9602352976799011,0.28997597098350525,0.5336610078811646,-1.508083701133728,0.9481196403503418,0.6424968242645264,0.6675276756286621,-0.28541648387908936,0.9611502289772034,0.2780764698982239,0.5284059047698975,-1.349040150642395,0.9345700144767761,0.48995259404182434,0.6345304846763611,0.11856794357299805,0.998110294342041,0.31776341795921326,0.6552353501319885,-0.11819375306367874,0.9985724687576294,0.48653823137283325,0.8326849341392517,0.3906020224094391,0.9513494968414307,0.33953577280044556,0.8691875338554382,0.11928284913301468,0.9770236611366272,0.4865471124649048,0.9579200744628906,1.2389189004898071,0.8875320553779602,0.35701537132263184,0.9910309910774231,0.8104655742645264,0.9157242178916931,0.4620153605937958,0.9699686765670776,1.3054176568984985,0.8563901782035828,0.35730886459350586,0.9902825355529785,0.8659151792526245,0.7292927503585815,0.549852728843689,1.0177079439163208,1.0241825580596924,0.8544214367866516,0.4101148843765259,1.0868381261825562,0.47039303183555603,0.8079456686973572
18090.014101809436,0.44483721256256104,0.23186469078063965,-0.9636817574501038,0.999980092048645,0.44881880283355713,0.20786571502685547,-0.8939089775085449,0.9999662637710571,0.4569663107395172,0.20678749680519104,-0.8940780758857727,0.9999629259109497,0.46440786123275757,0.20555895566940308,-0.8941333889961243,0.9999555349349976,0.4172006845474243,0.20941698551177979,-0.9308441281318665,0.9999676942825317,0.39895617961883545,0.20950904488563538,-0.9309495687484741,0.9999672174453735,0.3797467350959778,0.2099449336528778,-0.9311039447784424,0.9999622106552124,0.45372331142425537,0.21230408549308777,-0.49838608503341675,0.9999692440032959,0.3276011049747467,0.22039398550987244,-0.6712751388549805,0.9999736547470093,0.4525351822376251,0.2545136511325836,-0.8162566423416138,0.9999905824661255,0.4192950129508972,0.2574501931667328,-0.8653222918510437,0.9999923706054688,0.5337222814559937,0.3461134135723114,-0.23108628392219543,0.999929666519165,0.17274582386016846,0.37280675768852234,-0.5187540650367737,0.9996602535247803,0.5847069025039673,0.5084260106086731,0.040042534470558167,0.9769143462181091,0.15527398884296417,0.5334968566894531,-0.7655021548271179,0.9673889875411987,0.6443456411361694,0.6359531283378601,-0.2316007912158966,0.9754496812820435,0.2417803853750229,0.5540687441825867,-1.3874022960662842,0.9471318125724792,0.6645335555076599,0.6783174872398376,-0.318173885345459,0.9579353332519531,0.28183361887931824,0.5641225576400757,-1.530010461807251,0.9322890043258667,0.6491595506668091,0.6768710017204285,-0.41211947798728943,0.9619696140289307,0.2826310396194458,0.5278732776641846,-1.5902400016784668,0.935390055179596,0.6388942003250122,0.6670235395431519,-0.27307164669036865,0.9620541334152222,0.27289655804634094,0.5230843424797058,-1.4221590757369995,0.9188972115516663,0.4902292490005493,0.6355273127555847,0.0916326642036438,0.9987363219261169,0.3173256814479828,0.6574187874794006,-0.0910932645201683,0.9986066222190857,0.4865705668926239,0.8369206190109253,0.1958867609500885,0.9721054434776306,0.3392391800880432,0.8703932166099548,0.06288217753171921,0.9676669239997864,0.48813071846961975,0.9622786641120911,1.1049925088882446,0.911620020866394,0.3583880066871643,0.9890153408050537,0.8230706453323364,0.8969041109085083,0.46895238757133484,0.9713113307952881,1.174031376838684,0.828070878982544,0.35898783802986145,0.9871847629547119,0.883213222026825,0.6493045091629028,0.533687949180603,1.0266822576522827,0.8394018411636353,0.8569142818450928,0.38932347297668457,1.0877745151519775,0.459285169839859,0.7836973071098328
18106.680768476104,0.44359904527664185,0.23212170600891113,-0.9730260968208313,0.9999668598175049,0.4476115107536316,0.2084054946899414,-0.904077410697937,0.9999394416809082,0.45569685101509094,0.20733433961868286,-0.9042599201202393,0.9999316930770874,0.4630550146102905,0.20616278052330017,-0.9042954444885254,0.9999191761016846,0.4165458381175995,0.21004626154899597,-0.9438266754150391,0.9999467134475708,0.3986300528049469,0.21026450395584106,-0.9439757466316223,0.999944806098938,0.37937939167022705,0.21085256338119507,-0.9441605806350708,0.9999372959136963,0.45186319947242737,0.21362453699111938,-0.5111395120620728,0.9999346733093262,0.3275657594203949,0.22173768281936646,-0.699435293674469,0.9999592304229736,0.45100125670433044,0.2550179958343506,-0.8263949155807495,0.9999827146530151,0.4186583161354065,0.2576178312301636,-0.8798530697822571,0.999988317489624,0.5310846567153931,0.34718331694602966,-0.2339659184217453,0.9998856782913208,0.17435719072818756,0.37341973185539246,-0.5641575455665588,0.9997369647026062,0.5852619409561157,0.5087951421737671,0.03208597004413605,0.9721639156341553,0.1493137925863266,0.5313707590103149,-0.7598303556442261,0.9766719341278076,0.6484345197677612,0.6363601684570312,-0.24968162178993225,0.9729589819908142,0.2446625679731369,0.5557790994644165,-1.276845932006836,0.9487869739532471,0.6672080159187317,0.6779636144638062,-0.34034138917922974,0.9538798332214355,0.2869356870651245,0.5646615624427795,-1.4103394746780396,0.9303207397460938,0.6508067846298218,0.6769092082977295,-0.43691620230674744,0.9582024216651917,0.28812843561172485,0.5323219299316406,-1.469382405281067,0.9327730536460876,0.6398509740829468,0.6672099828720093,-0.29331472516059875,0.9590542912483215,0.2775171399116516,0.5269827842712402,-1.3083245754241943,0.9157609343528748,0.4885897934436798,0.638461709022522,0.11863154917955399,0.9980535507202148,0.3137495517730713,0.6579322814941406,-0.11818278580904007,0.9983460903167725,0.48668405413627625,0.8384427428245544,0.3342686891555786,0.9527904391288757,0.33888646960258484,0.8731300830841064,0.08546283841133118,0.9728996157646179,0.487235963344574,0.9575604200363159,1.2487760782241821,0.8795651197433472,0.3577713668346405,0.9927951097488403,0.8237621784210205,0.908104419708252,0.46326154470443726,0.9683949947357178,1.3210989236831665,0.8453177809715271,0.3567311763763428,0.9917612671852112,0.88262540102005,0.6999737024307251,0.5437912940979004,1.0204957723617554,1.0249263048171997,0.8455624580383301,0.4067155420780182,1.0920498371124268,0.4665911793708801,0.7999463081359863
18123.347435142772,0.4421558976173401,0.23246556520462036,-0.9608200192451477,0.9999699592590332,0.4464237689971924,0.20877143740653992,-0.892572283744812,0.9999465942382812,0.4550834596157074,0.2077634334564209,-0.8927358388900757,0.9999403953552246,0.4629415273666382,0.2066953480243683,-0.8927668333053589,0.9999287128448486,0.4152563512325287,0.20989570021629333,-0.9296119213104248,0.9999526739120483,0.3966989517211914,0.20991230010986328,-0.9297305941581726,0.9999521970748901,0.378142774105072,0.21031618118286133,-0.9298984408378601,0.9999462366104126,0.4529242217540741,0.21354469656944275,-0.5047512054443359,0.9999459981918335,0.32683590054512024,0.22078686952590942,-0.6780202388763428,0.9999622106552124,0.45031893253326416,0.2552075982093811,-0.8162202835083008,0.9999847412109375,0.41631388664245605,0.25748610496520996,-0.8653026223182678,0.9999889135360718,0.5334649085998535,0.34577837586402893,-0.23874294757843018,0.9998948574066162,0.17357918620109558,0.3717992603778839,-0.535155713558197,0.9996674060821533,0.5862694978713989,0.5082038640975952,0.03332166373729706,0.9726414084434509,0.1515236496925354,0.5342419147491455,-0.7537627816200256,0.9744748473167419,0.6456029415130615,0.636605441570282,-0.23058336973190308,0.96986323595047,0.24974463880062103,0.5528773665428162,-1.308754563331604,0.9507315754890442,0.665295422077179,0.678699254989624,-0.3158460855484009,0.9487455487251282,0.2934725284576416,0.5624021887779236,-1.4416543245315552,0.9327345490455627,0.649878978729248,0.6772099137306213,-0.4069034159183502,0.953609824180603,0.2927376925945282,0.5269321203231812,-1.4978663921356201,0.9353331923484802,0.6393424272537231,0.667356550693512,-0.27104559540748596,0.9546849727630615,0.2812558114528656,0.5222845077514648,-1.3396042585372925,0.918918251991272,0.492397665977478,0.6377862691879272,0.10007686167955399,0.9984222650527954,0.31908711791038513,0.6592544913291931,-0.0995546281337738,0.9984173774719238,0.48756498098373413,0.8374071717262268,0.23349329829216003,0.9555280208587646,0.3409181237220764,0.8706604242324829,0.07577536255121231,0.9628121852874756,0.4874960780143738,0.9632047414779663,1.1337780952453613,0.8711166977882385,0.3572227656841278,0.9870234727859497,0.8253441452980042,0.8722723126411438,0.4668419361114502,0.9730797410011292,1.2033686637878418,0.8046204447746277,0.3531029224395752,0.985514223575592,0.8857595324516296,0.6381187438964844,0.5367286205291748,1.023702621459961,0.8875248432159424,0.8139261603355408,0.3956435024738312,1.0845041275024414,0.47655612230300903,0.7442348599433899
18140.01410180944,0.44391030073165894,0.23353484272956848,-0.995527982711792,0.9999761581420898,0.4477287232875824,0.21010640263557434,-0.9362693428993225,0.9999533891677856,0.4557172954082489,0.20885935425758362,-0.9363505840301514,0.9999493360519409,0.4631316661834717,0.20747724175453186,-0.9363725781440735,0.9999384880065918,0.4160448908805847,0.21207323670387268,-0.9742076992988586,0.9999613761901855,0.3977435529232025,0.2123968005180359,-0.9743478894233704,0.999962329864502,0.37841376662254333,0.21296533942222595,-0.9745151996612549,0.9999563694000244,0.4533824324607849,0.21459636092185974,-0.5688010454177856,0.999953031539917,0.3262694776058197,0.22328972816467285,-0.7483272552490234,0.9999706745147705,0.45143499970436096,0.25655853748321533,-0.8555704355239868,0.9999860525131226,0.41731080412864685,0.25991177558898926,-0.9065133333206177,0.9999903440475464,0.5327049493789673,0.34611207246780396,-0.28673771023750305,0.9998996257781982,0.17698048055171967,0.3714842200279236,-0.6040219068527222,0.9997392296791077,0.5852519273757935,0.5077800750732422,0.03150482103228569,0.973876416683197,0.15109190344810486,0.5282192230224609,-0.8237282633781433,0.9794397950172424,0.6460525393486023,0.6344598531723022,-0.15114061534404755,0.9733012318611145,0.25533705949783325,0.5554310083389282,-1.3498623371124268,0.9540529847145081,0.6677433848381042,0.6765956282615662,-0.2176617830991745,0.9541410803794861,0.3006994128227234,0.5654870271682739,-1.4746134281158447,0.9368589520454407,0.6558994650840759,0.6756500005722046,-0.3092954754829407,0.9586135745048523,0.3012581467628479,0.5355578660964966,-1.5318537950515747,0.9393599033355713,0.6461551189422607,0.6662241816520691,-0.1894947737455368,0.9599406123161316,0.28943467140197754,0.5296276807785034,-1.3804172277450562,0.9250726699829102,0.4931766986846924,0.6282217502593994,0.09859785437583923,0.9983991980552673,0.320171058177948,0.6514858603477478,-0.09811142832040787,0.9984856247901917,0.4874275028705597,0.8300804495811462,0.22518017888069153,0.9602416753768921,0.34598013758659363,0.8632257580757141,0.07743942737579346,0.9625990390777588,0.4900643825531006,0.964406430721283,1.033996820449829,0.8867067694664001,0.35865432024002075,0.9853183031082153,0.7693877816200256,0.8766372203826904,0.4721621870994568,0.9739646911621094,1.0949679613113403,0.8169451951980591,0.3527677357196808,0.9848443865776062,0.8243472576141357,0.6415531635284424,0.5513089299201965,1.035987138748169,0.7860410809516907,0.8227498531341553,0.3978777229785919,1.0839293003082275,0.4252651035785675,0.7352545857429504
18156.680768476108,0.4423721134662628,0.2327008843421936,-0.9538957476615906,0.9999650716781616,0.44617974758148193,0.20907717943191528,-0.8860461711883545,0.9999357461929321,0.45448172092437744,0.20793190598487854,-0.886203944683075,0.9999281167984009,0.46194377541542053,0.20669281482696533,-0.8862321972846985,0.9999139308929443,0.4149218201637268,0.2106407880783081,-0.9241833686828613,0.9999455213546753,0.3967655897140503,0.2108011245727539,-0.9243232607841492,0.9999455213546753,0.3778524696826935,0.21128123998641968,-0.9245163798332214,0.9999397993087769,0.4504854679107666,0.2137976586818695,-0.5027226805686951,0.9999321699142456,0.32687199115753174,0.22133976221084595,-0.68107670545578,0.9999583959579468,0.4500388205051422,0.25535425543785095,-0.8109912872314453,0.9999818801879883,0.41682296991348267,0.2580350339412689,-0.8615454435348511,0.9999877214431763,0.5322684049606323,0.3467411398887634,-0.23623448610305786,0.9998756647109985,0.17487528920173645,0.37250590324401855,-0.5469807386398315,0.9996927976608276,0.5855987071990967,0.5095638036727905,0.035303983837366104,0.9698241949081421,0.1475534737110138,0.5335019826889038,-0.7578718066215515,0.9772862792015076,0.6466233730316162,0.6365762948989868,-0.22656802833080292,0.9682806134223938,0.2533457279205322,0.5566299557685852,-1.289730191230774,0.955634355545044,0.6657079458236694,0.6790190935134888,-0.31138864159584045,0.9469408392906189,0.2985849380493164,0.56523197889328,-1.4205067157745361,0.9381945729255676,0.6511409878730774,0.6776583194732666,-0.4023524224758148,0.9518753290176392,0.298296183347702,0.5335558652877808,-1.4756476879119873,0.9403736591339111,0.6418114900588989,0.6679360270500183,-0.2669934034347534,0.9529902338981628,0.2860969305038452,0.5278681516647339,-1.3192483186721802,0.9245407581329346,0.492689847946167,0.6383333206176758,0.10615664720535278,0.9981685876846313,0.32091885805130005,0.6597303152084351,-0.10570071637630463,0.9983251690864563,0.4866483211517334,0.8386856317520142,0.2492680549621582,0.9544621109962463,0.3452892303466797,0.87069171667099,0.06550345569849014,0.964678943157196,0.487814337015152,0.9632651805877686,1.145504355430603,0.8740577697753906,0.3587716817855835,0.9890011548995972,0.8041468858718872,0.8803077936172485,0.46779367327690125,0.9725385904312134,1.2150636911392212,0.8094637393951416,0.35358086228370667,0.9872875213623047,0.8635569214820862,0.6442012190818787,0.539979100227356,1.0220365524291992,0.905505359172821,0.8220430612564087,0.39935216307640076,1.0882482528686523,0.4543134272098541,0.7569274306297302
18173.347435142776,0.4436989426612854,0.23144423961639404,-1.0154701471328735,0.9999804496765137,0.4465557932853699,0.20785820484161377,-0.9500432014465332,0.9999639987945557,0.4548063278198242,0.20686623454093933,-0.9501497149467468,0.9999595880508423,0.46236154437065125,0.20576122403144836,-0.9501188397407532,0.9999510049819946,0.4151856303215027,0.20907050371170044,-0.9858884215354919,0.9999686479568481,0.39726969599723816,0.20912086963653564,-0.9860000610351562,0.9999680519104004,0.37858355045318604,0.20950141549110413,-0.9861111640930176,0.9999629259109497,0.4524792730808258,0.21253210306167603,-0.5705759525299072,0.9999575614929199,0.32809174060821533,0.21977075934410095,-0.7415969371795654,0.999974250793457,0.4518038034439087,0.254211962223053,-0.8743265271186829,0.9999876022338867,0.4189669191837311,0.2565913498401642,-0.9225543141365051,0.9999914169311523,0.5327674746513367,0.34537628293037415,-0.29797208309173584,0.999901294708252,0.1789567470550537,0.37088480591773987,-0.6062307357788086,0.9997726082801819,0.5871874094009399,0.5066164135932922,-0.029820695519447327,0.973411500453949,0.14999142289161682,0.5279951095581055,-0.805655300617218,0.9804129004478455,0.6480496525764465,0.6347042322158813,-0.28023046255111694,0.975765585899353,0.25670820474624634,0.5538253784179688,-1.3083209991455078,0.9577932357788086,0.6682860851287842,0.677515983581543,-0.36286991834640503,0.9573255181312561,0.3060246706008911,0.5634393692016602,-1.4371925592422485,0.9404508471488953,0.652668297290802,0.6761975288391113,-0.456327348947525,0.9610663652420044,0.30327001214027405,0.5325199961662292,-1.4919726848602295,0.9423075318336487,0.6421208381652832,0.6668266654014587,-0.32154151797294617,0.9621132016181946,0.29055869579315186,0.5275290012359619,-1.3381924629211426,0.9286969900131226,0.49267321825027466,0.6351081132888794,0.11411852389574051,0.9985100626945496,0.32415470480918884,0.657073974609375,-0.11373674124479294,0.9986974596977234,0.48879823088645935,0.8290491104125977,0.3814365863800049,0.9539461135864258,0.34521549940109253,0.866780161857605,0.12336226552724838,0.9784729480743408,0.4856400787830353,0.9566699862480164,1.2193163633346558,0.8995481133460999,0.3564155399799347,0.9841815233230591,0.8189961314201355,0.9193817377090454,0.46079370379447937,0.9680101275444031,1.283455491065979,0.860990047454834,0.35469383001327515,0.9846806526184082,0.8749576210975647,0.7324842810630798,0.5517142415046692,1.0176596641540527,0.9944548606872559,0.861336350440979,0.40579915046691895,1.0786519050598145,0.4863361120223999,0.8181991577148438
18190.014101809444,0.4467950165271759,0.23241624236106873,-0.9450730681419373,0.9999679327011108,0.4496169984340668,0.20885565876960754,-0.8783233761787415,0.9999428987503052,0.45709601044654846,0.20765867829322815,-0.8784709572792053,0.9999352693557739,0.4639029800891876,0.206240713596344,-0.8785191774368286,0.9999223947525024,0.419143944978714,0.21056407690048218,-0.9189320802688599,0.9999533891677856,0.40200453996658325,0.2104766070842743,-0.9190751910209656,0.9999539852142334,0.38244014978408813,0.21080264449119568,-0.9192628264427185,0.9999505281448364,0.4501298666000366,0.21297702193260193,-0.4959959089756012,0.999940037727356,0.3290434777736664,0.22087574005126953,-0.6864891648292542,0.9999657869338989,0.4526585638523102,0.2549777030944824,-0.8017049431800842,0.9999837875366211,0.4207513928413391,0.2578986883163452,-0.8558245301246643,0.9999896287918091,0.5317167639732361,0.3467556834220886,-0.23302115499973297,0.999874472618103,0.17410394549369812,0.3716526925563812,-0.5395793914794922,0.9996870756149292,0.584391176700592,0.5089845061302185,0.0505349300801754,0.9709828495979309,0.14080606400966644,0.5326049327850342,-0.7603009939193726,0.9793300032615662,0.6446161270141602,0.6355865001678467,-0.19805341958999634,0.9662214517593384,0.25672289729118347,0.5558109879493713,-1.3104413747787476,0.9586278200149536,0.6647839546203613,0.6786569952964783,-0.2792794406414032,0.9436367750167847,0.31263020634651184,0.5643906593322754,-1.4420894384384155,0.9418331384658813,0.6505874395370483,0.677415132522583,-0.37005338072776794,0.9488276243209839,0.304278165102005,0.5329745411872864,-1.493707537651062,0.943886935710907,0.6408981084823608,0.6676847338676453,-0.23778659105300903,0.9498430490493774,0.29179614782333374,0.5280142426490784,-1.3383899927139282,0.9279255867004395,0.4930630326271057,0.6366745233535767,0.09369941800832748,0.9980364441871643,0.3183111250400543,0.6580125093460083,-0.09320832043886185,0.998101532459259,0.48660629987716675,0.8412632942199707,0.1975414752960205,0.9604237675666809,0.3398353159427643,0.8721686601638794,0.04941956326365471,0.9591415524482727,0.48892030119895935,0.9653033018112183,1.0717129707336426,0.8794715404510498,0.35737061500549316,0.9916439652442932,0.7738680243492126,0.8689565658569336,0.47088995575904846,0.9733713865280151,1.138725757598877,0.7996068000793457,0.3553091585636139,0.9892929792404175,0.8314946889877319,0.6132146120071411,0.5337701439857483,1.0262525081634521,0.8204274773597717,0.8195707201957703,0.3912855088710785,1.0919623374938965,0.4174778461456299,0.7363761067390442
18206.68076847611,0.4433823525905609,0.23351964354515076,-0.9362345337867737,0.9999645948410034,0.44713467359542847,0.21016976237297058,-0.8731333017349243,0.9999352693557739,0.45506346225738525,0.2089468538761139,-0.8732866048812866,0.9999295473098755,0.4623676538467407,0.207637757062912,-0.8733311891555786,0.9999157190322876,0.41549354791641235,0.2122877836227417,-0.9089694619178772,0.9999434947967529,0.39687636494636536,0.21274378895759583,-0.9090919494628906,0.9999443292617798,0.3773357570171356,0.2135004699230194,-0.9092704653739929,0.9999347925186157,0.4520599842071533,0.21488967537879944,-0.49957075715065,0.9999371767044067,0.32569459080696106,0.22397911548614502,-0.6685563325881958,0.9999592304229736,0.45055732131004333,0.2564237117767334,-0.7955470085144043,0.9999810457229614,0.4167986810207367,0.2595987915992737,-0.8433582186698914,0.9999862909317017,0.5335986614227295,0.34645989537239075,-0.22378738224506378,0.9998900890350342,0.17877274751663208,0.3722851574420929,-0.5391198992729187,0.9997285008430481,0.5851230621337891,0.5080453753471375,0.06897412240505219,0.9698194861412048,0.15426534414291382,0.5313876271247864,-0.7710120677947998,0.9731834530830383,0.6435387134552002,0.6328433752059937,-0.1479194313287735,0.9692614674568176,0.23875683546066284,0.5547083020210266,-1.3242636919021606,0.9486000537872314,0.6664060354232788,0.6761279106140137,-0.22186507284641266,0.9494253993034363,0.2805972695350647,0.5660625696182251,-1.453701138496399,0.9330986142158508,0.6552457809448242,0.6755973696708679,-0.313323050737381,0.9542744755744934,0.28205686807632446,0.5316658020019531,-1.5156409740447998,0.9361822009086609,0.6440635919570923,0.6654041409492493,-0.1875568926334381,0.956108808517456,0.2721521556377411,0.5262035131454468,-1.358214020729065,0.9222027659416199,0.4906836450099945,0.6325495839118958,0.11111433804035187,0.9983581900596619,0.3209923803806305,0.6549789309501648,-0.11064392328262329,0.9985068440437317,0.4872754216194153,0.836779773235321,0.27449673414230347,0.9502935409545898,0.34601661562919617,0.8684293031692505,0.07218389213085175,0.9620271921157837,0.4896872043609619,0.9666382670402527,1.0978525876998901,0.8651331663131714,0.3601610064506531,0.986475944519043,0.7535521984100342,0.866696834564209,0.47133636474609375,0.9763094186782837,1.160385012626648,0.8034083843231201,0.3577837347984314,1.019445776939392,0.8076910376548767,0.6357849836349487,0.5477242469787598,1.0247173309326172,0.8587403297424316,0.7950320243835449,0.4028390049934387,1.0884571075439453,0.40931451320648193,0.7198426127433777
18223.34743514278,0.4450099766254425,0.23403161764144897,-0.9805436134338379,0.9999847412109375,0.4483197331428528,0.2103680670261383,-0.917605459690094,0.9999707937240601,0.45619431138038635,0.20927733182907104,-0.9177069664001465,0.9999669790267944,0.4634995758533478,0.2080518901348114,-0.9176612496376038,0.9999603033065796,0.4167504906654358,0.21212756633758545,-0.9546416401863098,0.9999759197235107,0.3995870351791382,0.21224769949913025,-0.954751193523407,0.9999749660491943,0.38013917207717896,0.2126396894454956,-0.9548704028129578,0.9999710321426392,0.45271191000938416,0.21569761633872986,-0.5450788736343384,0.9999669790267944,0.32833006978034973,0.2228417694568634,-0.7227702140808105,0.9999802112579346,0.4524158239364624,0.25720837712287903,-0.8410409092903137,0.9999905824661255,0.41924211382865906,0.2599817216396332,-0.8912654519081116,0.9999940395355225,0.5327666997909546,0.3469390273094177,-0.2831994891166687,0.9999175071716309,0.1749226301908493,0.3726213574409485,-0.5825380682945251,0.999833345413208,0.5845834016799927,0.5073617100715637,-0.018367312848567963,0.9790968298912048,0.14877448976039886,0.5260175466537476,-0.8016175031661987,0.982798159122467,0.6441953182220459,0.6351796984672546,-0.27236083149909973,0.9823580384254456,0.2423211932182312,0.5517702102661133,-1.3355706930160522,0.965205729007721,0.6648252010345459,0.6784167289733887,-0.3567377030849457,0.9682897925376892,0.2877509295940399,0.5628644824028015,-1.4666303396224976,0.9513400197029114,0.6488541960716248,0.6774053573608398,-0.45061638951301575,0.9710574746131897,0.28549817204475403,0.5291848182678223,-1.5230363607406616,0.9528685808181763,0.6376947164535522,0.667938768863678,-0.31338009238243103,0.9712056517601013,0.27478450536727905,0.5246285200119019,-1.366442322731018,0.9407768249511719,0.4884297251701355,0.6320635080337524,0.1136695072054863,0.9983654618263245,0.31691762804985046,0.651301383972168,-0.11329713463783264,0.9987699389457703,0.4872286319732666,0.8283727169036865,0.39792516827583313,0.9604873061180115,0.34114277362823486,0.8648977875709534,0.1272960603237152,0.9817171096801758,0.48606786131858826,0.9557415843009949,1.193084716796875,0.9128800630569458,0.3577410578727722,0.9902926087379456,0.7796752452850342,0.9333361387252808,0.46108898520469666,0.9683718085289001,1.2536842823028564,0.8806015849113464,0.3576633334159851,0.9902616143226624,0.8309035301208496,0.769287645816803,0.5479780435562134,1.0184749364852905,0.9750373363494873,0.8804969191551208,0.40608730912208557,1.0806467533111572,0.4448853135108948,0.837978184223175
18240.014101809447,0.4446355402469635,0.23377323150634766,-0.9962719082832336,0.9999810457229614,0.44810807704925537,0.21008026599884033,-0.9316140413284302,0.9999649524688721,0.45613354444503784,0.20885750651359558,-0.9317157864570618,0.9999603033065796,0.4635103642940521,0.20749852061271667,-0.9316909313201904,0.999951958656311,0.4162473678588867,0.2121538519859314,-0.9708431363105774,0.9999706745147705,0.3989323079586029,0.21242278814315796,-0.9709451794624329,0.9999703168869019,0.37940865755081177,0.21293547749519348,-0.9710784554481506,0.9999654293060303,0.4526931941509247,0.21525266766548157,-0.5508863925933838,0.9999618530273438,0.327686071395874,0.22317466139793396,-0.7377798557281494,0.9999767541885376,0.4524018168449402,0.2569914162158966,-0.8535715341567993,0.9999891519546509,0.4188360869884491,0.26002615690231323,-0.9065302014350891,0.999992847442627,0.5330368280410767,0.3458927571773529,-0.27590811252593994,0.9999130964279175,0.1730869561433792,0.37316519021987915,-0.6004899740219116,0.9997956156730652,0.5850073099136353,0.5067825317382812,0.019201654940843582,0.9757611751556396,0.15102703869342804,0.5268060564994812,-0.8307477831840515,0.9812275767326355,0.6448732614517212,0.6355046629905701,-0.21120023727416992,0.9796497821807861,0.2455579787492752,0.5535274147987366,-1.3785890340805054,0.9637656807899475,0.6660023331642151,0.6777829527854919,-0.2899368107318878,0.9640685319900513,0.2904362380504608,0.5640628337860107,-1.51376473903656,0.9502105712890625,0.6506283283233643,0.677003800868988,-0.3841587007045746,0.9672834277153015,0.28902706503868103,0.5305372476577759,-1.5700945854187012,0.9519076347351074,0.6400694847106934,0.6676626205444336,-0.251746267080307,0.9677205085754395,0.27799898386001587,0.5256080031394958,-1.4097648859024048,0.9385945200920105,0.48924851417541504,0.6326094269752502,0.11479394137859344,0.998734176158905,0.3172031044960022,0.6534205675125122,-0.11440763622522354,0.9989069700241089,0.4877135157585144,0.8284462094306946,0.3811103105545044,0.9609171748161316,0.3405097723007202,0.8659149408340454,0.13108061254024506,0.9785805940628052,0.4845762252807617,0.9533197283744812,1.246909260749817,0.9077505469322205,0.35522836446762085,0.9849883913993835,0.8441616892814636,0.9250633120536804,0.46096140146255493,0.9658012390136719,1.3149548768997192,0.8732244372367859,0.35425475239753723,0.9850027561187744,0.9021837115287781,0.7533113956451416,0.5442006587982178,1.015613079071045,1.0305849313735962,0.8723366260528564,0.40521344542503357,1.0746099948883057,0.5122898817062378,0.8250345587730408
18256.680768476115,0.443403959274292,0.23284560441970825,-0.9316521883010864,0.9999663829803467,0.44694843888282776,0.2095782458782196,-0.8703729510307312,0.9999364614486694,0.45496630668640137,0.20833998918533325,-0.8704999685287476,0.9999313354492188,0.46251752972602844,0.20699387788772583,-0.8705579042434692,0.9999188184738159,0.4152244031429291,0.21157127618789673,-0.9074667096138,0.9999438524246216,0.3975182771682739,0.21195679903030396,-0.9075659513473511,0.9999443292617798,0.37841612100601196,0.21254485845565796,-0.9077569842338562,0.9999352693557739,0.45301780104637146,0.21457910537719727,-0.49958986043930054,0.9999419450759888,0.3272366225719452,0.22312593460083008,-0.6736937761306763,0.9999583959579468,0.4514392912387848,0.25604262948036194,-0.7907956838607788,0.999982476234436,0.41749876737594604,0.25908634066581726,-0.8402119874954224,0.9999865293502808,0.5340157747268677,0.3456396162509918,-0.22112053632736206,0.9999054670333862,0.1778133064508438,0.3714999258518219,-0.5420462489128113,0.9997132420539856,0.5862030982971191,0.5058759450912476,0.09117549657821655,0.9688413143157959,0.15960544347763062,0.5250495672225952,-0.7811130881309509,0.9711250066757202,0.6438866257667542,0.6320926547050476,-0.09865624457597733,0.9696620106697083,0.23727798461914062,0.5564603805541992,-1.3411469459533691,0.9466532468795776,0.666229248046875,0.6747877597808838,-0.16659599542617798,0.9510068297386169,0.27935951948165894,0.5682414174079895,-1.4702603816986084,0.9321288466453552,0.6556316614151001,0.6743305325508118,-0.2585054934024811,0.9558314085006714,0.28085142374038696,0.5365431308746338,-1.5339211225509644,0.9355003237724304,0.6455262899398804,0.6648588180541992,-0.13763386011123657,0.9574613571166992,0.26996514201164246,0.5301134586334229,-1.3759171962738037,0.9213340878486633,0.4933173954486847,0.629548192024231,0.1026572436094284,0.9986131191253662,0.3211807608604431,0.652632474899292,-0.10215366631746292,0.9986249208450317,0.4876575469970703,0.8347017168998718,0.21591420471668243,0.9609788060188293,0.3448329567909241,0.8653122186660767,0.06984221935272217,0.957600474357605,0.4908939599990845,0.9649596214294434,1.050111174583435,0.8812320232391357,0.3602094054222107,0.9855003356933594,0.779537558555603,0.8596764802932739,0.4729205071926117,0.9746381044387817,1.1134511232376099,0.7947052121162415,0.3573989272117615,0.9846827983856201,0.8364084959030151,0.6104367971420288,0.5404530763626099,1.0255228281021118,0.7994215488433838,0.8072853088378906,0.3994884490966797,1.0863595008850098,0.4350956976413727,0.7139076590538025
18273.347435142783,0.44300320744514465,0.23341307044029236,-0.9746567606925964,0.9999672174453735,0.44628679752349854,0.20958420634269714,-0.9123525023460388,0.9999382495880127,0.454479455947876,0.20833751559257507,-0.9124720692634583,0.9999308586120605,0.4618310332298279,0.20691987872123718,-0.9124945402145386,0.999916672706604,0.41542354226112366,0.2112717628479004,-0.9488618969917297,0.9999493360519409,0.397296667098999,0.21137642860412598,-0.9489961862564087,0.9999505281448364,0.37828394770622253,0.21179860830307007,-0.9491589069366455,0.999944806098938,0.45031270384788513,0.21354332566261292,-0.5431582927703857,0.9999327659606934,0.3270942270755768,0.22163981199264526,-0.7161227464675903,0.9999631643295288,0.45052167773246765,0.25593268871307373,-0.8358660936355591,0.9999812841415405,0.41799652576446533,0.2586073875427246,-0.8847999572753906,0.9999880790710449,0.531480073928833,0.34573233127593994,-0.27026045322418213,0.9998576641082764,0.17498882114887238,0.3702472150325775,-0.5835757851600647,0.9997398257255554,0.5839414000511169,0.5081542730331421,0.021116064861416817,0.9661775827407837,0.1480199098587036,0.5311097502708435,-0.7957857847213745,0.9787928462028503,0.6452168226242065,0.6355801820755005,-0.1929444819688797,0.9642060399055481,0.2527521848678589,0.5549589395523071,-1.3124034404754639,0.9548937678337097,0.6654453277587891,0.6782018542289734,-0.2673597037792206,0.9415999054908752,0.30486172437667847,0.5638585090637207,-1.439411997795105,0.9384146928787231,0.6515267491340637,0.677341878414154,-0.35682952404022217,0.9468622803688049,0.30038097500801086,0.5319698452949524,-1.493708848953247,0.9406698942184448,0.641222357749939,0.667693555355072,-0.23161473870277405,0.9491636753082275,0.2874959707260132,0.5263704061508179,-1.3417091369628906,0.9264357686042786,0.49218589067459106,0.63397616147995,0.10894249379634857,0.9979217648506165,0.321329265832901,0.6558252573013306,-0.10854432731866837,0.9982283711433411,0.48875799775123596,0.8327822685241699,0.32156869769096375,0.9436343312263489,0.3430933356285095,0.8665066957473755,0.08958767354488373,0.9651699066162109,0.48591291904449463,0.9609435200691223,1.1482336521148682,0.8580495119094849,0.3572578728199005,0.9859766960144043,0.7652109861373901,0.8724214434623718,0.4651227295398712,0.9720046520233154,1.2117748260498047,0.7977818250656128,0.35255810618400574,0.9840342402458191,0.8196571469306946,0.6514915823936462,0.5433156490325928,1.0177630186080933,0.9215956330299377,0.796563982963562,0.40067893266677856,1.0847687721252441,0.42866355180740356,0.7309465408325195
18290.01410180945,0.44284188747406006,0.23359602689743042,-0.9526986479759216,0.9999634027481079,0.4461023509502411,0.20975330471992493,-0.8910327553749084,0.9999308586120605,0.4542928636074066,0.20850718021392822,-0.8911672830581665,0.9999228715896606,0.46163883805274963,0.20710688829421997,-0.8912150859832764,0.9999082088470459,0.41530925035476685,0.21146869659423828,-0.9270243644714355,0.9999426603317261,0.3971138596534729,0.2116214632987976,-0.9271623492240906,0.9999434947967529,0.37808701395988464,0.21210119128227234,-0.9273369312286377,0.9999376535415649,0.45026513934135437,0.21378320455551147,-0.5250493288040161,0.9999266862869263,0.3270252048969269,0.22199156880378723,-0.6950613856315613,0.9999579191207886,0.4504214823246002,0.2560543715953827,-0.8148074746131897,0.9999798536300659,0.41782674193382263,0.25879156589508057,-0.8629107475280762,0.9999868869781494,0.5317755937576294,0.3458077609539032,-0.2578565776348114,0.9998542070388794,0.17539578676223755,0.37028446793556213,-0.5604331493377686,0.9997100234031677,0.5842246413230896,0.5081098079681396,0.02330048941075802,0.9661739468574524,0.14812162518501282,0.5310701727867126,-0.7673320174217224,0.9762375354766846,0.6453790068626404,0.6355952620506287,-0.19807201623916626,0.9619601368904114,0.25255537033081055,0.5553763508796692,-1.2799016237258911,0.9501985311508179,0.6656197309494019,0.6779934167861938,-0.27406224608421326,0.9388279318809509,0.30385303497314453,0.5644044280052185,-1.4044766426086426,0.9332788586616516,0.6518857479095459,0.677183210849762,-0.3629519045352936,0.9444074034690857,0.29953449964523315,0.5327638387680054,-1.459913969039917,0.9358903765678406,0.641559362411499,0.6675201654434204,-0.23677848279476166,0.9468753337860107,0.28695231676101685,0.5270616412162781,-1.3094998598098755,0.9213018417358398,0.4925980269908905,0.6338719725608826,0.10362789034843445,0.9976944327354431,0.32153716683387756,0.6559762358665466,-0.10319492965936661,0.9979827404022217,0.48887816071510315,0.8358112573623657,0.27049511671066284,0.944200873374939,0.3450002074241638,0.8675902485847473,0.06864728778600693,0.9602774977684021,0.4869619309902191,0.963368833065033,1.0840898752212524,0.8487879037857056,0.35890161991119385,0.9863528609275818,0.7373634576797485,0.8566144704818726,0.4672701954841614,0.9737372398376465,1.145888328552246,0.7738213539123535,0.3539130687713623,0.9845502972602844,0.7906723618507385,0.6168307065963745,0.5416311025619507,1.0211905241012573,0.8500857353210449,0.7771208882331848,0.3973657190799713,1.0876154899597168,0.397687166929245,0.7059276103973389
18306.68076847612,0.442402184009552,0.2312752604484558,-0.9559715390205383,0.9999748468399048,0.4456654489040375,0.2075527012348175,-0.8880434632301331,0.999954342842102,0.4540540874004364,0.2065638303756714,-0.8882037997245789,0.9999493360519409,0.4617750346660614,0.2055022120475769,-0.8882191181182861,0.9999406337738037,0.41412580013275146,0.2086969017982483,-0.9260089993476868,0.9999586343765259,0.3963083028793335,0.20867273211479187,-0.926140546798706,0.9999576807022095,0.37751173973083496,0.20893436670303345,-0.9263139963150024,0.9999508857727051,0.45170775055885315,0.2126455008983612,-0.5024897456169128,0.9999542236328125,0.3267767131328583,0.21962293982505798,-0.6821009516716003,0.9999669790267944,0.450167715549469,0.25418728590011597,-0.8125044703483582,0.9999873638153076,0.4170902967453003,0.25642460584640503,-0.8634201884269714,0.9999905824661255,0.533831000328064,0.3464202284812927,-0.23710915446281433,0.9999068975448608,0.17412272095680237,0.3709145486354828,-0.555632472038269,0.9997498393058777,0.5869107842445374,0.5067403316497803,0.03199627995491028,0.9759429097175598,0.15721391141414642,0.531273603439331,-0.7626059651374817,0.9743135571479797,0.647253692150116,0.6352393627166748,-0.22456587851047516,0.9761083722114563,0.2430533915758133,0.5563249588012695,-1.295243740081787,0.9478610157966614,0.6658006310462952,0.6777865886688232,-0.31177374720573425,0.9591062664985657,0.28528788685798645,0.566500723361969,-1.4284861087799072,0.9328776001930237,0.6496365070343018,0.6765186786651611,-0.4047040343284607,0.9627509713172913,0.2885231077671051,0.5350971221923828,-1.493424892425537,0.9356245994567871,0.6392359733581543,0.6670388579368591,-0.26553791761398315,0.9635336995124817,0.27690383791923523,0.5291589498519897,-1.3298050165176392,0.9205132722854614,0.4899069666862488,0.6353414058685303,0.11455224454402924,0.9982966780662537,0.31640926003456116,0.6565451622009277,-0.11407127231359482,0.9985005855560303,0.4862062931060791,0.8372180461883545,0.2972795367240906,0.9563868641853333,0.3379625678062439,0.8720817565917969,0.06930611282587051,0.9728922843933105,0.4860435724258423,0.960176944732666,1.1765962839126587,0.889755368232727,0.35694465041160583,0.9940354824066162,0.7767310738563538,0.9066950082778931,0.4625183045864105,0.9710761308670044,1.2451895475387573,0.8513491749763489,0.354384183883667,0.9947534799575806,0.8323877453804016,0.6970915794372559,0.5454386472702026,1.0200413465499878,0.9507801532745361,0.8488034009933472,0.40904560685157776,1.0936442613601685,0.4238203465938568,0.7917453050613403
18323.347435142787,0.44120708107948303,0.23286062479019165,-0.925482988357544,0.9999395608901978,0.4455225467681885,0.20912325382232666,-0.8643162250518799,0.9998875856399536,0.45373228192329407,0.2077431082725525,-0.8644878268241882,0.9998774528503418,0.46143797039985657,0.20628100633621216,-0.8645827770233154,0.9998574256896973,0.41321176290512085,0.21153190732002258,-0.9015231132507324,0.9999058246612549,0.3948701024055481,0.2120743691921234,-0.9016659259796143,0.9999053478240967,0.37563663721084595,0.21284794807434082,-0.9018756747245789,0.9998944997787476,0.45181235671043396,0.21423503756523132,-0.49788498878479004,0.9998869895935059,0.32407328486442566,0.22383257746696472,-0.672935962677002,0.9999310970306396,0.4491765797138214,0.2561219334602356,-0.7863765954971313,0.999968409538269,0.41478604078292847,0.2591705322265625,-0.8360128998756409,0.99997878074646,0.5338408946990967,0.3472352921962738,-0.23157666623592377,0.9998241066932678,0.1742083579301834,0.37172430753707886,-0.5324509143829346,0.9996200799942017,0.5848978161811829,0.5089910626411438,0.037878695875406265,0.9642242193222046,0.14854349195957184,0.5315375924110413,-0.7284638285636902,0.9697489738464355,0.6448423862457275,0.6346516013145447,-0.20511610805988312,0.9575998187065125,0.25179022550582886,0.5572789311408997,-1.2350034713745117,0.9304543733596802,0.6661279201507568,0.6766555309295654,-0.28634217381477356,0.932761549949646,0.29792341589927673,0.5678157806396484,-1.3571621179580688,0.9096685647964478,0.6533012390136719,0.6759535670280457,-0.3765805661678314,0.93936687707901,0.29783910512924194,0.5372384786605835,-1.416040062904358,0.9135116934776306,0.6431130170822144,0.6663758754730225,-0.24519535899162292,0.9414156079292297,0.2850109934806824,0.5308080911636353,-1.2657207250595093,0.8952471613883972,0.49536043405532837,0.6340692639350891,0.10173860937356949,0.9969899654388428,0.3211732804775238,0.6561048626899719,-0.10125285387039185,0.9973862767219543,0.4870169758796692,0.8412638902664185,0.23093123733997345,0.9428852796554565,0.3453776240348816,0.8706636428833008,0.0513976588845253,0.9508339762687683,0.48908644914627075,0.9693589806556702,1.03953218460083,0.8303118944168091,0.3580799400806427,0.9917653203010559,0.7192329168319702,0.8308237195014954,0.46971914172172546,0.9779583811759949,1.1003696918487549,0.7494441866874695,0.35390403866767883,0.9883436560630798,0.7712340950965881,0.5710762143135071,0.5476601719856262,1.044516682624817,0.7924658060073853,0.7467857599258423,0.39246004819869995,1.0946054458618164,0.36630675196647644,0.6650058031082153
18340.014101809455,0.4428027272224426,0.233090341091156,-0.9234188199043274,0.9999339580535889,0.4465695321559906,0.20929110050201416,-0.8593054413795471,0.9998773336410522,0.4546123743057251,0.20800328254699707,-0.8594696521759033,0.999863862991333,0.4619521498680115,0.2065882682800293,-0.8595327138900757,0.9998408555984497,0.4154150187969208,0.21126246452331543,-0.8976531624794006,0.9998977184295654,0.397218257188797,0.21149283647537231,-0.8977901339530945,0.9998984336853027,0.37779495120048523,0.2120676040649414,-0.8979899883270264,0.9998880624771118,0.45024996995925903,0.2138378620147705,-0.4858575761318207,0.9998747110366821,0.326419860124588,0.22220391035079956,-0.6651535630226135,0.99992835521698,0.44964319467544556,0.2559381425380707,-0.7827374339103699,0.9999661445617676,0.416635662317276,0.258579820394516,-0.8336053490638733,0.999977707862854,0.5321837067604065,0.347073495388031,-0.21427781879901886,0.9998286962509155,0.1748255044221878,0.37004411220550537,-0.53536057472229,0.9996464252471924,0.5862076282501221,0.5091046690940857,0.06715342402458191,0.9634214639663696,0.15044337511062622,0.5285336971282959,-0.7397354245185852,0.9713407158851624,0.6471337080001831,0.6356802582740784,-0.17121173441410065,0.9574674367904663,0.2444191426038742,0.5563604831695557,-1.2534518241882324,0.9388547539710999,0.6695064306259155,0.6775450706481934,-0.2498689442873001,0.9328154921531677,0.288985013961792,0.5671926736831665,-1.3793686628341675,0.9200043678283691,0.6570606231689453,0.6767637133598328,-0.34199461340904236,0.9391657710075378,0.29257726669311523,0.536077618598938,-1.4391940832138062,0.9235065579414368,0.6469691395759583,0.6670704483985901,-0.2121279090642929,0.9419036507606506,0.28006961941719055,0.5300379395484924,-1.285058856010437,0.9065392017364502,0.492285817861557,0.6364090442657471,0.11045432090759277,0.9977717995643616,0.3191772699356079,0.6579098701477051,-0.11000952124595642,0.9980401396751404,0.4858289957046509,0.8394135236740112,0.26965245604515076,0.9507331848144531,0.3443831503391266,0.8708837628364563,0.06769649684429169,0.960660457611084,0.4889618158340454,0.9681578278541565,1.1139030456542969,0.8598628044128418,0.3604090213775635,0.9873237609863281,0.7668389081954956,0.8609217405319214,0.4715130031108856,0.9773162007331848,1.178215503692627,0.7747118473052979,0.3582531213760376,1.019526481628418,0.8225054144859314,0.617765486240387,0.5397785305976868,1.0259177684783936,0.8706228137016296,0.7876388430595398,0.39889901876449585,1.0893927812576294,0.42004287242889404,0.7177205085754395
18356.680768476122,0.44291773438453674,0.23374947905540466,-0.9264386892318726,0.9999490976333618,0.44700536131858826,0.21041151881217957,-0.8641136288642883,0.9999048709869385,0.4550403356552124,0.20929691195487976,-0.8642640113830566,0.9998934268951416,0.46225079894065857,0.20804280042648315,-0.8643378019332886,0.9998750686645508,0.41636398434638977,0.21211868524551392,-0.9039205312728882,0.999922513961792,0.3981771171092987,0.21238794922828674,-0.9040525555610657,0.9999226331710815,0.37886887788772583,0.21311578154563904,-0.904254138469696,0.9999157190322876,0.4506525695323944,0.21502962708473206,-0.4947175085544586,0.9999035596847534,0.3272668123245239,0.22348475456237793,-0.6811335682868958,0.9999455213546753,0.4493129253387451,0.25651103258132935,-0.7863625288009644,0.9999735355377197,0.41716641187667847,0.25899621844291687,-0.8393347263336182,0.9999827146530151,0.5302637219429016,0.3454366624355316,-0.22629165649414062,0.9998383522033691,0.17638994753360748,0.3691804111003876,-0.5439966917037964,0.9996601343154907,0.5844529867172241,0.5082882046699524,0.06101652979850769,0.9653434753417969,0.14465096592903137,0.5284919142723083,-0.7454802989959717,0.9738427996635437,0.6464588642120361,0.6359908580780029,-0.16785918176174164,0.9583357572555542,0.2508384883403778,0.5535696744918823,-1.2507421970367432,0.9484614729881287,0.6673772931098938,0.6778308153152466,-0.24490725994110107,0.9340590834617615,0.3061392307281494,0.5642521381378174,-1.3745372295379639,0.9312133193016052,0.6537168622016907,0.6767181754112244,-0.3363690674304962,0.9402576088905334,0.3070952892303467,0.5334622859954834,-1.4317728281021118,0.9339727759361267,0.6436612606048584,0.6671515107154846,-0.20799992978572845,0.9428900480270386,0.29247352480888367,0.5263391733169556,-1.2804009914398193,0.9175094366073608,0.4922754466533661,0.6357740163803101,0.09906066954135895,0.9978669881820679,0.3189440369606018,0.6563292145729065,-0.09860562533140182,0.9980425834655762,0.486106812953949,0.8414502739906311,0.2222030758857727,0.9551601409912109,0.34576982259750366,0.8684618473052979,0.05864578112959862,0.9576027989387512,0.49088573455810547,0.9698671698570251,1.049592137336731,0.8672952651977539,0.36117061972618103,0.9865831136703491,0.7503100037574768,0.861312747001648,0.47508612275123596,0.9791104793548584,1.111730694770813,0.7827774286270142,0.3584396243095398,0.9859011173248291,0.8051881790161133,0.6174553632736206,0.5442851781845093,1.0429868698120117,0.8018375635147095,0.7916997075080872,0.3865135908126831,1.088212490081787,0.4055570363998413,0.720119059085846
18373.34743514279,0.44115057587623596,0.23491206765174866,-1.0095446109771729,0.9999712705612183,0.4457256495952606,0.21135929226875305,-0.9468482136726379,0.9999454021453857,0.4540150761604309,0.21005773544311523,-0.9469729065895081,0.9999390840530396,0.4615163803100586,0.20862442255020142,-0.9470222592353821,0.9999281167984009,0.4138758182525635,0.21350198984146118,-0.9843271970748901,0.9999536275863647,0.39532670378685,0.21385687589645386,-0.9844766855239868,0.9999529123306274,0.37590646743774414,0.2145758867263794,-0.9846329092979431,0.9999463558197021,0.451375812292099,0.21574285626411438,-0.5687000155448914,0.9999426603317261,0.3245084583759308,0.22496485710144043,-0.7474443316459656,0.999963641166687,0.44834569096565247,0.2578200697898865,-0.8667762279510498,0.9999837875366211,0.41523122787475586,0.2605508267879486,-0.9175460934638977,0.9999886751174927,0.5317792892456055,0.3465784192085266,-0.29179179668426514,0.9998825788497925,0.17603479325771332,0.37211936712265015,-0.6022323966026306,0.9997251629829407,0.5858465433120728,0.5082523226737976,0.0017250574892386794,0.9711286425590515,0.1520378291606903,0.5257384777069092,-0.8033878803253174,0.9745360016822815,0.646085262298584,0.6357609629631042,-0.21847619116306305,0.9694985747337341,0.2504187226295471,0.5552592277526855,-1.3098552227020264,0.9389201998710632,0.6654739379882812,0.677522599697113,-0.2954730689525604,0.9485135078430176,0.2927122712135315,0.5651150941848755,-1.4379841089248657,0.9190640449523926,0.650187611579895,0.6763280630111694,-0.39081889390945435,0.9531079530715942,0.29474347829818726,0.5351345539093018,-1.4952787160873413,0.9215648770332336,0.6397070288658142,0.6664864420890808,-0.25959381461143494,0.9545490145683289,0.28275102376937866,0.529339611530304,-1.3408774137496948,0.9037185311317444,0.49211180210113525,0.6293281316757202,0.10723219066858292,0.9980155229568481,0.31762027740478516,0.6509425044059753,-0.10683516412973404,0.9982759952545166,0.4876166880130768,0.8312802314758301,0.3335254192352295,0.9588655829429626,0.33880114555358887,0.8683081865310669,0.09779547899961472,0.974997878074646,0.48462164402008057,0.9566294550895691,1.1947156190872192,0.8922073841094971,0.35633233189582825,0.9891044497489929,0.7971515655517578,0.9124825596809387,0.4626884460449219,0.9675937294960022,1.261727213859558,0.8393333554267883,0.3541281223297119,0.9887468218803406,0.8526797890663147,0.7007918953895569,0.5400682687759399,1.0173680782318115,0.9663594961166382,0.85059654712677,0.40325239300727844,1.0846377611160278,0.448529988527298,0.8027699589729309
18390.01410180946,0.4402962625026703,0.23469430208206177,-1.0048240423202515,0.9999713897705078,0.44509512186050415,0.21123400330543518,-0.9417685270309448,0.9999462366104126,0.4535689055919647,0.2099747657775879,-0.9418983459472656,0.9999397993087769,0.461251825094223,0.20860007405281067,-0.9419417381286621,0.9999289512634277,0.4130386710166931,0.2130991816520691,-0.977332592010498,0.9999539852142334,0.3941049575805664,0.21336910128593445,-0.9774752259254456,0.9999527931213379,0.3746410310268402,0.21402671933174133,-0.9776176810264587,0.999946117401123,0.45131611824035645,0.2154010534286499,-0.5643883347511292,0.9999420642852783,0.3230760991573334,0.22433540225028992,-0.7346880435943604,0.9999631643295288,0.4475770890712738,0.25743770599365234,-0.8628952503204346,0.9999834299087524,0.4138988256454468,0.2600308060646057,-0.911170244216919,0.9999884366989136,0.5312897562980652,0.34647196531295776,-0.29106494784355164,0.999870777130127,0.17609243094921112,0.3717922270298004,-0.5904421806335449,0.9997240900993347,0.5855075120925903,0.5084856748580933,-0.011170928366482258,0.9686116576194763,0.15321895480155945,0.5250786542892456,-0.7892225980758667,0.9718594551086426,0.6455533504486084,0.6359353065490723,-0.2413785308599472,0.9656558632850647,0.24922142922878265,0.5546920895576477,-1.296204924583435,0.9303305149078369,0.6650898456573486,0.6776697635650635,-0.32044079899787903,0.9428501725196838,0.2900635600090027,0.5650415420532227,-1.4246076345443726,0.9091089367866516,0.6498209238052368,0.6764686703681946,-0.41548240184783936,0.9478276968002319,0.2928467094898224,0.5345290303230286,-1.4808502197265625,0.9117268323898315,0.6391928195953369,0.6667545437812805,-0.282698392868042,0.9494879245758057,0.28144997358322144,0.5286542773246765,-1.3272501230239868,0.8929746150970459,0.49194326996803284,0.6297954320907593,0.10765108466148376,0.9979664087295532,0.31782859563827515,0.650877058506012,-0.10725798457860947,0.9983105659484863,0.48777976632118225,0.8311079144477844,0.36166542768478394,0.9583379626274109,0.33812272548675537,0.8678481578826904,0.11522676050662994,0.9774397611618042,0.4842146337032318,0.9555925130844116,1.210834264755249,0.8960747122764587,0.3558526039123535,0.989118218421936,0.8093768358230591,0.9187823534011841,0.4619165360927582,0.967631459236145,1.2767518758773804,0.8487277626991272,0.35406288504600525,0.9891271591186523,0.8644651174545288,0.7173628807067871,0.5408226251602173,1.016611099243164,0.9841628074645996,0.8575186729431152,0.40187034010887146,1.0833003520965576,0.46379953622817993,0.8130649924278259
18406.680768476126,0.4400196075439453,0.23548436164855957,-1.0318026542663574,0.9999881982803345,0.44567006826400757,0.21194612979888916,-0.9691786766052246,0.9999771118164062,0.45433369278907776,0.21082720160484314,-0.9692619442939758,0.9999734163284302,0.46199584007263184,0.20963460206985474,-0.969221830368042,0.9999681711196899,0.41334906220436096,0.21363922953605652,-1.0037579536437988,0.9999812841415405,0.39441248774528503,0.21395212411880493,-1.0038704872131348,0.999980092048645,0.3750685155391693,0.21470731496810913,-1.003958821296692,0.9999771118164062,0.4532681405544281,0.21604418754577637,-0.5905314087867737,0.9999731779098511,0.32316553592681885,0.2247210144996643,-0.7571725845336914,0.9999841451644897,0.44713518023490906,0.2584972381591797,-0.8894201517105103,0.9999924898147583,0.41337788105010986,0.2609862983226776,-0.9365096092224121,0.9999949932098389,0.5330244302749634,0.3470038175582886,-0.3205063045024872,0.9999268054962158,0.17440100014209747,0.3712807893753052,-0.6063438057899475,0.999859094619751,0.5886290669441223,0.507607638835907,-0.05805283412337303,0.9799006581306458,0.14849281311035156,0.5262348651885986,-0.8260810375213623,0.9834997653961182,0.6462752223014832,0.6348335146903992,-0.3186485469341278,0.9822719097137451,0.2480727732181549,0.5533014535903931,-1.3671890497207642,0.9656867384910583,0.664798378944397,0.6778868436813354,-0.4052981436252594,0.9676120281219482,0.2934519350528717,0.5631296634674072,-1.5016815662384033,0.9508941173553467,0.6491039991378784,0.676764726638794,-0.501036524772644,0.9702667593955994,0.29391318559646606,0.5315030217170715,-1.5554568767547607,0.9521051645278931,0.6390677690505981,0.6674016714096069,-0.3605276048183441,0.9701656103134155,0.28264445066452026,0.5265751481056213,-1.3976624011993408,0.939832329750061,0.49029672145843506,0.6287423372268677,0.10643091797828674,0.9986446499824524,0.31928837299346924,0.6499404907226562,-0.10608038306236267,0.9990191459655762,0.4868219196796417,0.8276645541191101,0.4175228774547577,0.9676871299743652,0.33916109800338745,0.864302396774292,0.16100606322288513,0.9856715798377991,0.4848475158214569,0.9564613699913025,1.2366280555725098,0.9271373748779297,0.35816675424575806,0.9880408644676208,0.8410917520523071,0.948637843132019,0.4603286683559418,0.9687190055847168,1.2993422746658325,0.8947531580924988,0.35892853140830994,0.9880169630050659,0.8948458433151245,0.803687334060669,0.5462409853935242,1.0171328783035278,1.0163683891296387,0.8982663154602051,0.3964923918247223,1.0754884481430054,0.5084021687507629,0.8701881170272827
18423.347435142794,0.4414684474468231,0.23332342505455017,-0.965265691280365,0.999974250793457,0.4452573359012604,0.20989510416984558,-0.8999639749526978,0.9999526739120483,0.4534587860107422,0.20863759517669678,-0.9000923037528992,0.9999467134475708,0.4611651301383972,0.20724382996559143,-0.9001047015190125,0.9999374151229858,0.4132939577102661,0.2118339240550995,-0.9347138404846191,0.999956488609314,0.3948758840560913,0.21216464042663574,-0.9347942471504211,0.9999551773071289,0.37562209367752075,0.21270406246185303,-0.9349296689033508,0.9999487400054932,0.45137983560562134,0.21422263979911804,-0.5192366242408752,0.9999511241912842,0.3245076835155487,0.22247877717018127,-0.6843634843826294,0.9999639987945557,0.4491473138332367,0.25636085867881775,-0.8229617476463318,0.9999866485595703,0.41541266441345215,0.258980929851532,-0.8696836233139038,0.9999898672103882,0.5334381461143494,0.34635987877845764,-0.2568056285381317,0.9999172687530518,0.1772417277097702,0.3700949549674988,-0.542860746383667,0.9997314810752869,0.5855887532234192,0.508802056312561,0.0193389393389225,0.9734879732131958,0.15360283851623535,0.5234235525131226,-0.7712520360946655,0.9722875356674194,0.6426092386245728,0.6364790797233582,-0.22466711699962616,0.9740911722183228,0.23804807662963867,0.5550828576087952,-1.3322222232818604,0.9447603225708008,0.662118673324585,0.6785359382629395,-0.30737996101379395,0.9562164545059204,0.28085052967071533,0.5662394165992737,-1.4671779870986938,0.9278720021247864,0.6472700834274292,0.6776715517044067,-0.40075042843818665,0.9601583480834961,0.28205156326293945,0.5342997908592224,-1.5258593559265137,0.9308393597602844,0.6367843151092529,0.6685896515846252,-0.26547014713287354,0.9608170390129089,0.2713693082332611,0.5284251570701599,-1.3655930757522583,0.9157540798187256,0.4933006465435028,0.6308022141456604,0.099626824259758,0.9988264441490173,0.3177897036075592,0.6530706286430359,-0.09915516525506973,0.9988586902618408,0.4882340729236603,0.8324703574180603,0.27544671297073364,0.9647706151008606,0.34077176451683044,0.8660220503807068,0.09527590125799179,0.9727075099945068,0.48675593733787537,0.9605086445808411,1.1720529794692993,0.90012127161026,0.3554155230522156,0.9858062863349915,0.8343043923377991,0.9046164751052856,0.4657561779022217,0.9711215496063232,1.241949200630188,0.8345069885253906,0.3558460474014282,0.9852868914604187,0.8942976593971252,0.6923614740371704,0.5345155000686646,1.0237221717834473,0.9362245798110962,0.8475558757781982,0.3943982422351837,1.0758455991744995,0.497388631105423,0.791404664516449
18440.014101809462,0.44369155168533325,0.23385927081108093,-1.0203368663787842,0.9999877214431763,0.447024405002594,0.21019041538238525,-0.9560705423355103,0.9999771118164062,0.45494961738586426,0.2088843584060669,-0.956161379814148,0.9999735355377197,0.46233347058296204,0.20740583539009094,-0.956118106842041,0.9999680519104004,0.4152805209159851,0.21240738034248352,-0.9921848177909851,0.9999806880950928,0.39744704961776733,0.2127423882484436,-0.992291271686554,0.9999797344207764,0.3778838515281677,0.21332350373268127,-0.9923980832099915,0.9999765157699585,0.4511626958847046,0.21438804268836975,-0.5758993029594421,0.9999748468399048,0.32549136877059937,0.22319114208221436,-0.7489878535270691,0.9999837875366211,0.4507405757904053,0.2566450834274292,-0.8782550692558289,0.9999927282333374,0.4174031615257263,0.2596960961818695,-0.9271667003631592,0.9999949932098389,0.5341054201126099,0.34752795100212097,-0.3124536871910095,0.9999281167984009,0.1714620143175125,0.371660441160202,-0.6048657894134521,0.9998341798782349,0.5852913856506348,0.5083627700805664,-0.04248237982392311,0.9792807698249817,0.1492733657360077,0.527313232421875,-0.8364114165306091,0.9822688102722168,0.643215537071228,0.6353496313095093,-0.2926924526691437,0.9817914962768555,0.24483203887939453,0.5541874766349792,-1.3906913995742798,0.9639543890953064,0.6637685298919678,0.6787153482437134,-0.37764444947242737,0.9670132398605347,0.28888028860092163,0.5648269057273865,-1.5265493392944336,0.9495478868484497,0.6477922201156616,0.6775591969490051,-0.4724276661872864,0.9698284864425659,0.28723031282424927,0.5320498943328857,-1.5831241607666016,0.9512404203414917,0.6367213726043701,0.6682740449905396,-0.3339744806289673,0.9700853228569031,0.2763126790523529,0.5268264412879944,-1.4226598739624023,0.9392605423927307,0.4889073073863983,0.6310867071151733,0.10376394540071487,0.998764157295227,0.3160015642642975,0.6525935530662537,-0.10332486778497696,0.9990410208702087,0.48776713013648987,0.826789140701294,0.37156039476394653,0.9674370288848877,0.33836883306503296,0.8645819425582886,0.14054997265338898,0.9824733734130859,0.4853592813014984,0.9564835429191589,1.2271498441696167,0.9204950928688049,0.3583305776119232,0.9849124550819397,0.8438968658447266,0.9391093254089355,0.46141934394836426,0.9686259031295776,1.2935292720794678,0.8895545601844788,0.36052078008651733,0.9853471517562866,0.90008944272995,0.7857905030250549,0.543580949306488,1.0171236991882324,1.0077306032180786,0.8871970772743225,0.3960602283477783,1.0750826597213745,0.5112054347991943,0.8504994511604309
18456.68076847613,0.4435659348964691,0.2330712378025055,-0.9225828051567078,0.9999709129333496,0.44799619913101196,0.20971480011940002,-0.8602246642112732,0.9999450445175171,0.45601457357406616,0.2087073028087616,-0.8603641390800476,0.99993896484375,0.4631621837615967,0.20751157402992249,-0.860387921333313,0.999925971031189,0.41678616404533386,0.21110332012176514,-0.8965297341346741,0.9999542236328125,0.39875343441963196,0.21115544438362122,-0.8966613411903381,0.9999545812606812,0.3792668581008911,0.21161460876464844,-0.8968287110328674,0.9999499320983887,0.4515208303928375,0.21447142958641052,-0.4954134225845337,0.9999415874481201,0.3282570242881775,0.22160261869430542,-0.6672014594078064,0.9999662637710571,0.4499499201774597,0.25630149245262146,-0.7855936288833618,0.9999840259552002,0.41713154315948486,0.2586570084095001,-0.8342353701591492,0.9999896287918091,0.531022310256958,0.346304714679718,-0.23702529072761536,0.9998831748962402,0.17919647693634033,0.37006548047065735,-0.5292417407035828,0.9997559189796448,0.5813038945198059,0.5089882612228394,0.03697215020656586,0.9700983166694641,0.14498600363731384,0.5258886218070984,-0.7457443475723267,0.9777876138687134,0.6444324851036072,0.6372053623199463,-0.19711951911449432,0.966684877872467,0.250503808259964,0.5543697476387024,-1.276572346687317,0.9570346474647522,0.665439784526825,0.6785597801208496,-0.2744005024433136,0.9456250667572021,0.29905062913894653,0.5658138394355774,-1.402530550956726,0.941170871257782,0.6529439687728882,0.6770644783973694,-0.3645443022251129,0.9504677653312683,0.2954891324043274,0.532264232635498,-1.45492422580719,0.9431430697441101,0.642906665802002,0.6678808927536011,-0.2366057187318802,0.9522216320037842,0.2852115333080292,0.5263612270355225,-1.3053401708602905,0.9294803142547607,0.4930880069732666,0.6339330673217773,0.09865713119506836,0.9979453682899475,0.31924569606781006,0.6554569005966187,-0.09820608049631119,0.9982098340988159,0.48750752210617065,0.835616409778595,0.24658915400505066,0.9560331702232361,0.3445950746536255,0.8676577806472778,0.052030399441719055,0.9652962684631348,0.4914645552635193,0.9667394757270813,1.0503349304199219,0.8762518763542175,0.3618166148662567,0.9913451075553894,0.7110779881477356,0.8760965466499329,0.47501930594444275,0.9759424328804016,1.1103181838989258,0.7908994555473328,0.35846057534217834,0.9899789094924927,0.7627707719802856,0.6368238925933838,0.5519359707832336,1.04127836227417,0.8063399195671082,0.8071709275245667,0.3981347382068634,1.0909984111785889,0.36464613676071167,0.7389246821403503
18473.347435142798,0.4444635212421417,0.23257112503051758,-0.9436722993850708,0.9999686479568481,0.44711267948150635,0.20878899097442627,-0.8782919049263,0.9999419450759888,0.45478174090385437,0.20749419927597046,-0.8784219622612,0.9999346733093262,0.46172624826431274,0.20601603388786316,-0.8784211874008179,0.9999217987060547,0.41638070344924927,0.21074461936950684,-0.9156604409217834,0.9999502897262573,0.3984457552433014,0.21080231666564941,-0.9157668948173523,0.9999508857727051,0.37890225648880005,0.2111888825893402,-0.9159432649612427,0.9999444484710693,0.44957056641578674,0.21286991238594055,-0.5005149245262146,0.9999383687973022,0.3271990120410919,0.22126060724258423,-0.676993727684021,0.9999631643295288,0.4512762725353241,0.2548435926437378,-0.8023712635040283,0.9999839067459106,0.41918134689331055,0.258013516664505,-0.8522868752479553,0.9999891519546509,0.5306972861289978,0.3462574779987335,-0.2297118902206421,0.9998960494995117,0.1760360151529312,0.37117648124694824,-0.5484804511070251,0.9997422099113464,0.5840219855308533,0.5073719620704651,0.062088754028081894,0.9722887873649597,0.14950518310070038,0.5303663015365601,-0.7809776663780212,0.9788253903388977,0.6440515518188477,0.636327862739563,-0.16855359077453613,0.9737104177474976,0.24609921872615814,0.5560741424560547,-1.3346037864685059,0.9604688286781311,0.6630747318267822,0.6795768737792969,-0.24709300696849823,0.9562244415283203,0.29199567437171936,0.5662382245063782,-1.4677832126617432,0.9463649988174438,0.6478198766708374,0.6779614686965942,-0.3379303812980652,0.9602576494216919,0.2933618426322937,0.5328865647315979,-1.52485990524292,0.9486165046691895,0.6377876996994019,0.6681609749794006,-0.20788300037384033,0.9613423347473145,0.281514048576355,0.5275968909263611,-1.3657615184783936,0.9355538487434387,0.4934718906879425,0.635705828666687,0.11049241572618484,0.998612642288208,0.32075220346450806,0.6582340002059937,-0.11003338545560837,0.9986552000045776,0.4886958599090576,0.8340456485748291,0.2686986029148102,0.9540402889251709,0.3423100411891937,0.8682491779327393,0.08099664747714996,0.9635935425758362,0.4872422516345978,0.9608873128890991,1.140342116355896,0.8730752468109131,0.3526736795902252,0.9864894151687622,0.8065500259399414,0.8728763461112976,0.4643274247646332,0.9709441065788269,1.208011269569397,0.8101142048835754,0.34950247406959534,0.9858513474464417,0.8655964732170105,0.6489832401275635,0.5357930660247803,1.0241459608078003,0.9069005250930786,0.8109446167945862,0.3973732888698578,1.083082914352417,0.46898820996284485,0.7355058789253235
18490.014101809466,0.4466143548488617,0.23229184746742249,-0.9166133403778076,0.9999508857727051,0.4492449462413788,0.2085452675819397,-0.8521850109100342,0.999908447265625,0.45655420422554016,0.20730161666870117,-0.8523302674293518,0.9998962879180908,0.46321943402290344,0.2058829963207245,-0.8523727059364319,0.9998779296875,0.4187772572040558,0.21051374077796936,-0.8913980722427368,0.9999258518218994,0.40137404203414917,0.21048879623413086,-0.891526997089386,0.9999268054962158,0.38162854313850403,0.21089887619018555,-0.8917161226272583,0.9999215602874756,0.4488931894302368,0.2131727933883667,-0.4853392541408539,0.9998995065689087,0.32857829332351685,0.22123578190803528,-0.6693226099014282,0.9999476671218872,0.4522305428981781,0.25467464327812195,-0.7793359756469727,0.9999744892120361,0.4203590154647827,0.2580888867378235,-0.8314496278762817,0.9999840259552002,0.5297269225120544,0.34585651755332947,-0.22533006966114044,0.9998337030410767,0.17632697522640228,0.3712494671344757,-0.546798825263977,0.9996824264526367,0.5825307369232178,0.5080851912498474,0.04969494789838791,0.9645738005638123,0.14210020005702972,0.5305991172790527,-0.7553890347480774,0.9792191386222839,0.6439472436904907,0.6369728446006775,-0.18449659645557404,0.9602389335632324,0.25503888726234436,0.5554879307746887,-1.2585958242416382,0.9570850133895874,0.6635522842407227,0.6799536943435669,-0.2628028988838196,0.9362205266952515,0.3085000216960907,0.5648451447486877,-1.3843673467636108,0.9405335187911987,0.6488645076751709,0.6789972186088562,-0.3506081700325012,0.9420577883720398,0.307794451713562,0.5345803499221802,-1.436858892440796,0.9427961707115173,0.6387611627578735,0.6688469648361206,-0.22341708838939667,0.9448084831237793,0.29394981265068054,0.5276826620101929,-1.286429762840271,0.928405225276947,0.4927755296230316,0.6375851035118103,0.10887239128351212,0.9978437423706055,0.3231793940067291,0.6588936448097229,-0.10843616724014282,0.9980114698410034,0.48657476902008057,0.8392854928970337,0.2588496208190918,0.9422146081924438,0.3448144197463989,0.8700849413871765,0.061532679945230484,0.9576935172080994,0.486559122800827,0.9625140428543091,1.093943476676941,0.8454203605651855,0.35499489307403564,0.9848260879516602,0.7567496299743652,0.8487095832824707,0.4656537175178528,0.9713809490203857,1.15787672996521,0.7709304094314575,0.35012996196746826,0.9838014841079712,0.8127514719963074,0.6040924787521362,0.5392492413520813,1.0202656984329224,0.8608109354972839,0.7793576121330261,0.3991555869579315,1.0843877792358398,0.4195430874824524,0.7024207711219788
18506.680768476133,0.44700026512145996,0.2315828800201416,-0.885094404220581,0.9999645948410034,0.4492160975933075,0.20823264122009277,-0.8249841928482056,0.9999336004257202,0.456455796957016,0.20725074410438538,-0.825107753276825,0.9999275207519531,0.463160902261734,0.2061084508895874,-0.8251649141311646,0.9999161958694458,0.41945287585258484,0.20956096053123474,-0.8651423454284668,0.9999430179595947,0.4027666449546814,0.20932182669639587,-0.8652328848838806,0.9999423027038574,0.3832473158836365,0.20956876873970032,-0.8653702139854431,0.9999357461929321,0.4490305185317993,0.21307486295700073,-0.47704020142555237,0.999933123588562,0.32962679862976074,0.22003689408302307,-0.6667895913124084,0.9999531507492065,0.45227012038230896,0.2540546953678131,-0.7540678977966309,0.9999810457229614,0.42090436816215515,0.25727933645248413,-0.8078783750534058,0.9999860525131226,0.5289090871810913,0.3446076810359955,-0.24717587232589722,0.9998836517333984,0.17823907732963562,0.3692062795162201,-0.5363845825195312,0.9996602535247803,0.5838421583175659,0.5054793357849121,0.013438566587865353,0.9714229106903076,0.14801184833049774,0.527300238609314,-0.7347613573074341,0.970548152923584,0.6425619721412659,0.6334766149520874,-0.20843259990215302,0.965593695640564,0.25122731924057007,0.5539129376411438,-1.2164640426635742,0.9405421614646912,0.6623440980911255,0.6777427196502686,-0.2849789559841156,0.9430791735649109,0.3030792474746704,0.5637246966362,-1.3357545137405396,0.923898458480835,0.6473512053489685,0.6766523122787476,-0.3708747625350952,0.9484702944755554,0.29943862557411194,0.5308413505554199,-1.3886209726333618,0.9266436100006104,0.6371606588363647,0.6670715808868408,-0.24604405462741852,0.9508514404296875,0.2881794273853302,0.5253201127052307,-1.244947910308838,0.9104662537574768,0.49342507123947144,0.6295908093452454,0.09218655526638031,0.9979575872421265,0.32003530859947205,0.6505995392799377,-0.0917457565665245,0.9980340600013733,0.4843427836894989,0.8347820043563843,0.2351670265197754,0.9555826187133789,0.34502896666526794,0.8658689856529236,0.05747748166322708,0.9649328589439392,0.4871327877044678,0.9638633728027344,1.0308748483657837,0.882965087890625,0.3581992983818054,0.9853127002716064,0.7141343355178833,0.8822250962257385,0.46775636076927185,0.9733928442001343,1.090903639793396,0.8029698729515076,0.3604204058647156,1.0096819400787354,0.7661405801773071,0.6436295509338379,0.5396305322647095,1.01991605758667,0.8013500571250916,0.8185609579086304,0.39291033148765564,1.081363558769226,0.3870486319065094,0.7506021857261658
18523.3474351428,0.44265976548194885,0.2326488494873047,-0.9752768278121948,0.9999634027481079,0.4462168216705322,0.20864912867546082,-0.9092071652412415,0.9999328851699829,0.4543972611427307,0.20734241604804993,-0.9093613624572754,0.9999240636825562,0.4620119035243988,0.20594125986099243,-0.9093789458274841,0.9999072551727295,0.4146912097930908,0.2107003927230835,-0.9464341402053833,0.9999432563781738,0.396253764629364,0.2110421359539032,-0.9465526938438416,0.9999431371688843,0.3771885931491852,0.21170303225517273,-0.9467270374298096,0.9999361038208008,0.4523952305316925,0.2129662036895752,-0.5230441689491272,0.9999258518218994,0.326629102230072,0.22177568078041077,-0.698093831539154,0.9999599456787109,0.4508099853992462,0.25556695461273193,-0.830487072467804,0.999980092048645,0.41686075925827026,0.25875094532966614,-0.879999041557312,0.999987006187439,0.5337151288986206,0.3464876413345337,-0.24169495701789856,0.9998767375946045,0.17335698008537292,0.3721855580806732,-0.5620627403259277,0.9997503161430359,0.5847887992858887,0.5083984732627869,0.04164758324623108,0.9662113189697266,0.15091322362422943,0.5305814146995544,-0.7623672485351562,0.9774897694587708,0.6429370641708374,0.6362220048904419,-0.21770448982715607,0.9638083577156067,0.2421811819076538,0.5573195219039917,-1.279343843460083,0.9527536630630493,0.6619855165481567,0.6775283813476562,-0.301603764295578,0.940609872341156,0.2885046601295471,0.5678444504737854,-1.409099817276001,0.9351146817207336,0.6491812467575073,0.6769621968269348,-0.3947215676307678,0.9461047053337097,0.2898019552230835,0.5342856049537659,-1.4692593812942505,0.9379100203514099,0.6387090682983398,0.667570173740387,-0.2595977485179901,0.9483337998390198,0.27836060523986816,0.5285862684249878,-1.3110719919204712,0.9234499335289001,0.49241793155670166,0.6344465017318726,0.11321419477462769,0.9982659220695496,0.3177460730075836,0.656432569026947,-0.1127275675535202,0.998492956161499,0.48648062348365784,0.8381013870239258,0.29559171199798584,0.9491892457008362,0.3433011472225189,0.8666766881942749,0.07327403128147125,0.967394232749939,0.48907271027565,0.9659419059753418,1.181034803390503,0.8665012121200562,0.36050713062286377,0.9887124300003052,0.7946036458015442,0.8835709095001221,0.4686993956565857,0.97468501329422,1.2495757341384888,0.8183430433273315,0.3629585802555084,1.0156071186065674,0.8528247475624084,0.672690749168396,0.5594765543937683,1.0349689722061157,0.9454960823059082,0.8077529668807983,0.40464580059051514,1.0852742195129395,0.4479382038116455,0.7535964250564575
18540.01410180947,0.4420805871486664,0.23278111219406128,-0.9367015361785889,0.9999663829803467,0.4462234079837799,0.20926252007484436,-0.8700546622276306,0.9999405145645142,0.4546239674091339,0.20816880464553833,-0.8702213168144226,0.999932050704956,0.46225395798683167,0.20700335502624512,-0.8702290058135986,0.9999197721481323,0.4154494106769562,0.21057343482971191,-0.9060187935829163,0.9999496936798096,0.3977292478084564,0.21058541536331177,-0.9061245322227478,0.9999485015869141,0.37915435433387756,0.21094956994056702,-0.906289279460907,0.9999418258666992,0.45168742537498474,0.21374386548995972,-0.4884386658668518,0.9999345541000366,0.32876482605934143,0.22067496180534363,-0.6589928269386292,0.999962329864502,0.4496486485004425,0.25555726885795593,-0.7944983243942261,0.9999819993972778,0.4164186120033264,0.25778791308403015,-0.8426631093025208,0.999988317489624,0.5334094762802124,0.34636202454566956,-0.22458359599113464,0.9998822212219238,0.17464256286621094,0.3703884482383728,-0.5309114456176758,0.9997609257698059,0.5834969878196716,0.5077227354049683,0.04499911516904831,0.9708600044250488,0.15260978043079376,0.5307475328445435,-0.7578966617584229,0.9773039221763611,0.6429002285003662,0.6344243884086609,-0.20652450621128082,0.9727704524993896,0.24155835807323456,0.556411623954773,-1.308835744857788,0.9563711881637573,0.6624804735183716,0.6773742437362671,-0.29143616557121277,0.9545974135398865,0.2841857373714447,0.567255973815918,-1.4420578479766846,0.9415081739425659,0.6474372744560242,0.6767234802246094,-0.38314947485923767,0.9585897326469421,0.2873355746269226,0.5343656539916992,-1.5018879175186157,0.9440878033638,0.6365511417388916,0.667148232460022,-0.24710945785045624,0.9594684839248657,0.27674657106399536,0.5284985303878784,-1.341485619544983,0.9309840202331543,0.48866021633148193,0.6369812488555908,0.11374668031930923,0.9983099699020386,0.3170093894004822,0.6580013036727905,-0.1132768839597702,0.9986011385917664,0.4872909486293793,0.8376694917678833,0.3252253234386444,0.9500941038131714,0.34015995264053345,0.8694694638252258,0.09033843874931335,0.9690894484519958,0.48865023255348206,0.9667767286300659,1.1773029565811157,0.868694007396698,0.3579027056694031,0.9896124005317688,0.7828686833381653,0.8874760270118713,0.4679192006587982,0.9763628840446472,1.2432365417480469,0.828944981098175,0.3575960695743561,1.0188482999801636,0.8382962346076965,0.6881822347640991,0.5444086790084839,1.024371862411499,0.9524540901184082,0.8098942637443542,0.39965111017227173,1.085923194885254,0.44220754504203796,0.7537752389907837
18556.680768476137,0.4423283636569977,0.2330504059791565,-0.9448450207710266,0.9999606609344482,0.44614067673683167,0.20892813801765442,-0.8816848397254944,0.9999264478683472,0.45465585589408875,0.20776551961898804,-0.8818366527557373,0.9999184608459473,0.46244707703590393,0.2065819501876831,-0.881881833076477,0.999902606010437,0.415031760931015,0.21050295233726501,-0.9182764291763306,0.9999359846115112,0.39692965149879456,0.21069833636283875,-0.9184078574180603,0.999935507774353,0.37840166687965393,0.21126464009284973,-0.9185776114463806,0.9999270439147949,0.4518814980983734,0.21393483877182007,-0.509894609451294,0.9999208450317383,0.328588604927063,0.2215324342250824,-0.6831362843513489,0.9999510049819946,0.45030760765075684,0.255746454000473,-0.8050116300582886,0.9999786615371704,0.4166131615638733,0.2582579255104065,-0.8540863394737244,0.9999852180480957,0.5316205620765686,0.34598785638809204,-0.24400532245635986,0.9998723268508911,0.1789742112159729,0.3696509003639221,-0.548389732837677,0.9997004270553589,0.5829329490661621,0.5090004801750183,0.024776089936494827,0.9685407280921936,0.15395154058933258,0.5259665250778198,-0.7563337087631226,0.9730576276779175,0.6430057287216187,0.6352250576019287,-0.21657700836658478,0.9646322727203369,0.24921461939811707,0.5549064874649048,-1.2690931558609009,0.9470690488815308,0.6610454320907593,0.677355945110321,-0.2968486547470093,0.9415572881698608,0.2996508479118347,0.5652698874473572,-1.3951683044433594,0.9294965863227844,0.6483876705169678,0.676616370677948,-0.38729146122932434,0.9467616081237793,0.2955528497695923,0.5327234864234924,-1.4499517679214478,0.9319503307342529,0.6383333206176758,0.6675829887390137,-0.25652775168418884,0.9487180709838867,0.28475189208984375,0.5272462368011475,-1.2988224029541016,0.9165847301483154,0.49415022134780884,0.6326155066490173,0.1083168014883995,0.9980645775794983,0.31955525279045105,0.6549803018569946,-0.10786864906549454,0.9982185959815979,0.48785820603370667,0.8342001438140869,0.2576442062854767,0.9506323337554932,0.3453423082828522,0.8682979345321655,0.05287032201886177,0.9644683599472046,0.4895622432231903,0.9664546251296997,1.0935320854187012,0.8654868006706238,0.36269932985305786,0.991233766078949,0.7484995126724243,0.8746353983879089,0.47020378708839417,0.9752956628799438,1.1568855047225952,0.796859622001648,0.36115914583206177,0.990043044090271,0.8036710619926453,0.6351370811462402,0.560423731803894,1.038530945777893,0.8522623181343079,0.7988829612731934,0.40454620122909546,1.0877342224121094,0.40143731236457825,0.7376795411109924
18573.347435142805,0.44478628039360046,0.23209059238433838,-0.8932264447212219,0.9999661445617676,0.4473336935043335,0.208257257938385,-0.8305374383926392,0.9999366998672485,0.45521149039268494,0.20718780159950256,-0.8306836485862732,0.9999284744262695,0.462416410446167,0.20600652694702148,-0.8307098746299744,0.9999164342880249,0.4167098104953766,0.20965969562530518,-0.8655884265899658,0.999945878982544,0.3987690210342407,0.20965594053268433,-0.8656870126724243,0.9999450445175171,0.379760205745697,0.2100311815738678,-0.8658457398414612,0.9999394416809082,0.45035672187805176,0.21279606223106384,-0.4719495177268982,0.9999310970306396,0.32858189940452576,0.22010257840156555,-0.637691855430603,0.9999593496322632,0.4514809548854828,0.2544000446796417,-0.7593677639961243,0.9999822378158569,0.4190789461135864,0.2571307420730591,-0.8061339855194092,0.9999878406524658,0.5308508276939392,0.34479179978370667,-0.2261589765548706,0.9998853206634521,0.1798355132341385,0.3679890036582947,-0.5184729695320129,0.9997456669807434,0.5833580493927002,0.5069724321365356,0.0372484065592289,0.9689532518386841,0.15042424201965332,0.5258176326751709,-0.7269449234008789,0.9748939871788025,0.6441692113876343,0.635772168636322,-0.1907542496919632,0.9661049246788025,0.25161534547805786,0.5560552477836609,-1.230222463607788,0.9517924785614014,0.6640632152557373,0.6794422268867493,-0.2689147889614105,0.9453606009483337,0.2986767292022705,0.567719578742981,-1.3540315628051758,0.9364439845085144,0.6484912633895874,0.6778777241706848,-0.35629144310951233,0.9504140019416809,0.29941701889038086,0.5380815863609314,-1.4105921983718872,0.9392120242118835,0.6379896402359009,0.6680633425712585,-0.22929957509040833,0.9529747366905212,0.28831130266189575,0.5315310955047607,-1.2606925964355469,0.9265358448028564,0.4944511353969574,0.6333950161933899,0.10309665650129318,0.9984152317047119,0.3228621184825897,0.6553269028663635,-0.10266346484422684,0.9984931945800781,0.48754486441612244,0.8357998728752136,0.2630213499069214,0.9478455185890198,0.3459446430206299,0.8678889870643616,0.07798601686954498,0.9626642465591431,0.48925596475601196,0.9679431915283203,1.0601749420166016,0.8656627535820007,0.36174148321151733,0.9858669638633728,0.7505283951759338,0.865821897983551,0.46969547867774963,0.9769604802131653,1.1203222274780273,0.7923762202262878,0.3623735308647156,1.0121042728424072,0.8045777082443237,0.6305581331253052,0.5458695888519287,1.024025559425354,0.8264503479003906,0.798167884349823,0.40259402990341187,1.0831804275512695,0.4235791563987732,0.7275298237800598
18590.014101809473,0.4449329972267151,0.23365232348442078,-0.9476593136787415,0.9999687671661377,0.44849181175231934,0.21002721786499023,-0.8821310997009277,0.9999423027038574,0.4561474025249481,0.20898625254631042,-0.8822768330574036,0.9999346733093262,0.4630708694458008,0.20777863264083862,-0.8822837471961975,0.9999222755432129,0.41784101724624634,0.21146607398986816,-0.9231998920440674,0.9999501705169678,0.4000595808029175,0.21145612001419067,-0.9233115315437317,0.9999492168426514,0.38050001859664917,0.21183940768241882,-0.9234833121299744,0.9999434947967529,0.4506671726703644,0.21440273523330688,-0.5023505091667175,0.9999386072158813,0.327775776386261,0.22141620516777039,-0.6940990090370178,0.9999619722366333,0.45133349299430847,0.256488174200058,-0.8049600124359131,0.9999839067459106,0.4183254837989807,0.25929519534111023,-0.8593778014183044,0.9999889135360718,0.5332796573638916,0.34730029106140137,-0.23481589555740356,0.9999018907546997,0.17356182634830475,0.3709827661514282,-0.5608372092247009,0.9997561573982239,0.5848923921585083,0.5092506408691406,0.03890211507678032,0.9712972640991211,0.15331538021564484,0.5323014259338379,-0.7569833397865295,0.9768689274787903,0.640700101852417,0.6365633010864258,-0.23038703203201294,0.969892144203186,0.2438124418258667,0.5585623979568481,-1.2698885202407837,0.9582098722457886,0.6613442301750183,0.6773666739463806,-0.31755077838897705,0.9495290517807007,0.29007190465927124,0.5685631632804871,-1.3997297286987305,0.9437047839164734,0.6486978530883789,0.6768940687179565,-0.4103299379348755,0.9542681574821472,0.2906400263309479,0.5344822406768799,-1.4605627059936523,0.9460784792900085,0.637816846370697,0.6676355004310608,-0.27231431007385254,0.9557374715805054,0.27923375368118286,0.5287275314331055,-1.301637887954712,0.9321516752243042,0.49480950832366943,0.6353909969329834,0.11086039990186691,0.9984207153320312,0.3195266127586365,0.6585816740989685,-0.11035937070846558,0.9985849857330322,0.48814794421195984,0.8365190029144287,0.26485925912857056,0.9599248766899109,0.3445834815502167,0.8694235682487488,0.06078918278217316,0.9704796671867371,0.49070143699645996,0.9632925391197205,1.154847264289856,0.8877807855606079,0.36192628741264343,0.9885495901107788,0.7879589200019836,0.8971999883651733,0.4701257050037384,0.9726030230522156,1.223664402961731,0.8296518325805664,0.3666510581970215,1.0149966478347778,0.8463374972343445,0.6846033930778503,0.5483359694480896,1.0230882167816162,0.919111967086792,0.8356835246086121,0.4067976772785187,1.0858614444732666,0.444449782371521,0.7816689014434814
18606.68076847614,0.4462396800518036,0.2334015667438507,-0.9326243996620178,0.9999736547470093,0.44969046115875244,0.20945405960083008,-0.8645110726356506,0.9999529123306274,0.45722493529319763,0.20866337418556213,-0.8646557331085205,0.9999479055404663,0.46407201886177063,0.2078879177570343,-0.8646734952926636,0.999937891960144,0.4192412793636322,0.21051034331321716,-0.9062482714653015,0.9999587535858154,0.40159717202186584,0.21037498116493225,-0.9063591361045837,0.9999586343765259,0.3813455104827881,0.2108003795146942,-0.9065136313438416,0.9999526739120483,0.45107656717300415,0.2149391770362854,-0.48020318150520325,0.9999536275863647,0.3255952000617981,0.2211175262928009,-0.6759240627288818,0.9999667406082153,0.4520414173603058,0.2560748755931854,-0.7892244458198547,0.9999865293502808,0.41958948969841003,0.25894248485565186,-0.8448331952095032,0.9999901056289673,0.5297369956970215,0.3455289900302887,-0.22224411368370056,0.999913215637207,0.1742626428604126,0.3704959452152252,-0.5388575196266174,0.999708354473114,0.5836747884750366,0.5073867440223694,0.05508638545870781,0.9764478802680969,0.14921288192272186,0.5317667722702026,-0.7682967185974121,0.9737429022789001,0.6439163684844971,0.6364133358001709,-0.19752754271030426,0.9752198457717896,0.2458260953426361,0.5534992218017578,-1.327063798904419,0.9539727568626404,0.6626982092857361,0.6791777610778809,-0.28033050894737244,0.9566456079483032,0.29022958874702454,0.5639746189117432,-1.4614602327346802,0.9387924671173096,0.6465635299682617,0.6775518655776978,-0.37198469042778015,0.9606732130050659,0.29268908500671387,0.5302782654762268,-1.5179084539413452,0.9411254525184631,0.6360632181167603,0.6679558157920837,-0.23776957392692566,0.9610870480537415,0.28105035424232483,0.524586021900177,-1.358359456062317,0.9255754947662354,0.4938293397426605,0.6353597640991211,0.10513240844011307,0.9983906745910645,0.31964462995529175,0.6561206579208374,-0.10463941097259521,0.9984874725341797,0.48819980025291443,0.8369719982147217,0.2546468675136566,0.9615270495414734,0.3443409204483032,0.8690236806869507,0.05643358826637268,0.9660588502883911,0.49101200699806213,0.9622255563735962,1.1410328149795532,0.8857085704803467,0.3632369935512543,0.9881389737129211,0.7796115279197693,0.8852431774139404,0.4718819260597229,0.9713429808616638,1.2094063758850098,0.8157628774642944,0.36824777722358704,1.0165221691131592,0.8369870185852051,0.6513223052024841,0.5470043420791626,1.0217844247817993,0.8993540406227112,0.8308917880058289,0.40653103590011597,1.086799144744873,0.4284946620464325,0.7617754936218262
18623.34743514281,0.441928505897522,0.23539021611213684,-0.979385495185852,0.9999816417694092,0.44825392961502075,0.21102222800254822,-0.9147753715515137,0.9999661445617676,0.4566366374492645,0.21000534296035767,-0.9148691892623901,0.9999608993530273,0.46410825848579407,0.20937219262123108,-0.914848804473877,0.9999523162841797,0.41661232709884644,0.21238857507705688,-0.9500617980957031,0.9999710321426392,0.3986152410507202,0.2124391794204712,-0.9501586556434631,0.9999707937240601,0.3788907527923584,0.2131308913230896,-0.9503058195114136,0.9999673366546631,0.4544641077518463,0.21602413058280945,-0.5296926498413086,0.9999629259109497,0.3266563415527344,0.22331246733665466,-0.6974946856498718,0.999977707862854,0.4495542347431183,0.25823310017585754,-0.8344855904579163,0.9999904632568359,0.41532018780708313,0.26060423254966736,-0.8818287253379822,0.9999936819076538,0.5322323441505432,0.3469565808773041,-0.2520129382610321,0.9999262094497681,0.171079620718956,0.3701663613319397,-0.5487062335014343,0.9998012185096741,0.5847892165184021,0.509510338306427,0.04935154691338539,0.9783990979194641,0.14120498299598694,0.5323060750961304,-0.7791058421134949,0.9817724227905273,0.6428574323654175,0.6355746984481812,-0.18925362825393677,0.9805331230163574,0.24888962507247925,0.553586483001709,-1.355785608291626,0.9671448469161987,0.6620434522628784,0.677574634552002,-0.27171069383621216,0.966128945350647,0.3002389371395111,0.5655442476272583,-1.492196798324585,0.9542592763900757,0.646665632724762,0.6763096451759338,-0.3640901744365692,0.9691363573074341,0.29803672432899475,0.5345541834831238,-1.5476628541946411,0.9559881687164307,0.636701762676239,0.666759729385376,-0.2287478893995285,0.9690563082695007,0.2870084345340729,0.5278254151344299,-1.3862704038619995,0.9439684748649597,0.4921085834503174,0.637808620929718,0.09851545095443726,0.9989902377128601,0.3202717900276184,0.6589065790176392,-0.09799209237098694,0.999049723148346,0.4877614974975586,0.8362504243850708,0.236977219581604,0.9667465686798096,0.34199386835098267,0.8676236867904663,0.09696157276630402,0.970207929611206,0.4870806634426117,0.9581557512283325,1.143276572227478,0.9020493626594543,0.3534396290779114,0.9812016487121582,0.8607217669487,0.8990263342857361,0.46519339084625244,0.9675332307815552,1.2146906852722168,0.8516334295272827,0.351681649684906,0.9793393611907959,0.9237886667251587,0.6954846382141113,0.5474750399589539,1.0326151847839355,0.9100348949432373,0.8498913049697876,0.39041411876678467,1.0794322490692139,0.5255944132804871,0.777675211429596
18640.014101809476,0.44246792793273926,0.23492193222045898,-0.9746574759483337,0.99997878074646,0.44840627908706665,0.21048381924629211,-0.9117419719696045,0.9999594688415527,0.4567906856536865,0.209486722946167,-0.9118417501449585,0.9999527931213379,0.46418821811676025,0.20879694819450378,-0.9118272066116333,0.9999433755874634,0.4166715741157532,0.21186918020248413,-0.9473929405212402,0.9999654293060303,0.39843693375587463,0.21190574765205383,-0.9475076794624329,0.999964714050293,0.378601998090744,0.21263089776039124,-0.9476575255393982,0.999961256980896,0.45419177412986755,0.2153664231300354,-0.5355185866355896,0.999954104423523,0.3261689245700836,0.2228192389011383,-0.7044036388397217,0.9999724626541138,0.4500708281993866,0.2577091455459595,-0.8328004479408264,0.9999890327453613,0.41572219133377075,0.2602500319480896,-0.8805056214332581,0.9999927282333374,0.5320912599563599,0.34619268774986267,-0.26633602380752563,0.9999192953109741,0.1704871952533722,0.37014803290367126,-0.5581215620040894,0.9997962117195129,0.5836657285690308,0.5089887976646423,0.017865728586912155,0.9774826169013977,0.1413813680410385,0.5322768092155457,-0.7719456553459167,0.981220006942749,0.6425665020942688,0.6355249285697937,-0.23160676658153534,0.9778899550437927,0.25304314494132996,0.5548244714736938,-1.3217979669570923,0.9658331871032715,0.6619411110877991,0.6781834959983826,-0.3162778615951538,0.9620088934898376,0.30517762899398804,0.5665795803070068,-1.4542933702468872,0.9528740048408508,0.6470547914505005,0.6766846179962158,-0.40759044885635376,0.9654406905174255,0.3058388829231262,0.5359573364257812,-1.5103784799575806,0.9546763300895691,0.6369819641113281,0.6669390201568604,-0.2714068591594696,0.9659273028373718,0.29108938574790955,0.5285353064537048,-1.3520317077636719,0.942707359790802,0.49231046438217163,0.6365118622779846,0.09597750008106232,0.9988173842430115,0.31912899017333984,0.6580671072006226,-0.09547843784093857,0.9988771080970764,0.4882424473762512,0.8365508317947388,0.22032558917999268,0.964011013507843,0.34481799602508545,0.8676654100418091,0.0894509106874466,0.9693484902381897,0.48796021938323975,0.9631178379058838,1.0990684032440186,0.8971090912818909,0.3557417094707489,0.9815342426300049,0.8382238149642944,0.8965777158737183,0.4667459726333618,0.9720575213432312,1.1673964262008667,0.8393793106079102,0.3532194495201111,0.9804993867874146,0.8994234204292297,0.6873055100440979,0.5400681495666504,1.0216808319091797,0.863073468208313,0.8464838862419128,0.39320290088653564,1.0803124904632568,0.5051354169845581,0.7787815928459167
18656.680768476144,0.4449878931045532,0.23404818773269653,-0.9802985191345215,0.999980092048645,0.44892096519470215,0.20951098203659058,-0.9161704182624817,0.9999622106552124,0.4571509063243866,0.20860055088996887,-0.916267991065979,0.9999568462371826,0.46447107195854187,0.2076950967311859,-0.9162490367889404,0.9999476671218872,0.41789907217025757,0.2107180655002594,-0.9540011882781982,0.9999680519104004,0.39974597096443176,0.21064221858978271,-0.9541059732437134,0.9999678134918213,0.38004058599472046,0.21125686168670654,-0.9542572498321533,0.9999638795852661,0.4535520374774933,0.21383467316627502,-0.5365386605262756,0.9999587535858154,0.32644176483154297,0.221217542886734,-0.7151568531990051,0.9999749660491943,0.4519959092140198,0.25666922330856323,-0.8374454379081726,0.9999891519546509,0.4184461236000061,0.2592523992061615,-0.8880488872528076,0.9999926090240479,0.5320339202880859,0.34555965662002563,-0.2631451487541199,0.9999165534973145,0.17293329536914825,0.3696686029434204,-0.5707706212997437,0.9997878670692444,0.584425151348114,0.5074148774147034,0.03220849484205246,0.9753041863441467,0.1454181969165802,0.5303574204444885,-0.7968177795410156,0.9804704189300537,0.6430103778839111,0.6361764669418335,-0.20340567827224731,0.9754822850227356,0.25388991832733154,0.5543897151947021,-1.3559335470199585,0.9642247557640076,0.6623008251190186,0.6787812113761902,-0.2828686535358429,0.9579475522041321,0.3048727512359619,0.5654928088188171,-1.4898663759231567,0.9506668448448181,0.6478083729743958,0.6772693395614624,-0.3752811849117279,0.9618126749992371,0.29925674200057983,0.5328812003135681,-1.5457221269607544,0.9525771737098694,0.6377211809158325,0.6673696041107178,-0.2434101402759552,0.9625701308250427,0.29000648856163025,0.5264124870300293,-1.3865591287612915,0.9398625493049622,0.49435004591941833,0.635094404220581,0.0989786684513092,0.9988216757774353,0.31998398900032043,0.6567226052284241,-0.09847351908683777,0.9988947510719299,0.48747435212135315,0.8378607630729675,0.23555275797843933,0.9681581258773804,0.34551432728767395,0.8667031526565552,0.08542437851428986,0.9718876481056213,0.48928380012512207,0.9644834399223328,1.1086041927337646,0.909604549407959,0.3598768413066864,0.9829385280609131,0.8271170258522034,0.9051094651222229,0.4698447585105896,0.9740904569625854,1.1756688356399536,0.8492417335510254,0.3642828166484833,1.0088905096054077,0.8869509696960449,0.6943148970603943,0.5435922741889954,1.020332932472229,0.8637290596961975,0.8600760102272034,0.3969383239746094,1.0809485912322998,0.485629677772522,0.7918083667755127
