0,1
15396.405601861046,-10506.0
15396.405664358259,-15026.0
15396.405726855472,-19828.0
15396.405789352684,-23652.0
15396.405851849897,-25874.0
15396.40591434711,-26813.0
15396.405976844322,-28001.0
15396.406039341535,-31129.0
15396.406101838747,-32768.0
15396.406164335958,-32755.0
15396.40622683317,-32703.0
15396.406289330384,-32768.0
15396.406351827596,-32768.0
15396.406414324809,-32469.0
15396.406476822021,-32768.0
15396.406539319234,-22449.0
15396.406601816447,2001.0
15396.40666431366,21146.0
15396.406726810872,30475.0
15396.406789308083,31853.0
15396.406851805295,27062.0
15396.406914302508,18032.0
15396.40697679972,9600.0
15396.407039296933,3380.0
15396.407101794146,-1349.0
15396.407164291359,-3844.0
15396.407226788571,-3049.0
15396.407289285784,-1205.0
15396.407351782997,-1060.0
15396.40741428021,-3138.0
15396.407476777422,-6045.0
15396.407539274633,-8395.0
15396.407601771845,-8109.0
15396.407664269058,-3922.0
15396.40772676627,3658.0
15396.407789263483,12037.0
15396.407851760696,18487.0
15396.407914257908,21713.0
15396.407976755121,22088.0
15396.408039252334,19363.0
15396.408101749545,13884.0
15396.408164246757,7828.0
15396.40822674397,3017.0
15396.408289241183,47.0
15396.408351738395,-251.0
15396.408414235608,2666.0
15396.40847673282,7118.0
15396.408539230033,10501.0
15396.408601727246,11950.0
15396.408664224458,12491.0
15396.408726721671,12599.0
15396.408789218884,13114.0
15396.408851716096,14722.0
15396.408914213307,17450.0
15396.40897671052,19914.0
15396.409039207732,20720.0
15396.409101704945,20766.0
15396.409164202158,20230.0
15396.40922669937,18492.0
15396.409289196583,14588.0
15396.409351693796,10350.0
15396.409414191008,7074.0
15396.409476688219,5248.0
15396.409539185432,4981.0
15396.409601682644,6308.0
15396.409664179857,8146.0
15396.40972667707,8885.0
15396.409789174282,8162.0
15396.409851671495,6921.0
15396.409914168707,5747.0
15396.40997666592,4398.0
15396.410039163133,2743.0
15396.410101660345,979.0
15396.410164157558,-716.0
15396.41022665477,-3119.0
15396.410289151981,-6014.0
15396.410351649194,-9184.0
15396.410414146407,-12991.0
15396.41047664362,-17903.0
15396.410539140832,-22784.0
15396.410601638045,-26071.0
15396.410664135257,-27793.0
15396.41072663247,-28677.0
15396.410789129683,-30967.0
15396.410851626893,-32768.0
15396.410914124106,-32768.0
15396.410976621319,-32747.0
15396.411039118531,-32715.0
15396.411101615744,-32768.0
15396.411164112957,-32295.0
15396.41122661017,-32768.0
15396.411289107382,-27911.0
15396.411351604595,-5197.0
15396.411414101807,16000.0
15396.41147659902,27282.0
15396.411539096232,31192.0
15396.411601593443,29109.0
15396.411664090656,22695.0
15396.411726587869,14415.0
15396.411789085081,6779.0
15396.411851582294,358.0
15396.411914079506,-3970.0
15396.41197657672,-4740.0
15396.412039073932,-3009.0
15396.412101571144,-1996.0
15396.412164068357,-2844.0
15396.412226565568,-5680.0
15396.41228906278,-8514.0
15396.412351559993,-8600.0
15396.412414057206,-4803.0
15396.412476554418,1857.0
15396.412539051631,9647.0
15396.412601548844,16379.0
15396.412664046056,20090.0
15396.412726543269,21087.0
15396.412789040482,19567.0
15396.412851537694,15605.0
15396.412914034907,9754.0
15396.412976532118,4235.0
15396.41303902933,319.0
15396.413101526543,-765.0
15396.413164023756,1647.0
15396.413226520968,6104.0
15396.41328901818,10143.0
15396.413351515394,12126.0
15396.413414012606,12101.0
15396.413476509819,11366.0
15396.413539007031,12366.0
15396.413601504242,14999.0
15396.413664001455,18224.0
15396.413726498668,20614.0
15396.41378899588,22147.0
15396.413851493093,21884.0
15396.413913990305,19934.0
15396.413976487518,17110.0
15396.41403898473,13582.0
15396.414101481943,9672.0
15396.414163979156,6260.0
15396.414226476369,4643.0
15396.414288973581,4855.0
15396.414351470792,6564.0
15396.414413968005,8315.0
15396.414476465217,9083.0
15396.41453896243,8534.0
15396.414601459643,7103.0
15396.414663956855,5195.0
15396.414726454068,3871.0
15396.41478895128,3071.0
15396.414851448493,1980.0
15396.414913945706,125.0
15396.414976442917,-2495.0
15396.41503894013,-5911.0
15396.415101437342,-10053.0
15396.415163934555,-14302.0
15396.415226431767,-18720.0
15396.41528892898,-22307.0
15396.415351426193,-24439.0
15396.415413923405,-25557.0
15396.415476420618,-26639.0
15396.41553891783,-29341.0
15396.415601415043,-32275.0
15396.415663912256,-32768.0
15396.415726409467,-32731.0
15396.41578890668,-32678.0
15396.415851403892,-32768.0
15396.415913901104,-32336.0
15396.415976398317,-32768.0
15396.41603889553,-30731.0
15396.416101392742,-10498.0
15396.416163889955,11572.0
15396.416226387168,24482.0
15396.41628888438,29589.0
15396.416351381591,28471.0
15396.416413878804,24068.0
15396.416476376016,17793.0
15396.416538873229,10216.0
15396.416601370442,2597.0
15396.416663867654,-2921.0
15396.416726364867,-4953.0
15396.41678886208,-3716.0
15396.416851359292,-2100.0
15396.416913856505,-1947.0
15396.416976353717,-4509.0
15396.41703885093,-7450.0
15396.417101348141,-8563.0
15396.417163845354,-5418.0
15396.417226342566,962.0
15396.417288839779,8446.0
15396.417351336991,14668.0
15396.417413834204,18301.0
15396.417476331417,19623.0
15396.41753882863,18558.0
15396.417601325842,15646.0
15396.417663823055,11213.0
15396.417726320266,5970.0
15396.417788817478,1451.0
15396.41785131469,-654.0
15396.417913811903,697.0
15396.417976309116,4529.0
15396.418038806329,9066.0
15396.418101303541,12334.0
15396.418163800754,13645.0
15396.418226297967,13002.0
15396.41828879518,11725.0
15396.418351292392,11943.0
15396.418413789605,14645.0
15396.418476286815,17919.0
15396.418538784028,20537.0
15396.41860128124,22149.0
15396.418663778453,22283.0
15396.418726275666,19790.0
15396.418788772879,15988.0
15396.418851270091,12066.0
15396.418913767304,8368.0
15396.418976264516,5512.0
15396.419038761727,4553.0
15396.41910125894,5494.0
15396.419163756153,7283.0
15396.419226253365,8792.0
15396.419288750578,8933.0
15396.41935124779,7704.0
15396.419413745003,5818.0
15396.419476242216,3680.0
15396.419538739428,2194.0
15396.419601236641,1651.0
15396.419663733854,1239.0
15396.419726231066,-213.0
15396.419788728279,-2728.0
15396.41985122549,-6104.0
15396.419913722702,-10558.0
15396.419976219915,-15611.0
15396.420038717128,-20287.0
15396.42010121434,-23814.0
15396.420163711553,-25693.0
15396.420226208766,-26664.0
15396.420288705978,-27664.0
15396.42035120319,-30300.0
15396.420413700402,-32698.0
15396.420476197614,-32768.0
15396.420538694827,-32709.0
15396.42060119204,-32745.0
15396.420663689252,-32768.0
15396.420726186465,-32306.0
15396.420788683678,-32768.0
15396.42085118089,-26447.0
15396.420913678103,-838.0
15396.420976175315,22831.0
15396.421038672528,31230.0
15396.42110116974,31448.0
15396.421163666953,31187.0
15396.421226164164,23023.0
15396.421288661377,10039.0
15396.42135115859,-439.0
15396.421413655802,-7619.0
15396.421476153015,-10509.0
15396.421538650227,-8497.0
15396.42160114744,-4112.0
15396.421663644653,-1262.0
15396.421726141865,-1043.0
15396.421788639076,-3445.0
15396.421851136289,-6738.0
15396.421913633501,-8278.0
15396.421976130714,-5380.0
15396.422038627927,722.0
15396.42210112514,8562.0
15396.422163622352,16040.0
15396.422226119565,21278.0
15396.422288616777,23050.0
15396.42235111399,21301.0
15396.422413611203,16204.0
15396.422476108415,8937.0
15396.422538605626,2191.0
15396.422601102839,-2279.0
15396.422663600051,-3195.0
15396.422726097264,-239.0
15396.422788594477,5054.0
15396.42285109169,9973.0
15396.422913588902,13388.0
15396.422976086114,15278.0
15396.423038583327,15514.0
15396.42310108054,15555.0
15396.42316357775,16212.0
15396.423226074963,17532.0
15396.423288572176,18950.0
15396.423351069388,20364.0
15396.423413566601,20642.0
15396.423476063814,19520.0
15396.423538561026,17682.0
15396.423601058239,14839.0
15396.423663555452,11187.0
15396.423726052664,7909.0
15396.423788549877,5839.0
15396.42385104709,5089.0
15396.4239135443,5679.0
15396.423976041513,7112.0
15396.424038538726,8183.0
15396.424101035938,8191.0
15396.424163533151,7525.0
15396.424226030364,5987.0
15396.424288527576,4467.0
15396.424351024789,3108.0
15396.424413522001,1600.0
15396.424476019214,-164.0
15396.424538516425,-2235.0
15396.424601013638,-5018.0
15396.42466351085,-8821.0
15396.424726008063,-12971.0
15396.424788505276,-17279.0
15396.424851002488,-20938.0
15396.4249134997,-23345.0
15396.424975996913,-24732.0
15396.425038494126,-25964.0
15396.425100991339,-28066.0
15396.425163488551,-31415.0
15396.425225985764,-32768.0
15396.425288482975,-32738.0
15396.425350980187,-32679.0
15396.4254134774,-32768.0
15396.425475974613,-32602.0
15396.425538471825,-32768.0
15396.425600969038,-32575.0
15396.42566346625,-15610.0
15396.425725963463,12935.0
15396.425788460676,29228.0
15396.425850957889,31640.0
15396.4259134551,30862.0
15396.425975952312,24603.0
15396.426038449525,13028.0
15396.426100946737,2975.0
15396.42616344395,-5224.0
15396.426225941163,-9411.0
15396.426288438375,-9537.0
15396.426350935588,-6040.0
15396.4264134328,-1563.0
15396.426475930013,784.0
15396.426538427226,-602.0
15396.426600924438,-4718.0
15396.42666342165,-8236.0
15396.426725918862,-8165.0
15396.426788416074,-2940.0
15396.426850913287,5097.0
15396.4269134105,13566.0
15396.426975907712,19844.0
15396.427038404925,22642.0
15396.427100902138,21609.0
15396.42716339935,17575.0
15396.427225896563,11334.0
15396.427288393774,4181.0
15396.427350890986,-1443.0
15396.427413388199,-3993.0
15396.427475885412,-2477.0
15396.427538382624,2620.0
15396.427600879837,9387.0
15396.42766337705,15263.0
15396.427725874262,18862.0
15396.427788371475,20238.0
15396.427850868688,20068.0
15396.4279133659,18983.0
15396.427975863113,18282.0
15396.428038360324,18129.0
15396.428100857536,18055.0
15396.428163354749,17523.0
15396.428225851962,16666.0
15396.428288349174,15360.0
15396.428350846387,13536.0
15396.4284133436,11108.0
15396.428475840812,8515.0
15396.428538338025,6515.0
15396.428600835237,5533.0
15396.428663332448,5877.0
15396.42872582966,7203.0
15396.428788326873,8761.0
15396.428850824086,9728.0
15396.428913321299,9442.0
15396.428975818511,8110.0
15396.429038315724,6047.0
15396.429100812937,3514.0
15396.42916331015,714.0
15396.429225807362,-2310.0
15396.429288304575,-5460.0
15396.429350801787,-8647.0
15396.429413298998,-11851.0
15396.42947579621,-14727.0
15396.429538293423,-16986.0
15396.429600790636,-18653.0
15396.429663287849,-19818.0
15396.429725785061,-21272.0
15396.429788282274,-23515.0
15396.429850779487,-27655.0
15396.4299132767,-32058.0
15396.42997577391,-32768.0
15396.430038271123,-32696.0
15396.430100768335,-32699.0
15396.430163265548,-32768.0
15396.43022576276,-32384.0
15396.430288259973,-32768.0
15396.430350757186,-30798.0
15396.430413254398,-9208.0
15396.430475751611,15968.0
15396.430538248824,28652.0
15396.430600746036,31402.0
15396.430663243249,27345.0
15396.430725740462,18773.0
15396.430788237672,8957.0
15396.430850734885,604.0
15396.430913232098,-5406.0
15396.43097572931,-8486.0
15396.431038226523,-8229.0
15396.431100723736,-4148.0
15396.431163220948,73.0
15396.431225718161,1652.0
15396.431288215374,-468.0
15396.431350712584,-4392.0
15396.431413209797,-6969.0
15396.43147570701,-5293.0
15396.431538204222,665.0
15396.431600701435,8612.0
15396.431663198648,15768.0
15396.43172569586,20012.0
15396.431788193073,20562.0
15396.431850690286,18468.0
15396.431913187498,14260.0
15396.43197568471,8548.0
15396.432038181923,2520.0
15396.432100679136,-1797.0
15396.432163176347,-3112.0
15396.43222567356,-716.0
15396.432288170772,4521.0
15396.432350667985,10207.0
15396.432413165197,14042.0
15396.43247566241,15693.0
15396.432538159623,15916.0
15396.432600656835,15390.0
15396.432663154048,15246.0
15396.432725651259,17339.0
15396.432788148471,21263.0
15396.432850645684,24614.0
15396.432913142897,24838.0
15396.43297564011,22536.0
15396.433038137322,18184.0
15396.433100634535,13043.0
15396.433163131747,8478.0
15396.43322562896,5866.0
15396.433288126173,4922.0
15396.433350623385,5292.0
15396.433413120598,6560.0
15396.43347561781,8386.0
15396.433538115021,9782.0
15396.433600612234,9798.0
15396.433663109447,7884.0
15396.43372560666,5095.0
15396.433788103872,2601.0
15396.433850601084,989.0
15396.433913098297,591.0
15396.43397559551,520.0
15396.434038092722,-753.0
15396.434100589933,-4501.0
15396.434163087146,-9462.0
15396.434225584359,-13961.0
15396.434288081571,-17129.0
15396.434350578784,-19094.0
15396.434413075996,-20555.0
15396.434475573209,-22078.0
15396.434538070422,-24710.0
15396.434600567634,-28602.0
15396.434663064847,-32253.0
15396.43472556206,-32768.0
15396.434788059272,-32704.0
15396.434850556483,-32711.0
15396.434913053696,-32768.0
15396.434975550908,-32438.0
15396.435038048121,-32768.0
15396.435100545334,-30813.0
15396.435163042546,-10507.0
15396.435225539759,16532.0
15396.435288036972,30166.0
15396.435350534184,31476.0
15396.435413031397,30837.0
15396.435475528608,24873.0
15396.43553802582,13382.0
15396.435600523033,2998.0
15396.435663020246,-6163.0
15396.435725517458,-11155.0
15396.43578801467,-10593.0
15396.435850511883,-6850.0
15396.435913009096,-2823.0
15396.435975506309,-971.0
15396.436038003521,-2077.0
15396.436100500734,-5144.0
15396.436162997947,-7382.0
15396.436225495157,-5688.0
15396.43628799237,623.0
15396.436350489583,8430.0
15396.436412986795,15450.0
15396.436475484008,20369.0
15396.43653798122,22258.0
15396.436600478433,20598.0
15396.436662975646,15999.0
15396.436725472859,9898.0
15396.436787970071,2895.0
15396.436850467282,-2659.0
15396.436912964495,-4939.0
15396.436975461707,-2833.0
15396.43703795892,3248.0
15396.437100456133,10395.0
15396.437162953345,15323.0
15396.437225450558,16528.0
15396.43728794777,15263.0
15396.437350444983,13515.0
15396.437412942196,13026.0
15396.437475439408,14067.0
15396.437537936621,16440.0
15396.437600433832,19310.0
15396.437662931045,21613.0
15396.437725428257,22000.0
15396.43778792547,20404.0
15396.437850422682,17310.0
15396.437912919895,12884.0
15396.437975417108,8291.0
15396.43803791432,5173.0
15396.438100411533,4387.0
15396.438162908746,5415.0
15396.438225405956,7377.0
15396.43828790317,8959.0
15396.438350400382,9252.0
15396.438412897594,7859.0
15396.438475394807,5412.0
15396.43853789202,2802.0
15396.438600389232,1000.0
15396.438662886445,32.0
15396.438725383658,-626.0
15396.43878788087,-1576.0
15396.438850378083,-3597.0
15396.438912875296,-7174.0
15396.438975372506,-11343.0
15396.439037869719,-15001.0
15396.439100366932,-18114.0
15396.439162864144,-20596.0
15396.439225361357,-22389.0
15396.43928785857,-24223.0
15396.439350355782,-27025.0
15396.439412852995,-30757.0
15396.439475350207,-32768.0
15396.43953784742,-32768.0
15396.43960034463,-32697.0
15396.439662841844,-32768.0
15396.439725339056,-32768.0
15396.439787836269,-32367.0
15396.439850333481,-32768.0
15396.439912830694,-23334.0
15396.439975327907,2765.0
15396.44003782512,23429.0
15396.440100322332,30977.0
15396.440162819545,31613.0
15396.440225316757,29168.0
15396.44028781397,20606.0
15396.44035031118,10308.0
15396.440412808393,722.0
15396.440475305606,-6629.0
15396.440537802819,-10005.0
15396.440600300031,-8368.0
15396.440662797244,-4262.0
15396.440725294457,-1309.0
15396.44078779167,-1428.0
15396.440850288882,-4093.0
15396.440912786093,-7263.0
15396.440975283305,-7758.0
15396.441037780518,-3787.0
15396.44110027773,3503.0
15396.441162774943,11186.0
15396.441225272156,17323.0
15396.441287769369,20389.0
15396.441350266581,20569.0
15396.441412763794,17932.0
15396.441475261006,12870.0
15396.441537758219,6498.0
15396.441600255432,510.0
15396.441662752644,-3079.0
15396.441725249855,-3086.0
15396.441787747068,1017.0
15396.44185024428,7798.0
15396.441912741493,13816.0
15396.441975238706,16558.0
15396.442037735918,15660.0
15396.442100233131,13235.0
15396.442162730344,11998.0
15396.442225227556,13176.0
15396.442287724767,15568.0
15396.44235022198,18110.0
15396.442412719192,20367.0
15396.442475216405,21298.0
15396.442537713618,20089.0
15396.44260021083,17664.0
15396.442662708043,14386.0
15396.442725205256,10195.0
15396.442787702468,6162.0
15396.44285019968,4224.0
15396.442912696893,4695.0
15396.442975194106,6797.0
15396.443037691319,9051.0
15396.44310018853,10026.0
15396.443162685742,9200.0
15396.443225182955,7097.0
15396.443287680167,4429.0
15396.44335017738,2408.0
15396.443412674593,1305.0
15396.443475171805,300.0
15396.443537669018,-1320.0
15396.44360016623,-3508.0
15396.443662663442,-6441.0
15396.443725160654,-10173.0
15396.443787657867,-14006.0
15396.44385015508,-17311.0
15396.443912652292,-20122.0
15396.443975149505,-22143.0
15396.444037646717,-23457.0
15396.44410014393,-24805.0
15396.444162641143,-27091.0
15396.444225138355,-30838.0
15396.444287635568,-32768.0
15396.44435013278,-32758.0
15396.444412629993,-32655.0
15396.444475127204,-32768.0
15396.444537624417,-32437.0
15396.44460012163,-32768.0
15396.444662618842,-31381.0
15396.444725116055,-12484.0
15396.444787613267,12280.0
15396.44485011048,27230.0
15396.444912607692,31588.0
15396.444975104905,31109.0
15396.445037602116,25649.0
15396.445100099329,14906.0
15396.445162596541,4658.0
15396.445225093754,-4185.0
15396.445287590966,-9335.0
15396.44535008818,-9352.0
15396.445412585392,-5830.0
15396.445475082604,-2534.0
15396.445537579817,-1381.0
15396.44560007703,-2814.0
15396.445662574242,-5585.0
15396.445725071455,-7552.0
15396.445787568666,-5923.0
15396.445850065878,-437.0
15396.445912563091,6818.0
15396.445975060304,13552.0
15396.446037557516,18330.0
15396.446100054729,20374.0
15396.446162551942,19312.0
15396.446225049154,15193.0
15396.446287546367,9034.0
15396.44635004358,2383.0
15396.44641254079,-2773.0
15396.446475038003,-4718.0
15396.446537535216,-2466.0
15396.446600032428,2908.0
15396.44666252964,8928.0
15396.446725026854,13325.0
15396.446787524066,15717.0
15396.446850021279,16075.0
15396.446912518491,14924.0
15396.446975015704,14549.0
15396.447037512917,15776.0
15396.44710001013,17453.0
15396.44716250734,18494.0
15396.447225004553,19656.0
15396.447287501765,20193.0
15396.447349998978,18634.0
15396.44741249619,15280.0
15396.447474993403,11255.0
15396.447537490616,7583.0
15396.447599987829,5053.0
15396.447662485041,4649.0
15396.447724982254,5958.0
15396.447787479465,8033.0
15396.447849976677,9536.0
15396.44791247389,9587.0
15396.447974971103,8436.0
15396.448037468315,6743.0
15396.448099965528,4359.0
15396.44816246274,2081.0
15396.448224959953,536.0
15396.448287457166,-508.0
15396.448349954379,-1952.0
15396.448412451591,-3838.0
15396.448474948804,-6654.0
15396.448537446015,-10676.0
15396.448599943227,-14926.0
15396.44866244044,-18405.0
15396.448724937653,-20656.0
15396.448787434865,-21848.0
15396.448849932078,-22859.0
15396.44891242929,-24399.0
15396.448974926503,-27720.0
15396.449037423716,-31740.0
15396.449099920928,-32768.0
15396.44916241814,-32684.0
15396.449224915352,-32722.0
15396.449287412564,-32768.0
15396.449349909777,-32328.0
15396.44941240699,-32768.0
15396.449474904202,-28349.0
15396.449537401415,-4985.0
15396.449599898628,18960.0
15396.44966239584,29785.0
15396.449724893053,31592.0
15396.449787390266,29863.0
15396.449849887478,21313.0
15396.449912384689,10140.0
15396.449974881902,931.0
15396.450037379114,-6141.0
15396.450099876327,-9285.0
15396.45016237354,-8400.0
15396.450224870752,-4636.0
15396.450287367965,-1847.0
15396.450349865177,-1236.0
15396.45041236239,-3387.0
15396.450474859603,-6464.0
15396.450537356814,-8245.0
15396.450599854026,-5732.0
15396.450662351239,369.0
15396.450724848452,7960.0
15396.450787345664,14976.0
15396.450849842877,19514.0
15396.45091234009,20439.0
15396.450974837302,18107.0
15396.451037334515,13192.0
15396.451099831727,6663.0
15396.45116232894,646.0
15396.451224826153,-3178.0
15396.451287323363,-3811.0
15396.451349820576,-543.0
15396.451412317789,5241.0
15396.451474815001,11302.0
15396.451537312214,15647.0
15396.451599809427,17702.0
15396.45166230664,17282.0
15396.451724803852,15690.0
15396.451787301065,14134.0
15396.451849798275,13320.0
15396.451912295488,13235.0
15396.4519747927,14248.0
15396.452037289913,15534.0
15396.452099787126,16521.0
15396.452162284339,16688.0
15396.452224781551,15288.0
15396.452287278764,12137.0
15396.452349775976,8842.0
15396.45241227319,6563.0
15396.452474770402,5693.0
15396.452537267614,6366.0
15396.452599764827,7824.0
15396.452662262038,9011.0
15396.45272475925,9058.0
15396.452787256463,7933.0
15396.452849753676,5942.0
15396.452912250888,3531.0
15396.452974748101,1246.0
15396.453037245314,-604.0
15396.453099742526,-1878.0
15396.453162239739,-2863.0
15396.45322473695,-4250.0
15396.453287234162,-6762.0
15396.453349731375,-10409.0
15396.453412228588,-14563.0
15396.4534747258,-18178.0
15396.453537223013,-20412.0
15396.453599720226,-21276.0
15396.453662217438,-21949.0
15396.45372471465,-23466.0
15396.453787211864,-27063.0
15396.453849709076,-31724.0
15396.453912206289,-32768.0
15396.453974703501,-32655.0
15396.454037200712,-32740.0
15396.454099697925,-32768.0
15396.454162195138,-32301.0
15396.45422469235,-32768.0
15396.454287189563,-27821.0
15396.454349686775,-3128.0
15396.454412183988,20693.0
15396.4544746812,30209.0
15396.454537178413,31487.0
15396.454599675624,27492.0
15396.454662172837,17016.0
15396.45472467005,6576.0
15396.454787167262,-1416.0
15396.454849664475,-7131.0
15396.454912161687,-9631.0
15396.4549746589,-7562.0
15396.455037156113,-2563.0
15396.455099653325,980.0
15396.455162150538,1232.0
15396.45522464775,-1598.0
15396.455287144963,-5859.0
15396.455349642176,-8311.0
15396.455412139387,-5964.0
15396.4554746366,404.0
15396.455537133812,8300.0
15396.455599631025,14995.0
15396.455662128237,18854.0
15396.45572462545,19202.0
15396.455787122663,16737.0
15396.455849619875,11738.0
15396.455912117088,5505.0
15396.455974614299,-24.0
15396.456037111511,-3246.0
15396.456099608724,-3207.0
15396.456162105937,1042.0
15396.45622460315,7972.0
15396.456287100362,13905.0
15396.456349597574,16695.0
15396.456412094787,16384.0
15396.456474592,13866.0
15396.456537089212,10767.0
15396.456599586425,8883.0
15396.456662083638,9861.0
15396.456724580848,13400.0
15396.456787078061,17792.0
15396.456849575274,21049.0
15396.456912072486,22019.0
15396.456974569699,20367.0
15396.457037066912,15939.0
15396.457099564124,10713.0
15396.457162061337,6589.0
15396.45722455855,4624.0
15396.457287055762,4670.0
15396.457349552973,6541.0
15396.457412050186,8982.0
15396.457474547398,10522.0
15396.457537044611,10190.0
15396.457599541824,8059.0
15396.457662039036,4947.0
15396.457724536249,1943.0
15396.457787033461,-270.0
15396.457849530674,-917.0
15396.457912027887,-249.0
15396.4579745251,204.0
15396.458037022312,-883.0
15396.458099519523,-4293.0
15396.458162016736,-9491.0
15396.458224513948,-15515.0
15396.45828701116,-20343.0
15396.458349508373,-22915.0
15396.458412005586,-23063.0
15396.458474502799,-22743.0
15396.458537000011,-23584.0
15396.458599497224,-26661.0
15396.458661994437,-31243.0
15396.458724491647,-32768.0
15396.45878698886,-32665.0
15396.458849486073,-32754.0
15396.458911983285,-32768.0
15396.458974480498,-32339.0
15396.45903697771,-32768.0
15396.459099474923,-26369.0
15396.459161972136,-1307.0
15396.459224469349,21488.0
15396.459286966561,30584.0
15396.459349463774,31135.0
15396.459411960986,26064.0
15396.459474458197,16328.0
15396.45953695541,6204.0
15396.459599452623,-1574.0
15396.459661949835,-7209.0
15396.459724447048,-8910.0
15396.45978694426,-6834.0
15396.459849441473,-2491.0
15396.459911938686,195.0
15396.459974435898,163.0
15396.460036933111,-3095.0
15396.460099430322,-7000.0
15396.460161927535,-8618.0
15396.460224424747,-5362.0
15396.46028692196,1426.0
15396.460349419172,9306.0
15396.460411916385,15861.0
15396.460474413598,19284.0
15396.46053691081,19327.0
15396.460599408023,16361.0
15396.460661905236,11222.0
15396.460724402448,5113.0
15396.46078689966,-246.0
15396.460849396872,-3137.0
15396.460911894084,-2640.0
15396.460974391297,1561.0
15396.46103688851,7618.0
15396.461099385722,13183.0
15396.461161882935,16474.0
15396.461224380148,17160.0
15396.46128687736,15649.0
15396.461349374573,13495.0
15396.461411871785,11930.0
15396.461474368996,11508.0
15396.461536866209,12084.0
15396.461599363422,13360.0
15396.461661860634,14874.0
15396.461724357847,16024.0
15396.46178685506,15974.0
15396.461849352272,14337.0
15396.461911849485,11318.0
15396.461974346697,8318.0
15396.46203684391,6239.0
15396.462099341123,5765.0
15396.462161838335,6723.0
15396.462224335546,8116.0
15396.462286832759,8814.0
15396.462349329971,8265.0
15396.462411827184,6747.0
15396.462474324397,4713.0
15396.46253682161,2598.0
15396.462599318822,800.0
15396.462661816035,-457.0
15396.462724313247,-1171.0
15396.46278681046,-1802.0
15396.46284930767,-2865.0
15396.462911804883,-5071.0
15396.462974302096,-8971.0
15396.463036799309,-14128.0
15396.463099296521,-18941.0
15396.463161793734,-21774.0
15396.463224290947,-22374.0
15396.46328678816,-22188.0
15396.463349285372,-22680.0
15396.463411782584,-25075.0
15396.463474279797,-29828.0
15396.46353677701,-32768.0
15396.46359927422,-32756.0
15396.463661771433,-32665.0
15396.463724268646,-32768.0
15396.463786765858,-32343.0
15396.463849263071,-32768.0
15396.463911760284,-29081.0
15396.463974257496,-7736.0
15396.464036754709,14030.0
15396.464099251922,25758.0
15396.464161749132,28626.0
15396.464224246345,23394.0
15396.464286743558,15083.0
15396.46434924077,6565.0
15396.464411737983,-478.0
15396.464474235196,-5537.0
15396.464536732408,-7056.0
15396.464599229621,-5353.0
15396.464661726834,-1379.0
15396.464724224046,1809.0
15396.464786721259,2539.0
15396.464849218471,-392.0
15396.464911715684,-4673.0
15396.464974212895,-7213.0
15396.465036710108,-5327.0
15396.46509920732,317.0
15396.465161704533,7615.0
15396.465224201746,13793.0
15396.465286698958,17236.0
15396.46534919617,17437.0
15396.465411693383,14889.0
15396.465474190596,10558.0
15396.465536687807,5456.0
15396.46559918502,735.0
15396.465661682232,-2034.0
15396.465724179445,-1396.0
15396.465786676657,2592.0
15396.46584917387,8452.0
15396.465911671083,13541.0
15396.465974168295,16148.0
15396.466036665508,15750.0
15396.46609916272,12986.0
15396.466161659933,9989.0
15396.466224157146,8069.0
15396.466286654359,8092.0
15396.46634915157,10561.0
15396.466411648782,14576.0
15396.466474145995,17998.0
15396.466536643207,19496.0
15396.46659914042,18963.0
15396.466661637633,16289.0
15396.466724134845,12169.0
15396.466786632058,8770.0
15396.46684912927,7285.0
15396.466911626481,7544.0
15396.466974123694,8794.0
15396.467036620907,10130.0
15396.46709911812,10420.0
15396.467161615332,9259.0
15396.467224112544,6748.0
15396.467286609757,3358.0
15396.46734910697,437.0
15396.467411604182,-1286.0
15396.467474101395,-1818.0
15396.467536598608,-1021.0
15396.46759909582,260.0
15396.467661593031,550.0
15396.467724090244,-1432.0
15396.467786587456,-5298.0
15396.467849084669,-10406.0
15396.467911581882,-15871.0
15396.467974079094,-19960.0
15396.468036576307,-21874.0
15396.46809907352,-22100.0
15396.468161570732,-22413.0
15396.468224067945,-23907.0
15396.468286565156,-27527.0
15396.468349062368,-31736.0
15396.468411559581,-32768.0
15396.468474056794,-32614.0
15396.468536554006,-32768.0
15396.468599051219,-32768.0
15396.468661548432,-32450.0
15396.468724045644,-32768.0
15396.468786542857,-21895.0
15396.46884904007,2711.0
15396.468911537282,20603.0
15396.468974034495,29418.0
15396.469036531706,29958.0
15396.469099028918,24749.0
15396.46916152613,16079.0
15396.469224023343,6669.0
15396.469286520556,-1328.0
15396.469349017769,-6305.0
15396.469411514981,-7827.0
15396.469474012194,-5462.0
15396.469536509407,-1919.0
15396.46959900662,-32.0
15396.46966150383,-1253.0
15396.469724001043,-4436.0
15396.469786498255,-7280.0
15396.469848995468,-7129.0
15396.46991149268,-3285.0
15396.469973989893,2920.0
15396.470036487106,9507.0
15396.470098984319,14586.0
15396.470161481531,17141.0
15396.470223978744,17216.0
15396.470286475957,14951.0
15396.47034897317,10654.0
15396.47041147038,5225.0
15396.470473967593,869.0
15396.470536464805,-1203.0
15396.470598962018,-192.0
15396.47066145923,3684.0
15396.470723956443,8764.0
15396.470786453656,12689.0
15396.470848950868,14210.0
15396.470911448081,13684.0
15396.470973945294,11874.0
15396.471036442505,10200.0
15396.471098939717,10434.0
15396.47116143693,12629.0
15396.471223934142,15202.0
15396.471286431355,16544.0
15396.471348928568,16897.0
15396.47141142578,16206.0
15396.471473922993,15113.0
15396.471536420206,13660.0
15396.471598917418,11997.0
15396.471661414631,10078.0
15396.471723911844,8404.0
15396.471786409054,7586.0
15396.471848906267,7653.0
15396.47191140348,8228.0
15396.471973900692,8453.0
15396.472036397905,7238.0
15396.472098895118,5154.0
15396.47216139233,3276.0
15396.472223889543,2108.0
15396.472286386756,1922.0
15396.472348883968,2160.0
15396.472411381179,1913.0
15396.472473878392,624.0
15396.472536375604,-1544.0
15396.472598872817,-4746.0
15396.47266137003,-8627.0
15396.472723867242,-12837.0
15396.472786364455,-17076.0
15396.472848861667,-20669.0
15396.47291135888,-22929.0
15396.472973856093,-23796.0
15396.473036353305,-24481.0
15396.473098850518,-25649.0
15396.473161347729,-29102.0
15396.473223844941,-32522.0
15396.473286342154,-32768.0
15396.473348839367,-32616.0
15396.47341133658,-32768.0
15396.473473833792,-32441.0
15396.473536331005,-32768.0
15396.473598828217,-30922.0
15396.47366132543,-12864.0
15396.473723822643,9321.0
15396.473786319853,22891.0
15396.473848817066,28342.0
15396.473911314279,26222.0
15396.473973811491,19612.0
15396.474036308704,10751.0
15396.474098805917,2476.0
15396.47416130313,-3656.0
15396.474223800342,-6645.0
15396.474286297554,-6089.0
15396.474348794767,-2583.0
15396.47441129198,192.0
15396.474473789192,567.0
15396.474536286403,-1670.0
15396.474598783616,-5185.0
15396.474661280829,-7400.0
15396.474723778041,-5908.0
15396.474786275254,-1345.0
15396.474848772466,4991.0
15396.474911269679,11178.0
15396.474973766892,15719.0
15396.475036264104,17208.0
15396.475098761315,16359.0
15396.475161258528,13083.0
15396.47522375574,8149.0
15396.475286252953,3124.0
15396.475348750166,-162.0
15396.475411247378,-772.0
15396.475473744591,1700.0
15396.475536241804,6246.0
15396.475598739016,10809.0
15396.475661236229,13849.0
15396.475723733442,14461.0
15396.475786230654,12751.0
15396.475848727867,10461.0
15396.475911225078,8548.0
15396.47597372229,8255.0
15396.476036219503,10452.0
15396.476098716716,14120.0
15396.476161213928,16902.0
15396.47622371114,18003.0
15396.476286208353,17890.0
15396.476348705566,16008.0
15396.476411202779,12998.0
15396.47647369999,10151.0
15396.476536197202,8338.0
15396.476598694415,7382.0
15396.476661191627,7768.0
15396.47672368884,8657.0
15396.476786186053,9303.0
15396.476848683265,9177.0
15396.476911180478,7863.0
15396.47697367769,5395.0
15396.477036174903,3183.0
15396.477098672116,1526.0
15396.477161169329,783.0
15396.477223666541,1107.0
15396.477286163752,1760.0
15396.477348660965,1507.0
15396.477411158177,-152.0
15396.47747365539,-3005.0
15396.477536152603,-7248.0
15396.477598649815,-12128.0
15396.477661147028,-16743.0
15396.47772364424,-20636.0
15396.477786141453,-23361.0
15396.477848638664,-24492.0
15396.477911135877,-24739.0
15396.47797363309,-25088.0
15396.478036130302,-26936.0
15396.478098627515,-31199.0
15396.478161124727,-32768.0
15396.47822362194,-32559.0
15396.478286119152,-32768.0
15396.478348616365,-32548.0
15396.478411113578,-32768.0
15396.47847361079,-32129.0
15396.478536108003,-16667.0
15396.478598605214,5564.0
15396.478661102426,20745.0
15396.47872359964,27935.0
15396.478786096852,27467.0
15396.478848594064,21984.0
15396.478911091277,13951.0
15396.47897358849,5134.0
15396.479036085702,-2069.0
15396.479098582915,-6050.0
15396.479161080128,-6368.0
15396.479223577338,-3685.0
15396.479286074551,-935.0
15396.479348571764,-358.0
15396.479411068976,-2490.0
15396.479473566189,-5736.0
15396.479536063402,-7995.0
15396.479598560614,-7096.0
15396.479661057827,-2771.0
15396.47972355504,3550.0
15396.479786052252,9559.0
15396.479848549465,14414.0
15396.479911046677,16928.0
15396.479973543888,16952.0
15396.4800360411,14351.0
15396.480098538314,10056.0
15396.480161035526,5063.0
15396.480223532739,1269.0
15396.480286029951,56.0
15396.480348527164,1720.0
15396.480411024377,5521.0
15396.48047352159,9928.0
15396.480536018802,13227.0
15396.480598516013,14389.0
15396.480661013225,14092.0
15396.480723510438,12992.0
15396.48078600765,11910.0
15396.480848504863,11324.0
15396.480911002076,11257.0
15396.480973499289,11582.0
15396.481035996501,12327.0
15396.481098493714,13217.0
15396.481160990927,13794.0
15396.48122348814,13998.0
15396.481285985352,13509.0
15396.481348482563,12283.0
15396.481410979775,10817.0
15396.481473476988,9695.0
15396.4815359742,8893.0
15396.481598471413,8371.0
15396.481660968626,7945.0
15396.481723465839,7259.0
15396.481785963051,6197.0
15396.481848460264,5008.0
15396.481910957476,3784.0
15396.481973454687,2678.0
15396.4820359519,1682.0
15396.482098449113,719.0
15396.482160946325,-264.0
15396.482223443538,-1166.0
15396.48228594075,-2180.0
15396.482348437963,-3709.0
15396.482410935176,-5938.0
15396.482473432388,-9077.0
15396.482535929601,-13020.0
15396.482598426814,-17458.0
15396.482660924026,-21194.0
15396.482723421237,-23954.0
15396.48278591845,-26028.0
15396.482848415662,-27484.0
15396.482910912875,-28992.0
15396.482973410088,-31398.0
15396.4830359073,-32768.0
15396.483098404513,-32663.0
15396.483160901726,-32768.0
15396.483223398938,-32749.0
15396.48328589615,-32606.0
15396.483348393362,-32768.0
15396.483410890574,-21652.0
15396.483473387787,-344.0
15396.483535885,15245.0
15396.483598382212,23953.0
15396.483660879425,25727.0
15396.483723376637,22463.0
15396.48378587385,15352.0
15396.483848371063,7108.0
15396.483910868275,-254.0
15396.483973365488,-5059.0
15396.4840358627,-6808.0
15396.484098359912,-4655.0
15396.484160857124,-1337.0
15396.484223354337,455.0
15396.48428585155,-580.0
15396.484348348762,-3489.0
15396.484410845975,-6386.0
15396.484473343187,-6761.0
15396.4845358404,-3806.0
15396.484598337613,1459.0
15396.484660834825,7406.0
15396.484723332036,12553.0
15396.484785829249,15763.0
15396.484848326461,16684.0
15396.484910823674,15263.0
15396.484973320887,11560.0
15396.4850358181,6760.0
15396.485098315312,2614.0
15396.485160812525,797.0
15396.485223309737,1790.0
15396.48528580695,5304.0
15396.485348304162,9773.0
15396.485410801375,13232.0
15396.485473298586,14627.0
15396.485535795799,14101.0
15396.485598293011,12628.0
15396.485660790224,11177.0
15396.485723287436,10170.0
15396.48578578465,9892.0
15396.485848281862,10461.0
15396.485910779074,11593.0
15396.485973276287,12926.0
15396.486035773498,14077.0
15396.48609827071,14384.0
15396.486160767923,13262.0
15396.486223265136,10888.0
15396.486285762348,8487.0
15396.486348259561,7133.0
15396.486410756774,7285.0
15396.486473253986,8492.0
15396.486535751199,9665.0
15396.486598248412,9850.0
15396.486660745624,8791.0
15396.486723242837,6641.0
15396.48678574005,4118.0
15396.48684823726,1949.0
15396.486910734473,238.0
15396.486973231686,-970.0
15396.487035728898,-1463.0
15396.48709822611,-1382.0
15396.487160723324,-1540.0
15396.487223220536,-2432.0
15396.487285717749,-4245.0
15396.487348214961,-7256.0
15396.487410712172,-11316.0
15396.487473209385,-15750.0
15396.487535706598,-19736.0
15396.48759820381,-22785.0
15396.487660701023,-24659.0
15396.487723198235,-25738.0
15396.487785695448,-26569.0
15396.48784819266,-28225.0
15396.487910689873,-31502.0
15396.487973187086,-32768.0
15396.488035684299,-32626.0
15396.488098181511,-32768.0
15396.488160678724,-32487.0
15396.488223175935,-32768.0
15396.488285673147,-29962.0
15396.48834817036,-12623.0
15396.488410667573,7176.0
15396.488473164785,19514.0
15396.488535661998,25907.0
15396.48859815921,25627.0
15396.488660656423,20893.0
15396.488723153636,12595.0
15396.488785650847,4219.0
15396.48884814806,-2806.0
15396.488910645272,-6557.0
15396.488973142485,-6554.0
15396.489035639697,-3450.0
15396.48909813691,-994.0
15396.489160634123,-620.0
15396.489223131335,-2802.0
15396.489285628548,-5684.0
15396.48934812576,-7293.0
15396.489410622973,-5806.0
15396.489473120186,-1552.0
15396.489535617398,4240.0
15396.48959811461,10087.0
15396.489660611822,14427.0
15396.489723109034,16884.0
15396.489785606247,16871.0
15396.48984810346,14540.0
15396.489910600672,10035.0
15396.489973097885,5233.0
15396.490035595098,1900.0
15396.49009809231,1231.0
15396.490160589521,3529.0
15396.490223086734,7553.0
15396.490285583946,11381.0
15396.490348081159,13246.0
15396.490410578372,12862.0
15396.490473075584,11022.0
15396.490535572797,9005.0
15396.49059807001,7640.0
15396.490660567222,7509.0
15396.490723064435,8665.0
15396.490785561647,11147.0
15396.49084805886,14468.0
15396.490910556071,17511.0
15396.490973053284,18553.0
15396.491035550496,17027.0
15396.491098047709,13432.0
15396.491160544922,9446.0
15396.491223042134,6881.0
15396.491285539347,6334.0
15396.49134803656,7305.0
15396.491410533772,8572.0
15396.491473030985,9232.0
15396.491535528196,8729.0
15396.491598025408,7175.0
15396.49166052262,4962.0
15396.491723019833,2631.0
15396.491785517046,575.0
15396.491848014259,-578.0
15396.491910511471,-732.0
15396.491973008684,128.0
15396.492035505897,1135.0
15396.49209800311,1019.0
15396.492160500322,-964.0
15396.492222997535,-4678.0
15396.492285494745,-9432.0
15396.492347991958,-14342.0
15396.49241048917,-18620.0
15396.492472986383,-21702.0
15396.492535483596,-23797.0
15396.492597980809,-24974.0
15396.492660478021,-25737.0
15396.492722975234,-26502.0
15396.492785472446,-28638.0
15396.49284796966,-32025.0
15396.49291046687,-32768.0
15396.492972964083,-32694.0
15396.493035461295,-32768.0
15396.493097958508,-32466.0
15396.49316045572,-32768.0
15396.493222952933,-24876.0
15396.493285450146,-3725.0
15396.493347947358,13290.0
15396.493410444571,23135.0
15396.493472941784,26371.0
15396.493535438996,24233.0
15396.493597936209,18148.0
15396.49366043342,9727.0
15396.493722930632,1339.0
15396.493785427845,-4692.0
15396.493847925058,-7086.0
15396.49391042227,-5796.0
15396.493972919483,-2865.0
15396.494035416696,-1011.0
15396.494097913908,-1775.0
15396.49416041112,-4725.0
15396.494222908334,-7215.0
15396.494285405544,-7354.0
15396.494347902757,-4202.0
15396.49441039997,889.0
15396.494472897182,7147.0
15396.494535394395,12496.0
15396.494597891608,16103.0
15396.49466038882,17341.0
15396.494722886033,16276.0
15396.494785383245,12837.0
15396.494847880458,7878.0
15396.49491037767,3203.0
15396.494972874883,666.0
15396.495035372094,1250.0
15396.495097869307,4425.0
15396.49516036652,8500.0
15396.495222863732,11919.0
15396.495285360945,13610.0
15396.495347858157,13413.0
15396.49541035537,11789.0
15396.495472852583,10135.0
15396.495535349795,9003.0
15396.495597847008,8791.0
15396.495660344219,10133.0
15396.495722841431,12746.0
15396.495785338644,15388.0
15396.495847835857,16740.0
15396.49591033307,16105.0
15396.495972830282,13806.0
15396.496035327495,10639.0
15396.496097824707,7935.0
15396.49616032192,6646.0
15396.496222819133,7093.0
15396.496285316345,8424.0
15396.496347813558,9688.0
15396.496410310769,9968.0
15396.496472807981,8986.0
15396.496535305194,6760.0
15396.496597802407,3832.0
15396.49666029962,1157.0
15396.496722796832,-557.0
15396.496785294044,-1048.0
15396.496847791257,-299.0
15396.49691028847,1008.0
15396.49697278568,1793.0
15396.497035282893,1051.0
15396.497097780106,-1473.0
15396.497160277318,-5277.0
15396.497222774531,-9629.0
15396.497285271744,-14017.0
15396.497347768956,-17882.0
15396.497410266169,-20784.0
15396.497472763382,-22963.0
15396.497535260594,-24655.0
15396.497597757807,-25875.0
15396.49766025502,-27055.0
15396.497722752232,-29933.0
15396.497785249443,-32721.0
15396.497847746656,-32746.0
15396.497910243868,-32768.0
15396.497972741081,-32705.0
15396.498035238294,-32768.0
15396.498097735506,-32710.0
15396.498160232719,-21301.0
15396.498222729932,-1773.0
15396.498285227144,13028.0
15396.498347724355,22038.0
15396.498410221568,24772.0
15396.49847271878,22336.0
15396.498535215993,15917.0
15396.498597713206,7641.0
15396.498660210418,141.0
15396.49872270763,-4873.0
15396.498785204843,-6644.0
15396.498847702056,-5511.0
15396.498910199269,-3405.0
15396.498972696481,-1947.0
15396.499035193694,-2305.0
15396.499097690907,-4292.0
15396.499160188117,-5817.0
15396.49922268533,-5305.0
15396.499285182543,-2269.0
15396.499347679755,2393.0
15396.499410176968,7943.0
15396.49947267418,12511.0
15396.499535171393,15261.0
15396.499597668606,15870.0
15396.499660165819,14562.0
15396.49972266303,11449.0
15396.499785160242,7456.0
15396.499847657455,4084.0
15396.499910154667,2530.0
15396.49997265188,3439.0
15396.500035149093,6203.0
15396.500097646305,9566.0
15396.500160143518,12097.0
15396.50022264073,12912.0
15396.500285137943,12075.0
15396.500347635156,10533.0
15396.500410132368,9430.0
15396.500472629581,9271.0
15396.500535126792,10086.0
15396.500597624005,11576.0
15396.500660121217,13174.0
15396.50072261843,14176.0
15396.500785115642,14219.0
15396.500847612855,13377.0
15396.500910110068,11853.0
15396.50097260728,10099.0
15396.501035104493,8743.0
15396.501097601704,8393.0
15396.501160098916,8881.0
15396.501222596129,9410.0
15396.501285093342,9296.0
15396.501347590554,8160.0
15396.501410087767,6077.0
15396.50147258498,3562.0
15396.501535082192,1482.0
15396.501597579405,343.0
15396.501660076618,410.0
15396.50172257383,1222.0
15396.501785071043,2124.0
15396.501847568254,2593.0
15396.501910065466,1961.0
15396.501972562679,58.0
15396.502035059892,-2847.0
15396.502097557104,-6435.0
15396.502160054317,-10160.0
15396.50222255153,-13854.0
15396.502285048742,-17386.0
15396.502347545955,-20428.0
15396.502410043167,-23044.0
15396.502472540378,-25173.0
15396.50253503759,-26803.0
15396.502597534803,-27899.0
15396.502660032016,-29887.0
15396.502722529229,-32471.0
15396.502785026441,-32768.0
15396.502847523654,-32768.0
15396.502910020867,-32624.0
15396.50297251808,-32768.0
15396.503035015292,-31887.0
15396.503097512505,-19471.0
15396.503160009717,-1732.0
15396.503222506928,11384.0
15396.50328500414,19183.0
15396.503347501353,21499.0
15396.503409998566,20182.0
15396.503472495779,14907.0
15396.503534992991,7273.0
15396.503597490204,266.0
15396.503659987417,-4011.0
15396.50372248463,-5787.0
15396.503784981842,-4804.0
15396.503847479053,-2421.0
15396.503909976265,-1222.0
15396.503972473478,-2219.0
15396.50403497069,-4095.0
15396.504097467903,-5217.0
15396.504159965116,-4448.0
15396.504222462328,-1471.0
15396.504284959541,3048.0
15396.504347456754,7998.0
15396.504409953966,12066.0
15396.504472451179,14781.0
15396.504534948392,15622.0
15396.504597445602,14643.0
15396.504659942815,11647.0
15396.504722440028,7815.0
15396.50478493724,4346.0
15396.504847434453,2892.0
15396.504909931666,3550.0
15396.504972428878,5981.0
15396.505034926091,9117.0
15396.505097423304,11703.0
15396.505159920516,12906.0
15396.505222417727,12671.0
15396.50528491494,11599.0
15396.505347412152,10226.0
15396.505409909365,9171.0
15396.505472406578,9056.0
15396.50553490379,10144.0
15396.505597401003,11808.0
15396.505659898216,13425.0
15396.505722395428,14236.0
15396.50578489264,13749.0
15396.505847389853,12076.0
15396.505909887066,9916.0
15396.505972384277,8148.0
15396.50603488149,7271.0
15396.506097378702,7284.0
15396.506159875915,7653.0
15396.506222373127,7841.0
15396.50628487034,7547.0
15396.506347367553,6698.0
15396.506409864765,5359.0
15396.506472361978,3931.0
15396.50653485919,2575.0
15396.506597356401,1464.0
15396.506659853614,937.0
15396.506722350827,1055.0
15396.50678484804,1252.0
15396.506847345252,848.0
15396.506909842465,-626.0
15396.506972339677,-3219.0
15396.50703483689,-6542.0
15396.507097334103,-10071.0
15396.507159831315,-13501.0
15396.507222328528,-16775.0
15396.50728482574,-19741.0
15396.507347322951,-22532.0
15396.507409820164,-24669.0
15396.507472317377,-25973.0
15396.50753481459,-26525.0
15396.507597311802,-27872.0
15396.507659809015,-31422.0
15396.507722306227,-32768.0
15396.50778480344,-32768.0
15396.507847300652,-32685.0
15396.507909797865,-32768.0
15396.507972295076,-32627.0
15396.508034792289,-21433.0
15396.508097289501,-3320.0
15396.508159786714,9758.0
15396.508222283926,17886.0
15396.508284781139,20695.0
15396.508347278352,19135.0
15396.508409775564,14402.0
15396.508472272777,7726.0
15396.50853476999,842.0
15396.508597267202,-4002.0
15396.508659764415,-5570.0
15396.508722261626,-4010.0
15396.508784758838,-1280.0
15396.508847256051,22.0
15396.508909753264,-1404.0
15396.508972250476,-4284.0
15396.509034747689,-6015.0
15396.509097244902,-5515.0
15396.509159742114,-2246.0
15396.509222239327,2580.0
15396.509284736538,7657.0
15396.50934723375,11526.0
15396.509409730963,14055.0
15396.509472228176,15068.0
15396.509534725388,14296.0
15396.5095972226,11463.0
15396.509659719813,7501.0
15396.509722217026,3949.0
15396.509784714239,2330.0
15396.509847211451,3092.0
15396.509909708664,5760.0
15396.509972205877,8901.0
15396.51003470309,11154.0
15396.5100972003,11848.0
15396.510159697513,11520.0
15396.510222194725,10636.0
15396.510284691938,9791.0
15396.51034718915,9261.0
15396.510409686363,9386.0
15396.510472183576,10166.0
15396.510534680789,11274.0
15396.510597178001,12479.0
15396.510659675212,13409.0
15396.510722172425,13235.0
15396.510784669637,11804.0
15396.51084716685,9748.0
15396.510909664063,7859.0
15396.510972161275,6664.0
15396.511034658488,6473.0
15396.5110971557,6880.0
15396.511159652913,7289.0
15396.511222150126,7125.0
15396.511284647338,6320.0
15396.511347144551,5132.0
15396.511409641764,3813.0
15396.511472138975,2631.0
15396.511534636187,1733.0
15396.5115971334,1130.0
15396.511659630612,964.0
15396.511722127825,922.0
15396.511784625038,659.0
15396.51184712225,-222.0
15396.511909619463,-1907.0
15396.511972116676,-4333.0
15396.512034613886,-7353.0
15396.5120971111,-10869.0
15396.512159608312,-14658.0
15396.512222105524,-18440.0
15396.512284602737,-21659.0
15396.51234709995,-24238.0
15396.512409597162,-25810.0
15396.512472094375,-26662.0
15396.512534591588,-26998.0
15396.5125970888,-29156.0
15396.512659586013,-32417.0
15396.512722083226,-32768.0
15396.512784580436,-32768.0
15396.512847077649,-32570.0
15396.512909574862,-32768.0
15396.512972072074,-30091.0
15396.513034569287,-15012.0
15396.5130970665,1021.0
15396.513159563712,11486.0
15396.513222060925,17687.0
15396.513284558137,19382.0
15396.51334705535,17672.0
15396.513409552561,12096.0
15396.513472049774,5069.0
15396.513534546986,-979.0
15396.513597044199,-4524.0
15396.513659541411,-5334.0
15396.513722038624,-3237.0
15396.513784535837,-1124.0
15396.51384703305,-995.0
15396.513909530262,-3153.0
15396.513972027475,-4831.0
15396.514034524687,-5268.0
15396.5140970219,-3478.0
15396.51415951911,-106.0
15396.514222016323,4413.0
15396.514284513536,8541.0
15396.514347010749,11797.0
15396.514409507961,13708.0
15396.514472005174,14231.0
15396.514534502387,12988.0
15396.5145969996,9794.0
15396.514659496812,5975.0
15396.514721994025,3361.0
15396.514784491235,2788.0
15396.514846988448,4264.0
15396.51490948566,7134.0
15396.514971982873,10193.0
15396.515034480086,11983.0
15396.515096977299,12208.0
15396.515159474511,11313.0
15396.515221971724,10136.0
15396.515284468936,9278.0
15396.515346966149,8949.0
15396.515409463362,9209.0
15396.515471960574,10294.0
15396.515534457785,11844.0
15396.515596954998,13028.0
15396.51565945221,13344.0
15396.515721949423,12631.0
15396.515784446636,10733.0
15396.515846943848,8423.0
15396.515909441061,6493.0
15396.515971938274,5679.0
15396.516034435486,5937.0
15396.516096932699,6904.0
15396.51615942991,7737.0
15396.516221927122,7845.0
15396.516284424335,6968.0
15396.516346921548,5261.0
15396.51640941876,3279.0
15396.516471915973,1638.0
15396.516534413186,627.0
15396.516596910398,329.0
15396.51665940761,622.0
15396.516721904823,950.0
15396.516784402036,455.0
15396.516846899249,-1071.0
15396.51690939646,-3721.0
15396.516971893672,-7152.0
15396.517034390885,-10878.0
15396.517096888098,-14533.0
15396.51715938531,-17850.0
15396.517221882523,-20430.0
15396.517284379735,-22413.0
15396.517346876948,-23899.0
15396.51740937416,-24727.0
15396.517471871373,-25003.0
15396.517534368584,-26576.0
15396.517596865797,-30894.0
15396.51765936301,-32768.0
15396.517721860222,-32768.0
15396.517784357435,-32680.0
15396.517846854647,-32768.0
15396.51790935186,-32584.0
15396.517971849073,-21771.0
15396.518034346285,-4422.0
15396.518096843498,8213.0
15396.51815934071,15839.0
15396.518221837923,18441.0
15396.518284335134,17651.0
15396.518346832347,13920.0
15396.51840932956,7870.0
15396.518471826772,1378.0
15396.518534323985,-3123.0
15396.518596821197,-4551.0
15396.51865931841,-2878.0
15396.518721815622,-473.0
15396.518784312835,424.0
15396.518846810048,-963.0
15396.518909307259,-3579.0
15396.518971804471,-5433.0
15396.519034301684,-4836.0
15396.519096798896,-1644.0
15396.51915929611,2658.0
15396.519221793322,6875.0
15396.519284290534,10372.0
15396.519346787747,12739.0
15396.51940928496,13750.0
15396.519471782172,13163.0
15396.519534279385,10968.0
15396.519596776598,7691.0
15396.519659273808,4728.0
15396.519721771021,3282.0
15396.519784268234,4073.0
15396.519846765446,6744.0
15396.519909262659,9811.0
15396.519971759872,11949.0
15396.520034257084,12503.0
15396.520096754297,11786.0
15396.52015925151,10385.0
15396.52022174872,9198.0
15396.520284245933,8657.0
15396.520346743146,8711.0
15396.520409240358,9302.0
15396.520471737571,10415.0
15396.520534234784,11637.0
15396.520596731996,12421.0
15396.520659229209,12363.0
15396.520721726421,11180.0
15396.520784223634,9229.0
15396.520846720847,7397.0
15396.52090921806,6385.0
15396.520971715272,6477.0
15396.521034212483,7253.0
15396.521096709695,7970.0
15396.521159206908,7806.0
15396.52122170412,6588.0
15396.521284201333,4728.0
15396.521346698546,2769.0
15396.521409195759,1231.0
15396.521471692971,262.0
15396.521534190184,-51.0
15396.521596687395,-39.0
15396.521659184607,117.0
15396.52172168182,-47.0
15396.521784179033,-988.0
15396.521846676245,-2905.0
15396.521909173458,-5657.0
15396.52197167067,-8926.0
15396.522034167883,-12486.0
15396.522096665096,-16075.0
15396.522159162309,-19176.0
15396.522221659521,-21743.0
15396.522284156734,-23573.0
15396.522346653946,-24850.0
15396.522409151157,-26033.0
15396.52247164837,-27808.0
15396.522534145583,-31237.0
15396.522596642795,-32768.0
15396.522659140008,-32731.0
15396.52272163722,-32768.0
15396.522784134433,-32572.0
15396.522846631646,-32768.0
15396.522909128858,-25292.0
15396.52297162607,-7650.0
15396.523034123282,6635.0
15396.523096620494,15849.0
15396.523159117707,19638.0
15396.52322161492,18975.0
15396.523284112132,14979.0
15396.523346609345,8940.0
15396.523409106558,2274.0
15396.52347160377,-3017.0
15396.523534100983,-5744.0
15396.523596598196,-4667.0
15396.523659095408,-1712.0
15396.523721592619,303.0
15396.523784089832,-156.0
15396.523846587044,-1860.0
15396.523909084257,-3739.0
15396.52397158147,-4067.0
15396.524034078682,-1857.0
15396.524096575895,2245.0
15396.524159073108,6453.0
15396.52422157032,10088.0
15396.524284067533,12737.0
15396.524346564744,14006.0
15396.524409061956,13685.0
15396.524471559169,11637.0
15396.524534056382,8179.0
15396.524596553594,4645.0
15396.524659050807,2677.0
15396.52472154802,2943.0
15396.524784045232,5298.0
15396.524846542445,8727.0
15396.524909039657,11479.0
15396.52497153687,12532.0
15396.525034034083,12141.0
15396.525096531293,10835.0
15396.525159028506,9417.0
15396.525221525719,8447.0
15396.525284022931,8398.0
15396.525346520144,9089.0
15396.525409017357,10379.0
15396.52547151457,11941.0
15396.525534011782,13108.0
15396.525596508995,13217.0
15396.525659006207,12198.0
15396.525721503418,10192.0
15396.52578400063,7861.0
15396.525846497843,6125.0
15396.525908995056,5434.0
15396.525971492269,5745.0
15396.526033989481,6558.0
15396.526096486694,7084.0
15396.526158983906,6818.0
15396.52622148112,5740.0
15396.526283978332,4141.0
15396.526346475544,2409.0
15396.526408972757,1135.0
15396.526471469968,722.0
15396.52653396718,904.0
15396.526596464393,1204.0
15396.526658961606,1303.0
15396.526721458818,629.0
15396.526783956031,-1101.0
15396.526846453244,-3754.0
15396.526908950456,-7055.0
15396.526971447669,-10784.0
15396.527033944882,-14756.0
15396.527096442092,-18435.0
15396.527158939305,-21332.0
15396.527221436518,-23309.0
15396.52728393373,-24456.0
15396.527346430943,-25374.0
15396.527408928156,-26192.0
15396.527471425368,-28685.0
15396.527533922581,-32138.0
15396.527596419794,-32768.0
15396.527658917006,-32768.0
15396.527721414219,-32556.0
15396.527783911431,-32768.0
15396.527846408642,-30580.0
15396.527908905855,-16707.0
15396.527971403068,-768.0
15396.52803390028,10924.0
15396.528096397493,18494.0
15396.528158894705,19692.0
15396.528221391918,16613.0
15396.52828388913,11626.0
15396.528346386343,5488.0
15396.528408883556,-626.0
15396.528471380767,-3981.0
15396.52853387798,-3670.0
15396.528596375192,-1691.0
15396.528658872405,155.0
15396.528721369617,1004.0
15396.52878386683,-82.0
15396.528846364043,-2237.0
15396.528908861255,-3916.0
15396.528971358468,-3269.0
15396.52903385568,-711.0
15396.529096352893,3101.0
15396.529158850106,6779.0
15396.529221347317,10191.0
15396.52928384453,12715.0
15396.529346341742,13495.0
15396.529408838955,12366.0
15396.529471336167,9905.0
15396.52953383338,6806.0
15396.529596330593,4070.0
15396.529658827805,3369.0
15396.529721325018,4833.0
15396.52978382223,7329.0
15396.529846319441,9893.0
15396.529908816654,11618.0
15396.529971313867,11885.0
15396.53003381108,11002.0
15396.530096308292,9683.0
15396.530158805504,8543.0
15396.530221302717,8106.0
15396.53028379993,8635.0
15396.530346297142,9734.0
15396.530408794355,11425.0
15396.530471291568,13126.0
15396.53053378878,13975.0
15396.530596285991,13262.0
15396.530658783204,11656.0
15396.530721280416,9538.0
15396.530783777629,7429.0
15396.530846274842,6070.0
15396.530908772054,5683.0
15396.530971269267,5850.0
15396.53103376648,6125.0
15396.531096263692,6253.0
15396.531158760903,5964.0
15396.531221258116,5268.0
15396.531283755328,4234.0
15396.531346252541,2981.0
15396.531408749754,1913.0
15396.531471246966,1379.0
15396.531533744179,1177.0
15396.531596241392,1136.0
15396.531658738604,1020.0
15396.531721235817,192.0
15396.53178373303,-1775.0
15396.531846230242,-4799.0
15396.531908727455,-8593.0
15396.531971224666,-12700.0
15396.532033721878,-16758.0
15396.53209621909,-20357.0
15396.532158716303,-22995.0
15396.532221213516,-24522.0
15396.532283710729,-25143.0
15396.532346207941,-25120.0
15396.532408705154,-25174.0
15396.532471202367,-27349.0
15396.532533699577,-31550.0
15396.53259619679,-32768.0
15396.532658694003,-32716.0
15396.532721191215,-32611.0
15396.532783688428,-32768.0
15396.53284618564,-28188.0
15396.532908682853,-13334.0
15396.532971180066,980.0
15396.533033677279,10773.0
15396.533096174491,15694.0
15396.533158671704,16276.0
15396.533221168916,14572.0
15396.53328366613,10374.0
15396.53334616334,4971.0
15396.533408660553,271.0
15396.533471157765,-2180.0
15396.533533654978,-2255.0
15396.53359615219,-338.0
15396.533658649403,1531.0
15396.533721146616,1406.0
15396.533783643828,-634.0
15396.533846141041,-2870.0
15396.533908638252,-3913.0
15396.533971135465,-2759.0
15396.534033632677,171.0
15396.53409612989,3932.0
15396.534158627102,7302.0
15396.534221124315,10185.0
15396.534283621528,12069.0
15396.53434611874,12889.0
15396.534408615953,11955.0
15396.534471113166,9481.0
15396.534533610378,6291.0
15396.534596107591,4066.0
15396.534658604804,3976.0
15396.534721102014,5933.0
15396.534783599227,8896.0
15396.53484609644,11485.0
15396.534908593652,12362.0
15396.534971090865,11653.0
15396.535033588078,10320.0
15396.53509608529,9173.0
15396.535158582503,8674.0
15396.535221079715,8781.0
15396.535283576926,9206.0
15396.535346074139,9853.0
15396.535408571352,10837.0
15396.535471068564,11828.0
15396.535533565777,12289.0
15396.53559606299,11746.0
15396.535658560202,10266.0
15396.535721057415,8269.0
15396.535783554627,6602.0
15396.53584605184,5974.0
15396.535908549053,6132.0
15396.535971046265,6509.0
15396.536033543476,6567.0
15396.536096040689,6020.0
15396.536158537901,5215.0
15396.536221035114,4411.0
15396.536283532327,3706.0
15396.53634602954,3083.0
15396.536408526752,2604.0
15396.536471023965,2252.0
15396.536533521177,1980.0
15396.53659601839,1624.0
15396.5366585156,766.0
15396.536721012813,-941.0
15396.536783510026,-3600.0
15396.536846007239,-6887.0
15396.536908504451,-10357.0
15396.536971001664,-13754.0
15396.537033498877,-16884.0
15396.53709599609,-19694.0
15396.537158493302,-21917.0
15396.537220990514,-23331.0
15396.537283487727,-23976.0
15396.53734598494,-24266.0
15396.53740848215,-24824.0
15396.537470979363,-27198.0
15396.537533476576,-31289.0
15396.537595973788,-32768.0
15396.537658471001,-32637.0
15396.537720968214,-32732.0
15396.537783465426,-32768.0
15396.537845962639,-25520.0
15396.537908459852,-10866.0
15396.537970957064,1703.0
15396.538033454275,10990.0
15396.538095951488,15256.0
15396.5381584487,15313.0
15396.538220945913,13325.0
15396.538283443126,9693.0
15396.538345940338,4889.0
15396.538408437551,462.0
15396.538470934764,-1620.0
15396.538533431976,-922.0
15396.538595929189,734.0
15396.538658426402,1757.0
15396.538720923614,1302.0
15396.538783420825,-483.0
15396.538845918038,-2952.0
15396.53890841525,-4082.0
15396.538970912463,-2669.0
15396.539033409676,407.0
15396.539095906888,3818.0
15396.5391584041,7088.0
15396.539220901313,10062.0
15396.539283398526,11958.0
15396.539345895739,12504.0
15396.53940839295,11418.0
15396.539470890162,9191.0
15396.539533387375,6508.0
15396.539595884587,4660.0
15396.5396583818,4766.0
15396.539720879013,6653.0
15396.539783376225,8943.0
15396.539845873438,10628.0
15396.53990837065,11080.0
15396.539970867863,10486.0
15396.540033365076,9314.0
15396.540095862289,8502.0
15396.5401583595,8350.0
15396.540220856712,8650.0
15396.540283353925,9377.0
15396.540345851137,10385.0
15396.54040834835,11562.0
15396.540470845563,12452.0
15396.540533342775,12401.0
15396.540595839988,11218.0
15396.5406583372,9619.0
15396.540720834413,7941.0
15396.540783331624,6648.0
15396.540845828837,6277.0
15396.54090832605,6552.0
15396.540970823262,6674.0
15396.541033320475,6423.0
15396.541095817687,5912.0
15396.5411583149,5201.0
15396.541220812112,4418.0
15396.541283309325,3879.0
15396.541345806538,3437.0
15396.54140830375,3102.0
15396.541470800963,2931.0
15396.541533298174,2751.0
15396.541595795386,2291.0
15396.5416582926,1289.0
15396.541720789812,-626.0
15396.541783287024,-3507.0
15396.541845784237,-6685.0
15396.54190828145,-9826.0
15396.541970778662,-12962.0
15396.542033275875,-16253.0
15396.542095773086,-19435.0
15396.542158270298,-22109.0
15396.542220767511,-23934.0
15396.542283264724,-24696.0
15396.542345761936,-24518.0
15396.542408259149,-24472.0
15396.542470756362,-26455.0
15396.542533253574,-30909.0
15396.542595750787,-32768.0
15396.542658248,-32690.0
15396.542720745212,-32641.0
15396.542783242425,-32768.0
15396.542845739637,-27293.0
15396.542908236848,-12487.0
15396.54297073406,985.0
15396.543033231274,10212.0
15396.543095728486,15453.0
15396.543158225699,16916.0
15396.543220722911,15447.0
15396.543283220124,11074.0
15396.543345717337,5690.0
15396.54340821455,814.0
15396.54347071176,-2039.0
15396.543533208973,-2010.0
15396.543595706185,99.0
15396.543658203398,1824.0
15396.54372070061,1444.0
15396.543783197823,-432.0
15396.543845695036,-2519.0
15396.543908192249,-3633.0
15396.543970689461,-2715.0
15396.544033186674,-190.0
15396.544095683887,3173.0
15396.5441581811,6350.0
15396.544220678312,9404.0
15396.544283175523,11514.0
15396.544345672735,12658.0
15396.544408169948,11823.0
15396.54447066716,9476.0
15396.544533164373,6317.0
15396.544595661586,4258.0
15396.544658158798,4052.0
15396.544720656011,5807.0
15396.544783153224,8298.0
15396.544845650435,10759.0
15396.544908147647,12007.0
15396.54497064486,11915.0
15396.545033142072,10891.0
15396.545095639285,9780.0
15396.545158136498,8865.0
15396.54522063371,8482.0
15396.545283130923,8447.0
15396.545345628136,9077.0
15396.545408125348,10278.0
15396.545470622561,11534.0
15396.545533119774,12004.0
15396.545595616986,11456.0
15396.545658114197,10155.0
15396.54572061141,8318.0
15396.545783108622,6654.0
15396.545845605835,5927.0
15396.545908103048,6055.0
15396.54597060026,6478.0
15396.546033097473,6813.0
15396.546095594686,6861.0
15396.546158091898,6575.0
15396.546220589109,5895.0
15396.546283086322,4946.0
15396.546345583534,3866.0
15396.546408080747,2734.0
15396.54647057796,1711.0
15396.546533075172,1079.0
15396.546595572385,709.0
15396.546658069597,292.0
15396.54672056681,-826.0
15396.546783064023,-2756.0
15396.546845561235,-5395.0
15396.546908058448,-8480.0
15396.546970555659,-11591.0
15396.547033052871,-14752.0
15396.547095550084,-17808.0
15396.547158047297,-20407.0
15396.54722054451,-22248.0
15396.547283041722,-23087.0
15396.547345538935,-23043.0
15396.547408036147,-23371.0
15396.54747053336,-25168.0
15396.547533030573,-29304.0
15396.547595527783,-32691.0
15396.547658024996,-32768.0
15396.547720522209,-32498.0
15396.547783019421,-32768.0
15396.547845516634,-29736.0
15396.547908013847,-17054.0
15396.54797051106,-3663.0
15396.548033008272,5983.0
15396.548095505485,12329.0
15396.548158002697,14610.0
15396.54822049991,14219.0
15396.548282997122,11786.0
15396.548345494333,7872.0
15396.548407991546,3220.0
15396.548470488759,-80.0
15396.548532985971,-581.0
15396.548595483184,678.0
15396.548657980396,2046.0
15396.54872047761,2097.0
15396.548782974822,292.0
15396.548845472034,-2374.0
15396.548907969247,-4193.0
15396.548970466458,-3780.0
15396.54903296367,-1686.0
15396.549095460883,1545.0
15396.549157958096,4620.0
15396.549220455308,7718.0
15396.549282952521,10175.0
15396.549345449734,11845.0
15396.549407946946,11931.0
15396.549470444159,10597.0
15396.549532941372,8259.0
15396.549595438584,6063.0
15396.549657935797,5370.0
15396.549720433008,6436.0
15396.54978293022,8475.0
15396.549845427433,10351.0
15396.549907924646,11160.0
15396.549970421858,10918.0
15396.55003291907,9966.0
15396.550095416284,8962.0
15396.550157913496,8259.0
15396.550220410709,8046.0
15396.550282907921,8106.0
15396.550345405132,8569.0
15396.550407902345,9636.0
15396.550470399558,11050.0
15396.55053289677,11990.0
15396.550595393983,11844.0
15396.550657891195,11024.0
15396.550720388408,9622.0
15396.55078288562,8197.0
15396.550845382833,7254.0
15396.550907880046,6968.0
15396.550970377259,6909.0
15396.551032874471,6669.0
15396.551095371682,6245.0
15396.551157868895,5752.0
15396.551220366107,5072.0
15396.55128286332,4320.0
15396.551345360533,3612.0
15396.551407857745,2930.0
15396.551470354958,2298.0
15396.55153285217,1829.0
15396.551595349383,1412.0
15396.551657846596,859.0
15396.551720343807,-410.0
15396.55178284102,-2397.0
15396.551845338232,-4745.0
15396.551907835445,-7116.0
15396.551970332657,-9557.0
15396.55203282987,-12261.0
15396.552095327082,-15180.0
15396.552157824295,-18036.0
15396.552220321508,-20409.0
15396.55228281872,-21966.0
15396.552345315933,-22565.0
15396.552407813146,-22960.0
15396.552470310357,-24064.0
15396.55253280757,-27162.0
15396.552595304782,-31455.0
15396.552657801994,-32768.0
15396.552720299207,-32582.0
15396.55278279642,-32768.0
15396.552845293632,-32514.0
15396.552907790845,-24516.0
15396.552970288058,-11110.0
15396.553032785268,256.0
15396.553095282481,9001.0
15396.553157779694,14100.0
15396.553220276906,15579.0
15396.553282774119,14227.0
15396.553345271332,10768.0
15396.553407768544,6186.0
15396.553470265757,2132.0
15396.55353276297,66.0
15396.553595260182,248.0
15396.553657757395,1104.0
15396.553720254607,1188.0
15396.55378275182,-135.0
15396.553845249031,-2150.0
15396.553907746244,-4084.0
15396.553970243456,-4571.0
15396.554032740669,-3192.0
15396.554095237881,-283.0
15396.554157735094,3305.0
15396.554220232307,6960.0
15396.55428272952,10187.0
15396.554345226732,12523.0
15396.554407723943,13310.0
15396.554470221155,12290.0
15396.554532718368,9944.0
15396.55459521558,7302.0
15396.554657712793,5674.0
15396.554720210006,5603.0
15396.554782707219,6936.0
15396.554845204431,8841.0
15396.554907701644,10341.0
15396.554970198857,10947.0
15396.55503269607,10757.0
15396.555095193282,10109.0
15396.555157690495,9305.0
15396.555220187705,8597.0
15396.555282684918,8317.0
15396.55534518213,8459.0
15396.555407679343,9171.0
15396.555470176556,10439.0
15396.555532673769,11780.0
15396.555595170981,12236.0
15396.555657668194,11787.0
15396.555720165406,10479.0
15396.555782662617,8782.0
15396.55584515983,7440.0
15396.555907657043,6776.0
15396.555970154255,6619.0
15396.556032651468,6493.0
15396.55609514868,6139.0
15396.556157645893,5592.0
15396.556220143106,4820.0
15396.556282640318,3988.0
15396.556345137531,3142.0
15396.556407634744,2339.0
15396.556470131956,1781.0
15396.556532629169,1532.0
15396.55659512638,1446.0
15396.556657623592,1456.0
15396.556720120805,1045.0
15396.556782618018,-341.0
15396.55684511523,-2547.0
15396.556907612443,-5255.0
15396.556970109656,-8048.0
15396.557032606868,-10864.0
15396.55709510408,-14020.0
15396.557157601292,-17390.0
15396.557220098504,-20353.0
15396.557282595717,-22592.0
15396.55734509293,-23829.0
15396.557407590142,-23939.0
15396.557470087355,-23884.0
15396.557532584568,-24836.0
15396.55759508178,-28613.0
15396.557657578993,-32542.0
15396.557720076205,-32768.0
15396.557782573418,-32611.0
15396.55784507063,-32768.0
15396.557907567842,-27450.0
15396.557970065054,-15041.0
15396.558032562267,-3098.0
15396.55809505948,6397.0
15396.558157556692,12461.0
15396.558220053905,14663.0
15396.558282551117,14366.0
15396.55834504833,11633.0
15396.558407545543,6798.0
15396.558470042755,1865.0
15396.558532539966,-693.0
15396.558595037179,-591.0
15396.558657534391,743.0
15396.558720031604,1619.0
15396.558782528817,1309.0
15396.55884502603,-326.0
15396.558907523242,-2385.0
15396.558970020455,-3464.0
15396.559032517667,-2509.0
15396.55909501488,-152.0
15396.559157512092,2786.0
15396.559220009305,5870.0
15396.559282506516,9024.0
15396.559345003729,11647.0
15396.559407500941,12832.0
15396.559469998154,12267.0
15396.559532495367,10241.0
15396.55959499258,7564.0
15396.559657489792,5564.0
15396.559719987004,5281.0
15396.559782484217,6613.0
15396.55984498143,8682.0
15396.55990747864,10365.0
15396.559969975853,11207.0
15396.560032473066,11249.0
15396.560094970278,10717.0
15396.560157467491,9963.0
15396.560219964704,9071.0
15396.560282461916,8203.0
15396.560344959129,7867.0
15396.560407456342,8286.0
15396.560469953554,9573.0
15396.560532450767,11145.0
15396.56059494798,12102.0
15396.56065744519,12006.0
15396.560719942403,10925.0
15396.560782439616,9364.0
15396.560844936828,8025.0
15396.560907434041,7215.0
15396.560969931254,6760.0
15396.561032428466,6292.0
15396.561094925679,5729.0
15396.561157422891,5320.0
15396.561219920104,4915.0
15396.561282417315,4343.0
15396.561344914528,3606.0
15396.56140741174,2821.0
15396.561469908953,2129.0
15396.561532406165,1804.0
15396.561594903378,1903.0
15396.56165740059,2194.0
15396.561719897803,2043.0
15396.561782395016,918.0
15396.561844892229,-1129.0
15396.561907389441,-3786.0
15396.561969886654,-6735.0
15396.562032383865,-9639.0
15396.562094881077,-12667.0
15396.56215737829,-15850.0
15396.562219875503,-19049.0
15396.562282372715,-21574.0
15396.562344869928,-23090.0
15396.56240736714,-23471.0
15396.562469864353,-23330.0
15396.562532361566,-23701.0
15396.562594858779,-25716.0
15396.56265735599,-30237.0
15396.562719853202,-32768.0
15396.562782350415,-32527.0
15396.562844847627,-32768.0
15396.56290734484,-30752.0
15396.562969842053,-20515.0
15396.563032339265,-8398.0
15396.563094836478,1407.0
15396.56315733369,8730.0
15396.563219830903,12456.0
15396.563282328116,13247.0
15396.563344825328,11800.0
15396.56340732254,8423.0
15396.563469819752,4039.0
15396.563532316964,303.0
15396.563594814177,-949.0
15396.56365731139,18.0
15396.563719808602,1544.0
15396.563782305815,2083.0
15396.563844803028,1192.0
15396.56390730024,-629.0
15396.563969797453,-2257.0
15396.564032294664,-2450.0
15396.564094791876,-982.0
15396.564157289089,1514.0
15396.564219786302,4237.0
15396.564282283514,7012.0
15396.564344780727,9688.0
15396.56440727794,11601.0
15396.564469775152,12192.0
15396.564532272365,11159.0
15396.564594769578,9089.0
15396.56465726679,6810.0
15396.564719764003,5482.0
15396.564782261214,5677.0
15396.564844758426,7349.0
15396.564907255639,9372.0
15396.564969752852,10836.0
15396.565032250064,11340.0
15396.565094747277,11054.0
15396.56515724449,10365.0
15396.565219741702,9638.0
15396.565282238915,8690.0
15396.565344736126,7829.0
15396.565407233338,7502.0
15396.56546973055,8069.0
15396.565532227763,9526.0
15396.565594724976,11347.0
15396.565657222189,12550.0
15396.565719719401,12562.0
15396.565782216614,11425.0
15396.565844713827,9625.0
15396.56590721104,7645.0
15396.565969708252,6093.0
15396.566032205465,5136.0
15396.566094702677,4548.0
15396.566157199888,4334.0
15396.5662196971,4399.0
15396.566282194313,4552.0
15396.566344691526,4546.0
15396.566407188739,4186.0
15396.566469685951,3413.0
15396.566532183164,2568.0
15396.566594680377,1795.0
15396.56665717759,1201.0
15396.5667196748,746.0
15396.566782172013,150.0
15396.566844669225,-929.0
15396.566907166438,-2574.0
15396.56696966365,-4675.0
15396.567032160863,-7193.0
15396.567094658076,-10250.0
15396.567157155288,-13893.0
15396.567219652501,-17672.0
15396.567282149714,-20805.0
15396.567344646926,-22574.0
15396.567407144139,-22831.0
15396.567469641352,-22044.0
15396.567532138562,-21807.0
15396.567594635775,-23138.0
15396.567657132988,-26832.0
15396.5677196302,-31689.0
15396.567782127413,-32768.0
15396.567844624626,-32510.0
15396.567907121838,-32768.0
15396.567969619051,-27824.0
15396.568032116264,-15325.0
15396.568094613474,-3554.0
15396.568157110687,5950.0
15396.5682196079,11883.0
15396.568282105112,13736.0
15396.568344602325,12913.0
15396.568407099538,10073.0
15396.56846959675,5790.0
15396.568532093963,1392.0
15396.568594591175,-1016.0
15396.568657088388,-607.0
15396.5687195856,1182.0
15396.568782082813,2572.0
15396.568844580024,2537.0
15396.568907077237,1145.0
15396.56896957445,-1113.0
15396.569032071662,-2467.0
15396.569094568875,-2057.0
15396.569157066087,-15.0
15396.5692195633,2592.0
15396.569282060513,5549.0
15396.569344557725,8484.0
15396.569407054938,10929.0
15396.569469552149,12101.0
15396.569532049361,11771.0
15396.569594546574,10034.0
15396.569657043787,7620.0
15396.569719541,5624.0
15396.569782038212,5135.0
15396.569844535425,6285.0
15396.569907032637,8268.0
15396.56996952985,10210.0
15396.570032027063,11583.0
15396.570094524275,11913.0
15396.570157021488,11319.0
15396.570219518699,10201.0
15396.570282015911,9092.0
15396.570344513124,8204.0
15396.570407010337,7808.0
15396.57046950755,8277.0
15396.570532004762,9474.0
15396.570594501974,10894.0
15396.570656999187,11855.0
15396.5707194964,12069.0
15396.570781993612,11374.0
15396.570844490823,10026.0
15396.570906988036,8302.0
15396.570969485248,6842.0
15396.571031982461,5932.0
15396.571094479674,5578.0
15396.571156976886,5528.0
15396.571219474099,5562.0
15396.571281971312,5409.0
15396.571344468524,4822.0
15396.571406965737,4009.0
15396.57146946295,3157.0
15396.571531960162,2364.0
15396.571594457373,1780.0
15396.571656954586,1477.0
15396.571719451798,1394.0
15396.571781949011,1133.0
15396.571844446224,454.0
15396.571906943436,-985.0
15396.571969440649,-3370.0
15396.572031937862,-6632.0
15396.572094435074,-10459.0
15396.572156932287,-14468.0
15396.572219429498,-18062.0
15396.57228192671,-20737.0
15396.572344423923,-22358.0
15396.572406921136,-22948.0
15396.572469418348,-22680.0
15396.57253191556,-22565.0
15396.572594412773,-23233.0
15396.572656909986,-26203.0
15396.572719407199,-31185.0
15396.572781904411,-32768.0
15396.572844401624,-32524.0
15396.572906898837,-32768.0
15396.572969396047,-28269.0
15396.57303189326,-16298.0
15396.573094390473,-4404.0
15396.573156887685,4978.0
15396.573219384898,10692.0
15396.57328188211,12691.0
15396.573344379323,12528.0
15396.573406876536,10290.0
15396.573469373749,6258.0
15396.573531870961,2171.0
15396.573594368172,-86.0
15396.573656865385,-87.0
15396.573719362597,1710.0
15396.57378185981,3236.0
15396.573844357023,3225.0
15396.573906854235,1391.0
15396.573969351448,-878.0
15396.57403184866,-2536.0
15396.574094345873,-2329.0
15396.574156843086,-320.0
15396.574219340298,2439.0
15396.574281837511,5367.0
15396.574344334722,8540.0
15396.574406831935,11183.0
15396.574469329147,12408.0
15396.57453182636,12185.0
15396.574594323572,10392.0
15396.574656820785,7702.0
15396.574719317998,5437.0
15396.57478181521,4858.0
15396.574844312423,5956.0
15396.574906809636,8022.0
15396.574969306846,10080.0
15396.57503180406,11448.0
15396.575094301272,11780.0
15396.575156798484,11359.0
15396.575219295697,10303.0
15396.57528179291,9380.0
15396.575344290122,8794.0
15396.575406787335,8692.0
15396.575469284548,9219.0
15396.57553178176,10551.0
15396.575594278973,11822.0
15396.575656776185,12365.0
15396.575719273396,11791.0
15396.575781770609,10431.0
15396.575844267822,8780.0
15396.575906765034,7435.0
15396.575969262247,6614.0
15396.57603175946,6290.0
15396.576094256672,6133.0
15396.576156753885,5946.0
15396.576219251097,5602.0
15396.576281748308,5193.0
15396.57634424552,4623.0
15396.576406742734,3758.0
15396.576469239946,2858.0
15396.576531737159,2172.0
15396.576594234371,1808.0
15396.576656731584,1944.0
15396.576719228797,2124.0
15396.57678172601,1783.0
15396.576844223222,733.0
15396.576906720435,-1182.0
15396.576969217647,-3654.0
15396.57703171486,-6371.0
15396.57709421207,-9252.0
15396.577156709283,-12436.0
15396.577219206496,-15815.0
15396.577281703709,-18903.0
15396.577344200921,-21084.0
15396.577406698134,-22220.0
15396.577469195347,-22188.0
15396.57753169256,-21836.0
15396.577594189772,-22365.0
15396.577656686983,-24868.0
15396.577719184195,-29802.0
15396.577781681408,-32768.0
15396.57784417862,-32589.0
15396.577906675833,-32768.0
15396.577969173046,-31950.0
15396.578031670258,-23059.0
15396.578094167471,-10376.0
15396.578156664684,347.0
15396.578219161896,8513.0
15396.578281659109,12852.0
15396.578344156322,13788.0
15396.578406653534,11991.0
15396.578469150745,8341.0
15396.578531647958,4223.0
15396.57859414517,1121.0
15396.578656642383,241.0
15396.578719139596,1502.0
15396.578781636808,2985.0
15396.578844134021,3336.0
15396.578906631234,2108.0
15396.578969128446,92.0
15396.579031625657,-2047.0
15396.57909412287,-2725.0
15396.579156620082,-1557.0
15396.579219117295,1167.0
15396.579281614508,4339.0
15396.57934411172,7598.0
15396.579406608933,10484.0
15396.579469106146,12344.0
15396.579531603358,12584.0
15396.57959410057,11218.0
15396.579656597783,9043.0
15396.579719094996,6816.0
15396.579781592207,5533.0
15396.57984408942,5905.0
15396.579906586632,7707.0
15396.579969083845,9921.0
15396.580031581057,11442.0
15396.58009407827,11935.0
15396.580156575483,11534.0
15396.580219072695,10458.0
15396.580281569908,9205.0
15396.58034406712,8465.0
15396.580406564331,8417.0
15396.580469061544,8733.0
15396.580531558757,9523.0
15396.58059405597,10578.0
15396.580656553182,11539.0
15396.580719050395,11689.0
15396.580781547607,11125.0
15396.58084404482,10188.0
15396.580906542033,8993.0
15396.580969039245,7799.0
15396.581031536458,6993.0
15396.58109403367,6541.0
15396.581156530881,6305.0
15396.581219028094,5873.0
15396.581281525307,5317.0
15396.58134402252,4643.0
15396.581406519732,3843.0
15396.581469016945,2993.0
15396.581531514157,2301.0
15396.58159401137,1857.0
15396.581656508582,1753.0
15396.581719005795,1587.0
15396.581781503006,1181.0
15396.581844000219,371.0
15396.581906497431,-1034.0
15396.581968994644,-3066.0
15396.582031491856,-5565.0
15396.58209398907,-8424.0
15396.582156486282,-11698.0
15396.582218983494,-15163.0
15396.582281480707,-18138.0
15396.58234397792,-20175.0
15396.582406475132,-21459.0
15396.582468972345,-22024.0
15396.582531469556,-22174.0
15396.582593966768,-22900.0
15396.582656463981,-24979.0
15396.582718961194,-29476.0
15396.582781458406,-32768.0
15396.582843955619,-32588.0
15396.582906452832,-32768.0
15396.582968950044,-31312.0
15396.583031447257,-21884.0
15396.58309394447,-10436.0
15396.58315644168,-596.0
15396.583218938893,6679.0
15396.583281436106,10408.0
15396.583343933318,11616.0
15396.58340643053,10690.0
15396.583468927744,7727.0
15396.583531424956,4027.0
15396.583593922169,1380.0
15396.583656419381,937.0
15396.583718916594,2360.0
15396.583781413807,3952.0
15396.58384391102,4344.0
15396.58390640823,3196.0
15396.583968905443,1057.0
15396.584031402655,-1085.0
15396.584093899868,-1789.0
15396.58415639708,-684.0
15396.584218894293,1266.0
15396.584281391506,3528.0
15396.584343888719,6132.0
15396.584406385931,8799.0
15396.584468883144,10616.0
15396.584531380355,11304.0
15396.584593877567,10642.0
15396.58465637478,8887.0
15396.584718871993,7075.0
15396.584781369205,6317.0
15396.584843866418,7136.0
15396.58490636363,9091.0
15396.584968860843,11186.0
15396.585031358056,12413.0
15396.585093855268,12412.0
15396.585156352481,11484.0
15396.585218849694,10254.0
15396.585281346905,9222.0
15396.585343844117,8547.0
15396.58540634133,8144.0
15396.585468838543,8207.0
15396.585531335755,8994.0
15396.585593832968,10315.0
15396.58565633018,11460.0
15396.585718827393,11938.0
15396.585781324606,11372.0
15396.585843821818,10008.0
15396.58590631903,8379.0
15396.585968816242,7121.0
15396.586031313454,6515.0
15396.586093810667,6244.0
15396.58615630788,5976.0
15396.586218805092,5551.0
15396.586281302305,5041.0
15396.586343799518,4442.0
15396.58640629673,3770.0
15396.586468793943,3122.0
15396.586531291156,2550.0
15396.586593788368,2038.0
15396.586656285579,1725.0
15396.586718782792,1615.0
15396.586781280004,1428.0
15396.586843777217,714.0
15396.58690627443,-752.0
15396.586968771642,-2822.0
15396.587031268855,-5231.0
15396.587093766067,-7877.0
15396.58715626328,-10855.0
15396.587218760491,-14080.0
15396.587281257704,-17073.0
15396.587343754916,-19398.0
15396.587406252129,-20759.0
15396.587468749341,-21059.0
15396.587531246554,-20977.0
15396.587593743767,-21671.0
15396.58765624098,-23590.0
15396.587718738192,-27792.0
15396.587781235405,-32320.0
15396.587843732617,-32768.0
15396.58790622983,-32763.0
15396.587968727043,-32559.0
15396.588031224253,-25306.0
15396.588093721466,-14221.0
15396.588156218679,-4477.0
15396.588218715891,3613.0
15396.588281213104,8815.0
15396.588343710317,11105.0
15396.58840620753,10965.0
15396.588468704742,8894.0
15396.588531201955,5631.0
15396.588593699165,2736.0
15396.588656196378,1674.0
15396.58871869359,2730.0
15396.588781190803,4226.0
15396.588843688016,4500.0
15396.588906185229,3224.0
15396.588968682441,1216.0
15396.589031179654,-828.0
15396.589093676866,-1927.0
15396.58915617408,-1113.0
15396.589218671292,978.0
15396.589281168504,3291.0
15396.589343665717,5852.0
15396.589406162928,8573.0
15396.58946866014,10837.0
15396.589531157353,11792.0
15396.589593654566,11327.0
15396.589656151778,9800.0
15396.589718648991,8035.0
15396.589781146204,6794.0
15396.589843643416,6930.0
15396.589906140629,8395.0
15396.58996863784,10225.0
15396.590031135052,11335.0
15396.590093632265,11581.0
15396.590156129478,11351.0
15396.59021862669,10742.0
15396.590281123903,9842.0
15396.590343621116,9144.0
15396.590406118328,8787.0
15396.59046861554,8699.0
15396.590531112754,8987.0
15396.590593609966,9775.0
15396.590656107179,10743.0
15396.590718604391,11326.0
15396.590781101602,11125.0
15396.590843598815,10301.0
15396.590906096028,9016.0
15396.59096859324,7610.0
15396.591031090453,6471.0
15396.591093587665,5745.0
15396.591156084878,5368.0
15396.59121858209,5079.0
15396.591281079303,4765.0
15396.591343576514,4471.0
15396.591406073727,4142.0
15396.59146857094,3638.0
15396.591531068152,3028.0
15396.591593565365,2391.0
15396.591656062577,1744.0
15396.59171855979,1111.0
15396.591781057003,442.0
15396.591843554215,-293.0
15396.591906051428,-1430.0
15396.59196854864,-3238.0
15396.592031045853,-5506.0
15396.592093543064,-8118.0
15396.592156040277,-11178.0
15396.59221853749,-14307.0
15396.592281034702,-17036.0
15396.592343531915,-19230.0
15396.592406029127,-20401.0
15396.59246852634,-20455.0
15396.592531023553,-20122.0
15396.592593520765,-20615.0
15396.592656017978,-22352.0
15396.592718515189,-26547.0
15396.592781012401,-31873.0
15396.592843509614,-32768.0
15396.592906006827,-32744.0
15396.59296850404,-32620.0
15396.593031001252,-25469.0
15396.593093498464,-14718.0
15396.593155995677,-4751.0
15396.59321849289,3610.0
15396.593280990102,8737.0
15396.593343487315,10531.0
15396.593405984528,10428.0
15396.593468481738,8726.0
15396.593530978951,5561.0
15396.593593476164,2741.0
15396.593655973376,1999.0
15396.593718470589,2997.0
15396.593780967802,3980.0
15396.593843465014,4108.0
15396.593905962227,3321.0
15396.59396845944,1517.0
15396.594030956652,-368.0
15396.594093453863,-1465.0
15396.594155951076,-633.0
15396.594218448288,1142.0
15396.594280945501,3333.0
15396.594343442714,5470.0
15396.594405939926,8079.0
15396.594468437139,10162.0
15396.594530934351,11185.0
15396.594593431564,10959.0
15396.594655928777,9843.0
15396.59471842599,8173.0
15396.594780923202,6912.0
15396.594843420413,6890.0
15396.594905917626,8075.0
15396.594968414838,9689.0
15396.59503091205,11011.0
15396.595093409263,11563.0
15396.595155906476,11471.0
15396.595218403689,11016.0
15396.595280900901,10442.0
15396.595343398114,9817.0
15396.595405895327,9303.0
15396.595468392537,9081.0
15396.59553088975,9387.0
15396.595593386963,10339.0
15396.595655884175,11246.0
15396.595718381388,11572.0
15396.5957808786,11133.0
15396.595843375813,10162.0
15396.595905873026,8745.0
15396.595968370239,7484.0
15396.596030867451,6647.0
15396.596093364664,6147.0
15396.596155861876,5741.0
15396.596218359087,5454.0
15396.5962808563,5183.0
15396.596343353513,4799.0
15396.596405850725,4155.0
15396.596468347938,3509.0
15396.59653084515,2978.0
15396.596593342363,2595.0
15396.596655839576,2226.0
15396.596718336788,1880.0
15396.596780834001,1369.0
15396.596843331212,530.0
15396.596905828424,-976.0
15396.596968325637,-3058.0
15396.59703082285,-5570.0
15396.597093320062,-8571.0
15396.597155817275,-12165.0
15396.597218314488,-15815.0
15396.5972808117,-18994.0
15396.597343308913,-21141.0
15396.597405806126,-22024.0
15396.597468303338,-21826.0
15396.59753080055,-21388.0
15396.597593297762,-21996.0
15396.597655794974,-24056.0
15396.597718292187,-28596.0
15396.5977807894,-32665.0
15396.597843286612,-32668.0
15396.597905783825,-32768.0
15396.597968281038,-31785.0
15396.59803077825,-22699.0
15396.598093275463,-11026.0
15396.598155772674,-1422.0
15396.598218269886,5719.0
15396.598280767099,9472.0
15396.598343264312,10540.0
15396.598405761524,9792.0
15396.598468258737,7529.0
15396.59853075595,4525.0
15396.598593253162,2212.0
15396.598655750375,1975.0
15396.598718247587,3290.0
15396.5987807448,4634.0
15396.598843242013,4831.0
15396.598905739225,3454.0
15396.598968236436,881.0
15396.599030733649,-1540.0
15396.599093230861,-2576.0
15396.599155728074,-1721.0
15396.599218225287,533.0
15396.5992807225,3501.0
15396.599343219712,6603.0
15396.599405716925,9467.0
15396.599468214137,11483.0
15396.599530711348,12144.0
15396.59959320856,11262.0
15396.599655705773,9584.0
15396.599718202986,7762.0
15396.599780700199,6705.0
15396.599843197411,7011.0
15396.599905694624,8575.0
15396.599968191837,10515.0
15396.60003068905,12039.0
15396.600093186262,12679.0
15396.600155683474,12511.0
15396.600218180687,11688.0
15396.6002806779,10682.0
15396.60034317511,9972.0
15396.600405672323,9759.0
15396.600468169536,10008.0
15396.600530666748,10590.0
15396.600593163961,11262.0
15396.600655661174,11845.0
15396.600718158386,11832.0
15396.600780655599,11104.0
15396.600843152812,10044.0
15396.600905650022,8826.0
15396.600968147235,7749.0
15396.601030644448,7015.0
15396.60109314166,6727.0
15396.601155638873,6638.0
15396.601218136086,6436.0
15396.601280633298,5900.0
15396.601343130511,5031.0
15396.601405627724,3948.0
15396.601468124936,2890.0
15396.601530622149,2035.0
15396.601593119361,1490.0
15396.601655616574,1304.0
15396.601718113785,1194.0
15396.601780610998,900.0
15396.60184310821,124.0
15396.601905605423,-1365.0
15396.601968102636,-3490.0
15396.602030599848,-6200.0
15396.60209309706,-9476.0
15396.602155594273,-13089.0
15396.602218091486,-16231.0
15396.602280588697,-18492.0
15396.60234308591,-19865.0
15396.602405583122,-20395.0
15396.602468080335,-20322.0
15396.602530577547,-20820.0
15396.60259307476,-22575.0
15396.602655571973,-25495.0
15396.602718069185,-29976.0
15396.602780566398,-32768.0
15396.60284306361,-32638.0
15396.602905560823,-32768.0
15396.602968058036,-30781.0
15396.603030555247,-22590.0
15396.60309305246,-12770.0
15396.603155549672,-3491.0
15396.603218046885,4514.0
15396.603280544097,9725.0
15396.60334304131,12337.0
15396.603405538523,12288.0
15396.603468035735,10985.0
15396.603530532948,10104.0
15396.60359303016,9933.0
15396.603655527371,9508.0
15396.603718024584,8496.0
15396.603780521797,6505.0
15396.60384301901,3210.0
15396.603905516222,-425.0
15396.603968013434,-2926.0
15396.604030510647,-4098.0
15396.60409300786,-4079.0
15396.604155505072,-2430.0
15396.604218002285,833.0
15396.604280499498,4377.0
15396.60434299671,7740.0
15396.604405493921,10130.0
15396.604467991134,11253.0
15396.604530488346,10938.0
15396.604592985559,9883.0
15396.604655482772,8678.0
15396.604717979984,8013.0
15396.604780477197,7820.0
15396.60484297441,7953.0
15396.604905471622,8461.0
15396.604967968835,9285.0
15396.605030466046,9847.0
15396.605092963258,9811.0
15396.605155460471,9558.0
15396.605217957684,9069.0
15396.605280454896,8416.0
15396.605342952109,8035.0
15396.605405449322,8081.0
15396.605467946534,8516.0
15396.605530443747,9122.0
15396.60559294096,9671.0
15396.605655438172,10032.0
15396.605717935385,9980.0
15396.605780432596,9483.0
15396.605842929808,8826.0
15396.60590542702,8241.0
15396.605967924233,7579.0
15396.606030421446,6838.0
15396.606092918659,6122.0
15396.606155415871,5509.0
15396.606217913084,4829.0
15396.606280410297,4113.0
15396.60634290751,3349.0
15396.60640540472,2599.0
15396.606467901933,1883.0
15396.606530399145,1418.0
15396.606592896358,1171.0
15396.60665539357,1335.0
15396.606717890783,1531.0
15396.606780387996,1610.0
15396.606842885209,1484.0
15396.606905382421,869.0
15396.606967879634,-375.0
15396.607030376847,-2155.0
15396.60709287406,-4523.0
15396.60715537127,-7568.0
15396.607217868483,-11258.0
15396.607280365695,-15231.0
15396.607342862908,-18708.0
15396.60740536012,-20985.0
15396.607467857333,-21920.0
15396.607530354546,-21660.0
15396.607592851758,-20965.0
15396.607655348971,-21104.0
15396.607717846184,-22835.0
15396.607780343395,-26471.0
15396.607842840607,-31157.0
15396.60790533782,-32768.0
15396.607967835032,-32768.0
15396.608030332245,-29684.0
15396.608092829458,-20549.0
15396.60815532667,-10180.0
15396.608217823883,-559.0
15396.608280321096,6312.0
15396.608342818308,9393.0
15396.608405315521,9716.0
15396.608467812734,7909.0
15396.608530309944,4392.0
15396.608592807157,534.0
15396.60865530437,-1834.0
15396.608717801582,-1972.0
15396.608780298795,-26.0
15396.608842796008,2670.0
15396.60890529322,4374.0
15396.608967790433,4406.0
15396.609030287646,3165.0
15396.609092784858,1382.0
15396.609155282069,210.0
15396.609217779282,359.0
15396.609280276494,1600.0
15396.609342773707,3529.0
15396.60940527092,5968.0
15396.609467768132,8436.0
15396.609530265345,10326.0
15396.609592762557,11248.0
15396.60965525977,10824.0
15396.609717756983,9321.0
15396.609780254195,7554.0
15396.609842751408,6522.0
15396.609905248619,6654.0
15396.609967745831,8079.0
15396.610030243044,10068.0
15396.610092740257,11907.0
15396.61015523747,13126.0
15396.610217734682,13394.0
15396.610280231895,12838.0
15396.610342729107,11854.0
15396.61040522632,10757.0
15396.61046772353,9727.0
15396.610530220743,9188.0
15396.610592717956,9344.0
15396.610655215169,10079.0
15396.610717712381,11034.0
15396.610780209594,11606.0
15396.610842706807,11566.0
15396.61090520402,10662.0
15396.610967701232,9364.0
15396.611030198444,8064.0
15396.611092695657,7077.0
15396.61115519287,6396.0
15396.611217690082,5844.0
15396.611280187293,5326.0
15396.611342684506,4904.0
15396.611405181719,4464.0
15396.611467678931,3972.0
15396.611530176144,3486.0
15396.611592673356,2820.0
15396.611655170569,2150.0
15396.611717667782,1616.0
15396.611780164994,1199.0
15396.611842662205,837.0
15396.611905159418,9.0
15396.61196765663,-1528.0
15396.612030153843,-3802.0
15396.612092651056,-6646.0
15396.612155148268,-10204.0
15396.612217645481,-14229.0
15396.612280142694,-17890.0
15396.612342639906,-20804.0
15396.612405137119,-22514.0
15396.612467634332,-22778.0
15396.612530131544,-22164.0
15396.612592628757,-21900.0
15396.612655125968,-22926.0
15396.61271762318,-26606.0
15396.612780120393,-31593.0
15396.612842617606,-32768.0
15396.612905114818,-32768.0
15396.61296761203,-30677.0
15396.613030109243,-21892.0
15396.613092606456,-11195.0
15396.613155103669,-1552.0
15396.61321760088,5114.0
15396.613280098092,8387.0
15396.613342595305,9428.0
15396.613405092517,8430.0
15396.61346758973,5144.0
15396.613530086943,1235.0
15396.613592584155,-1175.0
15396.613655081368,-1576.0
15396.61371757858,-13.0
15396.613780075793,2327.0
15396.613842573006,4068.0
15396.613905070219,4007.0
15396.61396756743,2638.0
15396.614030064642,865.0
15396.614092561855,116.0
15396.614155059067,672.0
15396.61421755628,2056.0
15396.614280053493,3934.0
15396.614342550705,6196.0
15396.614405047918,8453.0
15396.61446754513,10107.0
15396.614530042343,10897.0
15396.614592539554,10442.0
15396.614655036767,8812.0
15396.61471753398,6838.0
15396.614780031192,5567.0
15396.614842528405,5840.0
15396.614905025617,7322.0
15396.61496752283,9526.0
15396.615030020042,11622.0
15396.615092517255,12794.0
15396.615155014468,12935.0
15396.61521751168,12304.0
15396.615280008893,11375.0
15396.615342506104,10351.0
15396.615405003316,9443.0
15396.61546750053,9044.0
15396.615529997742,9519.0
15396.615592494954,10547.0
15396.615654992167,11632.0
15396.61571748938,12210.0
15396.615779986592,11968.0
15396.615842483805,10778.0
15396.615904981018,8983.0
15396.615967478228,7167.0
15396.616029975441,5670.0
15396.616092472654,4578.0
15396.616154969866,3960.0
15396.616217467079,3770.0
15396.616279964292,3865.0
15396.616342461504,3951.0
15396.616404958717,3865.0
15396.61646745593,3534.0
15396.616529953142,2897.0
15396.616592450355,2075.0
15396.616654947567,1424.0
15396.616717444778,936.0
15396.61677994199,386.0
15396.616842439204,-508.0
15396.616904936416,-1932.0
15396.616967433629,-3935.0
15396.617029930841,-6456.0
15396.617092428054,-9600.0
15396.617154925267,-13187.0
15396.61721742248,-16881.0
15396.617279919692,-19995.0
15396.617342416903,-21775.0
15396.617404914115,-22166.0
15396.617467411328,-21575.0
15396.61752990854,-21256.0
15396.617592405753,-22193.0
15396.617654902966,-25405.0
15396.617717400179,-30850.0
15396.617779897391,-32768.0
15396.617842394604,-32708.0
15396.617904891817,-32768.0
15396.61796738903,-26317.0
15396.618029886242,-15016.0
15396.618092383453,-4680.0
15396.618154880665,3579.0
15396.618217377878,8407.0
15396.61827987509,10014.0
15396.618342372303,9392.0
15396.618404869516,6581.0
15396.618467366729,2390.0
15396.618529863941,-1246.0
15396.618592361154,-2711.0
15396.618654858366,-1633.0
15396.618717355577,871.0
15396.61877985279,2886.0
15396.618842350003,3363.0
15396.618904847215,2296.0
15396.618967344428,566.0
15396.61902984164,-602.0
15396.619092338853,-343.0
15396.619154836066,1018.0
15396.619217333278,2784.0
15396.619279830491,4761.0
15396.619342327704,6993.0
15396.619404824916,9027.0
15396.619467322127,10298.0
15396.61952981934,10316.0
15396.619592316552,9134.0
15396.619654813765,7377.0
15396.619717310978,6102.0
15396.61977980819,6046.0
15396.619842305403,7287.0
15396.619904802616,9029.0
15396.619967299828,10634.0
15396.62002979704,11595.0
15396.620092294252,11837.0
15396.620154791464,11580.0
15396.620217288677,10940.0
15396.62027978589,10021.0
15396.620342283102,9238.0
15396.620404780315,8793.0
15396.620467277527,8967.0
15396.62052977474,9687.0
15396.620592271953,10709.0
15396.620654769165,11440.0
15396.620717266378,11524.0
15396.62077976359,10725.0
15396.620842260802,9333.0
15396.620904758014,7915.0
15396.620967255227,6677.0
15396.62102975244,5597.0
15396.621092249652,4641.0
15396.621154746865,3997.0
15396.621217244077,3714.0
15396.62127974129,3315.0
15396.621342238503,3069.0
15396.621404735713,2907.0
15396.621467232926,2461.0
15396.621529730139,1942.0
15396.621592227351,1581.0
15396.621654724564,1502.0
15396.621717221777,1266.0
15396.62177971899,633.0
15396.621842216202,-596.0
15396.621904713415,-2547.0
15396.621967210627,-4944.0
15396.62202970784,-7634.0
15396.622092205052,-10902.0
15396.622154702265,-14557.0
15396.622217199476,-18210.0
15396.622279696689,-21272.0
15396.622342193901,-23010.0
15396.622404691114,-23362.0
15396.622467188326,-22811.0
15396.62252968554,-22724.0
15396.622592182752,-23875.0
15396.622654679964,-27512.0
15396.622717177177,-32039.0
15396.622779674388,-32768.0
15396.6228421716,-32768.0
15396.622904668813,-30251.0
15396.622967166026,-21307.0
15396.623029663238,-10776.0
15396.623092160451,-1110.0
15396.623154657664,6177.0
15396.623217154876,9943.0
15396.623279652089,10732.0
15396.623342149302,8943.0
15396.623404646514,4926.0
15396.623467143727,324.0
15396.62352964094,-2820.0
15396.62359213815,-3130.0
15396.623654635363,-1010.0
15396.623717132576,1684.0
15396.623779629788,3478.0
15396.623842127,3772.0
15396.623904624214,2733.0
15396.623967121426,952.0
15396.624029618639,-29.0
15396.624092115851,91.0
15396.624154613062,987.0
15396.624217110275,2280.0
15396.624279607488,4576.0
15396.6243421047,7401.0
15396.624404601913,9712.0
15396.624467099125,10719.0
15396.624529596338,10353.0
15396.62459209355,8795.0
15396.624654590763,6908.0
15396.624717087976,5760.0
15396.624779585189,6126.0
15396.624842082401,7650.0
15396.624904579612,9501.0
15396.624967076825,10983.0
15396.625029574037,11936.0
15396.62509207125,12229.0
15396.625154568463,11985.0
15396.625217065675,11330.0
15396.625279562888,10383.0
15396.6253420601,9222.0
15396.625404557313,8357.0
15396.625467054526,8344.0
15396.625529551737,9277.0
15396.62559204895,10452.0
15396.625654546162,11184.0
15396.625717043375,10966.0
15396.625779540587,9889.0
15396.6258420378,8397.0
15396.625904535013,6929.0
15396.625967032225,5781.0
15396.626029529438,4864.0
15396.62609202665,4161.0
15396.626154523863,3712.0
15396.626217021076,3577.0
15396.626279518287,3659.0
15396.6263420155,3616.0
15396.626404512712,3248.0
15396.626467009924,2575.0
15396.626529507137,1749.0
15396.62659200435,1005.0
15396.626654501562,583.0
15396.626716998775,338.0
15396.626779495988,-270.0
15396.6268419932,-1548.0
15396.626904490411,-3465.0
15396.626966987624,-5810.0
15396.627029484836,-8682.0
15396.627091982049,-11966.0
15396.627154479262,-15312.0
15396.627216976474,-18371.0
15396.627279473687,-20801.0
15396.6273419709,-21884.0
15396.627404468112,-21627.0
15396.627466965325,-21076.0
15396.627529462537,-21755.0
15396.62759195975,-24277.0
15396.627654456961,-29432.0
15396.627716954174,-32768.0
15396.627779451386,-32695.0
15396.627841948599,-32768.0
15396.627904445812,-28064.0
15396.627966943024,-17454.0
15396.628029440237,-7014.0
15396.62809193745,1811.0
15396.628154434662,7559.0
15396.628216931875,9828.0
15396.628279429086,9411.0
15396.628341926298,6850.0
15396.62840442351,2478.0
15396.628466920723,-1762.0
15396.628529417936,-3599.0
15396.628591915149,-2353.0
15396.628654412361,610.0
15396.628716909574,3321.0
15396.628779406787,4506.0
15396.628841904,3757.0
15396.628904401212,1751.0
15396.628966898425,-147.0
15396.629029395635,-743.0
15396.629091892848,-190.0
15396.62915439006,1213.0
15396.629216887273,3245.0
15396.629279384486,6009.0
15396.629341881699,8862.0
15396.629404378911,10912.0
15396.629466876124,11385.0
15396.629529373336,10249.0
15396.62959187055,8057.0
15396.62965436776,6030.0
15396.629716864973,5243.0
15396.629779362185,6097.0
15396.629841859398,7992.0
15396.62990435661,10115.0
15396.629966853823,11668.0
15396.630029351036,12408.0
15396.630091848248,12109.0
15396.630154345461,11104.0
15396.630216842674,9705.0
15396.630279339886,8449.0
15396.630341837099,7673.0
15396.63040433431,7764.0
15396.630466831522,8771.0
15396.630529328735,10305.0
15396.630591825948,11732.0
15396.63065432316,12413.0
15396.630716820373,11923.0
15396.630779317586,10300.0
15396.630841814798,8265.0
15396.63090431201,6458.0
15396.630966809224,5229.0
15396.631029306434,4494.0
15396.631091803647,4120.0
15396.63115430086,4078.0
15396.631216798072,4003.0
15396.631279295285,3851.0
15396.631341792498,3477.0
15396.63140428971,2961.0
15396.631466786923,2260.0
15396.631529284135,1575.0
15396.631591781348,1043.0
15396.63165427856,914.0
15396.631716775773,874.0
15396.631779272984,287.0
15396.631841770197,-1028.0
15396.63190426741,-3192.0
15396.631966764622,-6050.0
15396.632029261835,-9529.0
15396.632091759047,-13315.0
15396.63215425626,-16962.0
15396.632216753473,-19877.0
15396.632279250685,-21749.0
15396.632341747896,-22252.0
15396.632404245109,-21578.0
15396.632466742321,-20929.0
15396.632529239534,-21586.0
15396.632591736747,-24252.0
15396.63265423396,-29443.0
15396.632716731172,-32737.0
15396.632779228385,-32768.0
15396.632841725597,-32441.0
15396.63290422281,-26185.0
15396.632966720023,-15418.0
15396.633029217235,-5030.0
15396.633091714448,3239.0
15396.633154211659,8026.0
15396.633216708871,9786.0
15396.633279206084,8985.0
15396.633341703297,5931.0
15396.63340420051,1553.0
15396.633466697722,-2092.0
15396.633529194934,-3440.0
15396.633591692147,-2205.0
15396.63365418936,603.0
15396.63371668657,3249.0
15396.633779183783,4353.0
15396.633841680996,3565.0
15396.633904178208,1796.0
15396.633966675421,265.0
15396.634029172634,-36.0
15396.634091669846,636.0
15396.634154167059,2004.0
15396.634216664272,3927.0
15396.634279161484,6488.0
15396.634341658697,8986.0
15396.63440415591,10644.0
15396.634466653122,10871.0
15396.634529150333,9625.0
15396.634591647546,7469.0
15396.634654144758,5680.0
15396.634716641971,5256.0
15396.634779139184,6285.0
15396.634841636396,8220.0
15396.634904133609,10328.0
15396.634966630822,11763.0
15396.635029128034,12512.0
15396.635091625245,12409.0
15396.635154122458,11769.0
15396.63521661967,10605.0
15396.635279116883,9326.0
15396.635341614096,8308.0
15396.635404111308,8064.0
15396.63546660852,8690.0
15396.635529105733,9973.0
15396.635591602946,11055.0
15396.635654100159,11340.0
15396.635716597371,10627.0
15396.635779094584,9130.0
15396.635841591795,7517.0
15396.635904089007,6218.0
15396.63596658622,5279.0
15396.636029083433,4679.0
15396.636091580645,4335.0
15396.636154077858,4228.0
15396.63621657507,4122.0
15396.636279072283,3993.0
15396.636341569496,3540.0
15396.636404066709,2717.0
15396.63646656392,1780.0
15396.636529061132,1080.0
15396.636591558345,716.0
15396.636654055557,681.0
15396.63671655277,359.0
15396.636779049983,-667.0
15396.636841547195,-2346.0
15396.636904044408,-4572.0
15396.63696654162,-7307.0
15396.637029038833,-10564.0
15396.637091536046,-14127.0
15396.637154033258,-17605.0
15396.63721653047,-20547.0
15396.637279027682,-22312.0
15396.637341524895,-22640.0
15396.637404022107,-21983.0
15396.63746651932,-21775.0
15396.637529016532,-22949.0
15396.637591513745,-27166.0
15396.637654010958,-32065.0
15396.63771650817,-32768.0
15396.637779005383,-32768.0
15396.637841502594,-29188.0
15396.637903999806,-19359.0
15396.637966497019,-8811.0
15396.638028994232,421.0
15396.638091491444,7110.0
15396.638153988657,10209.0
15396.63821648587,10341.0
15396.638278983082,8003.0
15396.638341480295,3668.0
15396.638403977508,-1126.0
15396.63846647472,-4184.0
15396.638528971933,-4048.0
15396.638591469144,-1573.0
15396.638653966356,1469.0
15396.638716463569,3601.0
15396.638778960782,4136.0
15396.638841457994,3155.0
15396.638903955207,1666.0
15396.63896645242,939.0
15396.639028949632,1085.0
15396.639091446845,1816.0
15396.639153944057,3088.0
15396.639216441268,5194.0
15396.63927893848,7734.0
15396.639341435693,9865.0
15396.639403932906,10637.0
15396.639466430119,9991.0
15396.639528927331,8214.0
15396.639591424544,6134.0
15396.639653921757,5071.0
15396.63971641897,5689.0
15396.639778916182,7206.0
15396.639841413395,9069.0
15396.639903910607,10844.0
15396.639966407818,12051.0
15396.64002890503,12305.0
15396.640091402243,11756.0
15396.640153899456,10572.0
15396.640216396669,9174.0
15396.640278893881,8125.0
15396.640341391094,7964.0
15396.640403888307,8535.0
15396.64046638552,9599.0
15396.640528882732,10455.0
15396.640591379943,10650.0
15396.640653877155,10286.0
15396.640716374368,9467.0
15396.64077887158,8278.0
15396.640841368793,7179.0
15396.640903866006,6320.0
15396.640966363218,5693.0
15396.641028860431,5205.0
15396.641091357644,4956.0
15396.641153854856,4725.0
15396.641216352069,4247.0
15396.641278849282,3503.0
15396.641341346492,2708.0
15396.641403843705,2066.0
15396.641466340918,1749.0
15396.64152883813,1699.0
15396.641591335343,1689.0
15396.641653832556,1396.0
15396.641716329768,439.0
15396.641778826981,-1209.0
15396.641841324194,-3236.0
15396.641903821406,-5583.0
15396.641966318617,-8226.0
15396.64202881583,-11121.0
15396.642091313042,-14227.0
15396.642153810255,-17284.0
15396.642216307468,-19983.0
15396.64227880468,-21521.0
15396.642341301893,-21839.0
15396.642403799106,-21824.0
15396.642466296318,-22441.0
15396.64252879353,-24288.0
15396.642591290743,-28650.0
15396.642653787956,-32366.0
15396.642716285167,-32768.0
15396.64277878238,-32227.0
15396.642841279592,-25989.0
15396.642903776805,-15890.0
15396.642966274017,-5940.0
15396.64302877123,2707.0
15396.643091268443,8123.0
15396.643153765655,10338.0
15396.643216262868,10067.0
15396.643278760079,7546.0
15396.643341257291,3073.0
15396.643403754504,-1311.0
15396.643466251717,-3646.0
15396.64352874893,-3183.0
15396.643591246142,-923.0
15396.643653743355,1718.0
15396.643716240567,3307.0
15396.64377873778,3216.0
15396.643841234993,1996.0
15396.643903732205,745.0
15396.643966229418,443.0
15396.64402872663,949.0
15396.644091223841,1989.0
15396.644153721054,3564.0
15396.644216218267,5809.0
15396.64427871548,8249.0
15396.644341212692,10039.0
15396.644403709905,10693.0
15396.644466207117,9920.0
15396.64452870433,8127.0
15396.644591201542,6275.0
15396.644653698753,5468.0
15396.644716195966,6043.0
15396.644778693179,7448.0
15396.644841190391,9187.0
15396.644903687604,10707.0
15396.644966184816,11702.0
15396.645028682029,11989.0
15396.645091179242,11606.0
15396.645153676454,10771.0
15396.645216173667,9684.0
15396.64527867088,8503.0
15396.645341168092,7812.0
15396.645403665305,7957.0
15396.645466162516,8745.0
15396.645528659728,9685.0
15396.645591156941,10307.0
15396.645653654154,10402.0
15396.645716151366,9732.0
15396.645778648579,8545.0
15396.645841145792,7286.0
15396.645903643004,6119.0
15396.645966140217,5073.0
15396.646028637428,4323.0
15396.64609113464,3974.0
15396.646153631853,3815.0
15396.646216129066,3780.0
15396.646278626278,3675.0
15396.64634112349,3425.0
15396.646403620703,2860.0
15396.646466117916,2271.0
15396.646528615129,1783.0
15396.646591112341,1351.0
15396.646653609554,810.0
15396.646716106767,-154.0
15396.64677860398,-1676.0
15396.64684110119,-3583.0
15396.646903598403,-5829.0
15396.646966095615,-8540.0
15396.647028592828,-11672.0
15396.64709109004,-14966.0
15396.647153587253,-18120.0
15396.647216084466,-20655.0
15396.647278581679,-22028.0
15396.647341078891,-22250.0
15396.647403576102,-22288.0
15396.647466073315,-23148.0
15396.647528570527,-25835.0
15396.64759106774,-30543.0
15396.647653564953,-32768.0
15396.647716062165,-32768.0
15396.647778559378,-30087.0
15396.64784105659,-21246.0
15396.647903553803,-11195.0
15396.647966051016,-2046.0
15396.648028548228,4771.0
15396.648091045441,8448.0
15396.648153542652,9662.0
15396.648216039865,8864.0
15396.648278537077,5604.0
15396.64834103429,920.0
15396.648403531502,-2831.0
15396.648466028715,-4103.0
15396.648528525928,-2684.0
15396.64859102314,6.0
15396.648653520353,2547.0
15396.648716017566,3574.0
15396.648778514776,3058.0
15396.64884101199,1907.0
15396.648903509202,1313.0
15396.648966006414,1581.0
15396.649028503627,2208.0
15396.64909100084,3016.0
15396.649153498052,4376.0
15396.649215995265,6465.0
15396.649278492478,8554.0
15396.64934098969,10029.0
15396.649403486903,10336.0
15396.649465984116,9378.0
15396.649528481326,7538.0
15396.649590978539,6008.0
15396.649653475752,5846.0
15396.649715972964,6861.0
15396.649778470177,8325.0
15396.64984096739,9813.0
15396.649903464602,10948.0
15396.649965961815,11558.0
15396.650028459027,11543.0
15396.65009095624,11083.0
15396.650153453451,10168.0
15396.650215950664,9011.0
15396.650278447876,8013.0
15396.650340945089,7704.0
15396.650403442301,8256.0
15396.650465939514,9178.0
15396.650528436727,9988.0
15396.65059093394,10380.0
15396.650653431152,10188.0
15396.650715928365,9358.0
15396.650778425577,8104.0
15396.65084092279,6924.0
15396.65090342,5838.0
15396.650965917213,4930.0
15396.651028414426,4276.0
15396.651090911639,3999.0
15396.651153408851,3874.0
15396.651215906064,3761.0
15396.651278403277,3548.0
15396.65134090049,3293.0
15396.651403397702,2948.0
15396.651465894915,2505.0
15396.651528392125,2097.0
15396.651590889338,1595.0
15396.65165338655,880.0
15396.651715883763,-226.0
15396.651778380976,-1767.0
15396.651840878189,-3688.0
15396.651903375401,-5961.0
15396.651965872614,-8724.0
15396.652028369826,-11990.0
15396.652090867039,-15432.0
15396.652153364252,-18585.0
15396.652215861464,-20963.0
15396.652278358675,-22123.0
15396.652340855888,-22018.0
15396.6524033531,-21638.0
15396.652465850313,-22174.0
15396.652528347526,-24191.0
15396.652590844738,-28501.0
15396.652653341951,-32373.0
15396.652715839164,-32768.0
15396.652778336376,-29416.0
15396.652840833589,-21604.0
15396.6529033308,-12402.0
15396.652965828012,-3408.0
15396.653028325225,3973.0
15396.653090822438,8619.0
15396.65315331965,10320.0
15396.653215816863,9440.0
15396.653278314076,6315.0
15396.653340811288,1716.0
15396.6534033085,-2401.0
15396.653465805713,-4128.0
15396.653528302926,-3161.0
15396.653590800139,-914.0
15396.65365329735,1476.0
15396.653715794562,2960.0
15396.653778291775,3148.0
15396.653840788988,2415.0
15396.6539032862,1703.0
15396.653965783413,1548.0
15396.654028280625,1923.0
15396.654090777838,2605.0
15396.65415327505,3827.0
15396.654215772262,5920.0
15396.654278269474,8284.0
15396.654340766687,9990.0
15396.6544032639,10483.0
15396.654465761112,9781.0
15396.654528258325,8219.0
15396.654590755537,6542.0
15396.65465325275,5840.0
15396.654715749963,6290.0
15396.654778247175,7384.0
15396.654840744388,8862.0
15396.6549032416,10345.0
15396.654965738813,11451.0
15396.655028236024,11775.0
15396.655090733237,11410.0
15396.65515323045,10495.0
15396.655215727662,9277.0
15396.655278224875,8245.0
15396.655340722087,7873.0
15396.6554032193,8164.0
15396.655465716512,8851.0
15396.655528213725,9597.0
15396.655590710936,10027.0
15396.655653208149,10026.0
15396.655715705361,9471.0
15396.655778202574,8296.0
15396.655840699786,6977.0
15396.655903197,5773.0
15396.655965694212,4904.0
15396.656028191424,4517.0
15396.656090688637,4513.0
15396.65615318585,4536.0
15396.656215683062,4375.0
15396.656278180275,4018.0
15396.656340677488,3634.0
15396.656403174698,3105.0
15396.656465671911,2464.0
15396.656528169124,1798.0
15396.656590666336,1043.0
15396.656653163549,178.0
15396.656715660762,-932.0
15396.656778157974,-2364.0
15396.656840655187,-3914.0
15396.6569031524,-6009.0
15396.65696564961,-8964.0
15396.657028146823,-12576.0
15396.657090644036,-16227.0
15396.657153141248,-19243.0
15396.657215638461,-21154.0
15396.657278135674,-21751.0
15396.657340632886,-21431.0
15396.657403130099,-21738.0
15396.657465627311,-23438.0
15396.657528124524,-27417.0
15396.657590621737,-31770.0
15396.65765311895,-32768.0
15396.657715616162,-32274.0
15396.657778113373,-26952.0
15396.657840610585,-17613.0
15396.657903107798,-7594.0
15396.65796560501,1580.0
15396.658028102223,7871.0
15396.658090599436,10906.0
15396.658153096649,11035.0
15396.658215593861,8419.0
15396.658278091074,3658.0
15396.658340588285,-1212.0
15396.658403085497,-4118.0
15396.65846558271,-4212.0
15396.658528079923,-2107.0
15396.658590577135,644.0
15396.658653074348,2730.0
15396.65871557156,3494.0
15396.658778068773,3058.0
15396.658840565986,2126.0
15396.658903063199,1640.0
15396.658965560411,1826.0
15396.659028057624,2268.0
15396.659090554835,3134.0
15396.659153052047,5082.0
15396.65921554926,7560.0
15396.659278046473,9524.0
15396.659340543685,10438.0
15396.659403040898,10033.0
15396.65946553811,8422.0
15396.659528035323,6503.0
15396.659590532536,5339.0
15396.659653029748,5599.0
15396.65971552696,6818.0
15396.659778024172,8473.0
15396.659840521384,10107.0
15396.659903018597,11439.0
15396.65996551581,11885.0
15396.660028013022,11496.0
15396.660090510235,10535.0
15396.660153007448,9417.0
15396.66021550466,8378.0
15396.660278001873,7960.0
15396.660340499086,8382.0
15396.660402996298,9287.0
15396.660465493509,10156.0
15396.660527990722,10751.0
15396.660590487934,10761.0
15396.660652985147,10097.0
15396.66071548236,8915.0
15396.660777979572,7475.0
15396.660840476785,6158.0
15396.660902973998,5126.0
15396.66096547121,4455.0
15396.661027968423,4395.0
15396.661090465634,4549.0
15396.661152962846,4560.0
15396.661215460059,4265.0
15396.661277957272,3767.0
15396.661340454484,3100.0
15396.661402951697,2344.0
15396.66146544891,1660.0
15396.661527946122,1205.0
15396.661590443335,682.0
15396.661652940547,-22.0
15396.66171543776,-1058.0
15396.661777934973,-2535.0
15396.661840432183,-4420.0
15396.661902929396,-6961.0
15396.661965426609,-10248.0
15396.662027923821,-13952.0
15396.662090421034,-17619.0
15396.662152918247,-20678.0
15396.66221541546,-22384.0
15396.662277912672,-22597.0
15396.662340409885,-21934.0
15396.662402907097,-21798.0
15396.662465404308,-23195.0
15396.66252790152,-26907.0
15396.662590398733,-31384.0
15396.662652895946,-32768.0
15396.662715393159,-31329.0
15396.662777890371,-24859.0
15396.662840387584,-15624.0
15396.662902884796,-6339.0
15396.66296538201,1896.0
15396.663027879222,7682.0
15396.663090376434,10473.0
15396.663152873647,10428.0
15396.663215370858,7971.0
15396.66327786807,3709.0
15396.663340365283,-753.0
15396.663402862496,-3360.0
15396.663465359708,-3155.0
15396.663527856921,-1056.0
15396.663590354134,1264.0
15396.663652851346,2970.0
15396.663715348559,3423.0
15396.663777845772,2662.0
15396.663840342982,1747.0
15396.663902840195,1473.0
15396.663965337408,1801.0
15396.66402783462,2392.0
15396.664090331833,3619.0
15396.664152829046,5630.0
15396.664215326258,8013.0
15396.664277823471,9939.0
15396.664340320684,10838.0
15396.664402817896,10334.0
15396.664465315109,8728.0
15396.664527812321,6815.0
15396.664590309532,5623.0
15396.664652806745,5745.0
15396.664715303958,6819.0
15396.66477780117,8229.0
15396.664840298383,9592.0
15396.664902795595,10638.0
15396.664965292808,11043.0
15396.66502779002,10834.0
15396.665090287233,10150.0
15396.665152784446,9196.0
15396.665215281657,8250.0
15396.66527777887,7745.0
15396.665340276082,8024.0
15396.665402773295,9023.0
15396.665465270507,10123.0
15396.66552776772,10767.0
15396.665590264933,10662.0
15396.665652762145,9900.0
15396.665715259358,8626.0
15396.66577775657,7198.0
15396.665840253783,6075.0
15396.665902750996,5256.0
15396.665965248207,4752.0
15396.66602774542,4582.0
15396.666090242632,4567.0
15396.666152739845,4559.0
15396.666215237057,4430.0
15396.66627773427,4119.0
15396.666340231483,3558.0
15396.666402728695,2854.0
15396.666465225908,2155.0
15396.666527723119,1607.0
15396.666590220331,1040.0
15396.666652717544,338.0
15396.666715214757,-699.0
15396.66677771197,-2165.0
15396.666840209182,-3966.0
15396.666902706394,-6149.0
15396.666965203607,-8760.0
15396.66702770082,-11808.0
15396.667090198032,-15039.0
15396.667152695245,-18038.0
15396.667215192458,-20150.0
15396.66727768967,-20931.0
15396.667340186881,-20946.0
15396.667402684094,-21296.0
15396.667465181306,-22721.0
15396.667527678519,-25917.0
15396.667590175732,-30548.0
15396.667652672944,-32768.0
15396.667715170157,-32768.0
15396.66777766737,-28982.0
15396.667840164582,-20401.0
15396.667902661793,-10953.0
15396.667965159006,-1778.0
15396.668027656218,5323.0
15396.668090153431,9571.0
15396.668152650644,11173.0
15396.668215147856,10327.0
15396.668277645069,6981.0
15396.668340142282,2302.0
15396.668402639494,-1357.0
15396.668465136707,-2784.0
15396.66852763392,-1928.0
15396.668590131132,-183.0
15396.668652628345,1378.0
15396.668715125556,1994.0
15396.668777622768,1683.0
15396.66884011998,996.0
15396.668902617193,783.0
15396.668965114406,1231.0
15396.669027611619,1895.0
15396.669090108831,2807.0
15396.669152606044,4474.0
15396.669215103257,6959.0
15396.669277600467,9416.0
15396.66934009768,11159.0
15396.669402594893,11440.0
15396.669465092105,10340.0
15396.669527589318,8374.0
15396.66959008653,6574.0
15396.669652583743,5866.0
15396.669715080956,6230.0
15396.669777578169,7185.0
15396.669840075381,8501.0
15396.669902572594,9802.0
15396.669965069806,10725.0
15396.670027567017,11075.0
15396.67009006423,10905.0
15396.670152561443,10219.0
15396.670215058655,9113.0
15396.670277555868,8142.0
15396.67034005308,7910.0
15396.670402550293,8418.0
15396.670465047506,9305.0
15396.670527544718,10094.0
15396.670590041931,10462.0
15396.670652539142,10350.0
15396.670715036355,9687.0
15396.670777533567,8622.0
15396.67084003078,7478.0
15396.670902527992,6261.0
15396.670965025205,5200.0
15396.671027522418,4538.0
15396.67109001963,4254.0
15396.671152516843,4075.0
15396.671215014056,3899.0
15396.671277511268,3589.0
15396.671340008481,3123.0
15396.671402505692,2527.0
15396.671465002904,1957.0
15396.671527500117,1506.0
15396.67158999733,1077.0
15396.671652494542,531.0
15396.671714991755,-431.0
15396.671777488968,-1856.0
15396.67183998618,-3620.0
15396.671902483393,-5859.0
15396.671964980605,-8685.0
15396.672027477816,-12007.0
15396.672089975029,-15640.0
15396.672152472242,-18908.0
15396.672214969454,-21118.0
15396.672277466667,-21797.0
15396.67233996388,-21470.0
15396.672402461092,-21543.0
15396.672464958305,-22626.0
15396.672527455517,-25759.0
15396.67258995273,-30575.0
15396.672652449943,-32768.0
15396.672714947155,-32461.0
15396.672777444366,-27390.0
15396.672839941579,-18315.0
15396.672902438791,-8889.0
15396.672964936004,-39.0
15396.673027433217,6582.0
15396.67308993043,10090.0
15396.673152427642,11127.0
15396.673214924855,9904.0
15396.673277422067,6092.0
15396.67333991928,888.0
15396.67340241649,-2913.0
15396.673464913703,-3718.0
15396.673527410916,-2232.0
15396.673589908129,55.0
15396.673652405341,2120.0
15396.673714902554,2899.0
15396.673777399767,2448.0
15396.67383989698,1697.0
15396.673902394192,1662.0
15396.673964891404,2206.0
15396.674027388617,2783.0
15396.67408988583,3448.0
15396.67415238304,5011.0
15396.674214880253,7241.0
15396.674277377466,9468.0
15396.674339874678,10890.0
15396.674402371891,10954.0
15396.674464869104,9595.0
15396.674527366316,7578.0
15396.674589863529,5996.0
15396.674652360742,5752.0
15396.674714857954,6489.0
15396.674777355165,7690.0
15396.674839852378,9166.0
15396.67490234959,10574.0
15396.674964846803,11619.0
15396.675027344016,11967.0
15396.675089841228,11664.0
15396.675152338441,10831.0
15396.675214835654,9614.0
15396.675277332866,8670.0
15396.675339830079,8372.0
15396.675402327292,8714.0
15396.675464824504,9292.0
15396.675527321715,9762.0
15396.675589818928,9901.0
15396.67565231614,9666.0
15396.675714813353,8964.0
15396.675777310566,8040.0
15396.675839807778,7126.0
15396.67590230499,6104.0
15396.675964802203,5190.0
15396.676027299416,4619.0
15396.676089796629,4324.0
15396.67615229384,4086.0
15396.676214791052,3805.0
15396.676277288265,3443.0
15396.676339785477,3024.0
15396.67640228269,2517.0
15396.676464779903,2024.0
15396.676527277115,1578.0
15396.676589774328,857.0
15396.67665227154,-216.0
15396.676714768753,-1789.0
15396.676777265966,-3634.0
15396.676839763179,-5644.0
15396.67690226039,-8106.0
15396.676964757602,-11044.0
15396.677027254815,-14352.0
15396.677089752027,-17724.0
15396.67715224924,-20536.0
15396.677214746453,-22028.0
15396.677277243665,-22350.0
15396.677339740878,-22511.0
15396.67740223809,-23297.0
15396.677464735301,-25881.0
15396.677527232514,-30378.0
15396.677589729727,-32768.0
15396.67765222694,-32768.0
15396.677714724152,-29099.0
15396.677777221365,-20411.0
15396.677839718577,-10729.0
15396.67790221579,-1543.0
15396.677964713002,5961.0
15396.678027210215,10536.0
15396.678089707428,12173.0
15396.67815220464,11057.0
15396.678214701853,7489.0
15396.678277199064,2317.0
15396.678339696276,-2264.0
15396.67840219349,-4188.0
15396.678464690702,-3196.0
15396.678527187914,-930.0
15396.678589685127,1199.0
15396.67865218234,2525.0
15396.678714679552,2670.0
15396.678777176765,2090.0
15396.678839673976,1874.0
15396.678902171188,2355.0
15396.678964668401,3010.0
15396.679027165614,3767.0
15396.679089662826,5120.0
15396.679152160039,7289.0
15396.679214657252,9534.0
15396.679277154464,10948.0
15396.679339651677,10968.0
15396.67940214889,9601.0
15396.679464646102,7548.0
15396.679527143315,5710.0
15396.679589640527,5038.0
15396.679652137738,5733.0
15396.67971463495,7081.0
15396.679777132164,8594.0
15396.679839629376,10247.0
15396.679902126589,11582.0
15396.679964623801,12199.0
15396.680027121014,11941.0
15396.680089618227,10991.0
15396.68015211544,9595.0
15396.68021461265,8412.0
15396.680277109863,7915.0
15396.680339607075,8296.0
15396.680402104288,9101.0
15396.6804646015,9866.0
15396.680527098713,10245.0
15396.680589595926,10055.0
15396.680652093139,9468.0
15396.680714590351,8561.0
15396.680777087564,7376.0
15396.680839584777,6081.0
15396.68090208199,4986.0
15396.6809645792,4297.0
15396.681027076413,4085.0
15396.681089573625,4074.0
15396.681152070838,3976.0
15396.68121456805,3715.0
15396.681277065263,3236.0
15396.681339562476,2650.0
15396.681402059688,2052.0
15396.681464556901,1632.0
15396.681527054114,1184.0
15396.681589551325,473.0
15396.681652048537,-650.0
15396.68171454575,-2263.0
15396.681777042962,-4205.0
15396.681839540175,-6360.0
15396.681902037388,-8999.0
15396.6819645346,-12205.0
15396.682027031813,-15779.0
15396.682089529026,-19069.0
15396.682152026238,-21389.0
15396.682214523451,-22408.0
15396.682277020664,-22436.0
15396.682339517874,-22601.0
15396.682402015087,-23849.0
15396.6824645123,-27301.0
15396.682527009512,-31435.0
15396.682589506725,-32768.0
15396.682652003938,-31110.0
15396.68271450115,-24251.0
15396.682776998363,-14932.0
15396.682839495576,-5727.0
15396.682901992788,2148.0
15396.682964489999,7650.0
15396.683026987212,10620.0
15396.683089484424,11190.0
15396.683151981637,9282.0
15396.68321447885,5003.0
15396.683276976062,195.0
15396.683339473275,-2672.0
15396.683401970487,-2708.0
15396.6834644677,-958.0
15396.683526964913,1067.0
15396.683589462125,2248.0
15396.683651959338,2286.0
15396.683714456549,1625.0
15396.683776953761,1150.0
15396.683839450974,1649.0
15396.683901948187,2528.0
15396.6839644454,3300.0
15396.684026942612,4287.0
15396.684089439825,6050.0
15396.684151937037,8281.0
15396.68421443425,10236.0
15396.684276931463,11069.0
15396.684339428673,10315.0
15396.684401925886,8389.0
15396.684464423099,6304.0
15396.684526920311,5289.0
15396.684589417524,5550.0
15396.684651914737,6687.0
15396.68471441195,8071.0
15396.684776909162,9372.0
15396.684839406375,10527.0
15396.684901903587,11208.0
15396.6849644008,11324.0
15396.685026898012,10870.0
15396.685089395223,9759.0
15396.685151892436,8508.0
15396.685214389649,7860.0
15396.685276886861,8176.0
15396.685339384074,9158.0
15396.685401881286,10041.0
15396.6854643785,10379.0
15396.685526875712,10071.0
15396.685589372924,9132.0
15396.685651870137,8040.0
15396.685714367348,6982.0
15396.68577686456,6050.0
15396.685839361773,5339.0
15396.685901858986,5010.0
15396.685964356198,5068.0
15396.686026853411,5237.0
15396.686089350624,5185.0
15396.686151847836,4766.0
15396.686214345049,4046.0
15396.686276842262,3168.0
15396.686339339474,2365.0
15396.686401836687,1814.0
15396.686464333898,1484.0
15396.68652683111,1044.0
15396.686589328323,254.0
15396.686651825536,-905.0
15396.686714322748,-2414.0
15396.68677681996,-4242.0
15396.686839317174,-6290.0
15396.686901814386,-8782.0
15396.686964311599,-11793.0
15396.687026808811,-15092.0
15396.687089306022,-18107.0
15396.687151803235,-20324.0
15396.687214300448,-21631.0
15396.68727679766,-22111.0
15396.687339294873,-22697.0
15396.687401792085,-24062.0
15396.687464289298,-27243.0
15396.68752678651,-31316.0
15396.687589283723,-32768.0
15396.687651780936,-31631.0
15396.687714278149,-25186.0
15396.687776775361,-15941.0
15396.687839272572,-6805.0
15396.687901769785,1415.0
15396.687964266997,7401.0
15396.68802676421,10784.0
15396.688089261423,11783.0
15396.688151758635,10204.0
15396.688214255848,6169.0
15396.68827675306,1410.0
15396.688339250273,-1831.0
15396.688401747484,-2555.0
