time,X_NOSE,Y_NOSE,Z_NOSE,visibility_NOSE,X_LEFT_EYE_INNER,Y_LEFT_EYE_INNER,Z_LEFT_EYE_INNER,visibility_LEFT_EYE_INNER,X_LEFT_EYE,Y_LEFT_EYE,Z_LEFT_EYE,visibility_LEFT_EYE,X_LEFT_EYE_OUTER,Y_LEFT_EYE_OUTER,Z_LEFT_EYE_OUTER,visibility_LEFT_EYE_OUTER,X_RIGHT_EYE_OUTER,Y_RIGHT_EYE_OUTER,Z_RIGHT_EYE_OUTER,visibility_RIGHT_EYE_OUTER,X_RIGHT_EYE,Y_RIGHT_EYE,Z_RIGHT_EYE,visibility_RIGHT_EYE,X_RIGHT_EYE_OUTER,Y_RIGHT_EYE_OUTER,Z_RIGHT_EYE_OUTER,visibility_RIGHT_EYE_OUTER,X_LEFT_EAR,Y_LEFT_EAR,Z_LEFT_EAR,visibility_LEFT_EAR,X_RIGHT_EAR,Y_RIGHT_EAR,Z_RIGHT_EAR,visibility_RIGHT_EAR,X_MOUTH_LEFT,Y_MOUTH_LEFT,Z_MOUTH_LEFT,visibility_MOUTH_LEFT,X_MOUTH_RIGHT,Y_MOUTH_RIGHT,Z_MOUTH_RIGHT,visibility_MOUTH_RIGHT,X_LEFT_SHOULDER,Y_LEFT_SHOULDER,Z_LEFT_SHOULDER,visibility_LEFT_SHOULDER,X_RIGHT_SHOULDER,Y_RIGHT_SHOULDER,Z_RIGHT_SHOULDER,visibility_RIGHT_SHOULDER,X_LEFT_ELBOW,Y_LEFT_ELBOW,Z_LEFT_ELBOW,visibility_LEFT_ELBOW,X_RIGHT_ELBOW,Y_RIGHT_ELBOW,Z_RIGHT_ELBOW,visibility_RIGHT_ELBOW,X_LEFT_WRIST,Y_LEFT_WRIST,Z_LEFT_WRIST,visibility_LEFT_WRIST,X_RIGHT_WRIST,Y_RIGHT_WRIST,Z_RIGHT_WRIST,visibility_RIGHT_WRIST,X_LEFT_PINKY,Y_LEFT_PINKY,Z_LEFT_PINKY,visibility_LEFT_PINKY,X_RIGHT_PINKY,Y_RIGHT_PINKY,Z_RIGHT_PINKY,visibility_RIGHT_PINKY,X_LEFT_INDEX,Y_LEFT_INDEX,Z_LEFT_INDEX,visibility_LEFT_INDEX,X_RIGHT_INDEX,Y_RIGHT_INDEX,Z_RIGHT_INDEX,visibility_RIGHT_INDEX,X_LEFT_THUMB,Y_LEFT_THUMB,Z_LEFT_THUMB,visibility_LEFT_THUMB,X_RIGHT_THUMB,Y_RIGHT_THUMB,Z_RIGHT_THUMB,visibility_RIGHT_THUMB,X_LEFT_HIP,Y_LEFT_HIP,Z_LEFT_HIP,visibility_LEFT_HIP,X_RIGHT_HIP,Y_RIGHT_HIP,Z_RIGHT_HIP,visibility_RIGHT_HIP,X_LEFT_KNEE,Y_LEFT_KNEE,Z_LEFT_KNEE,visibility_LEFT_KNEE,X_RIGHT_KNEE,Y_RIGHT_KNEE,Z_RIGHT_KNEE,visibility_RIGHT_KNEE,X_LEFT_ANKLE,Y_LEFT_ANKLE,Z_LEFT_ANKLE,visibility_LEFT_ANKLE,X_RIGHT_ANKLE,Y_RIGHT_ANKLE,Z_RIGHT_ANKLE,visibility_RIGHT_ANKLE,X_LEFT_HEEL,Y_LEFT_HEEL,Z_LEFT_HEEL,visibility_LEFT_HEEL,X_RIGHT_HEEL,Y_RIGHT_HEEL,Z_RIGHT_HEEL,visibility_RIGHT_HEEL,X_LEFT_FOOT_INDEX,Y_LEFT_FOOT_INDEX,Z_LEFT_FOOT_INDEX,visibility_LEFT_FOOT_INDEX,X_RIGHT_FOOT_INDEX,Y_RIGHT_FOOT_INDEX,Z_RIGHT_FOOT_INDEX,visibility_RIGHT_FOOT_INDEX
14434.817366031366,0.4829796552658081,0.26799124479293823,-0.910660445690155,0.999936580657959,0.4953599274158478,0.24729610979557037,-0.867274284362793,0.9998489618301392,0.5040591359138489,0.24776244163513184,-0.8674911260604858,0.9998329877853394,0.5128305554389954,0.24807202816009521,-0.8677289485931396,0.9998306035995483,0.46590369939804077,0.24659036099910736,-0.890737771987915,0.9998180270195007,0.45316046476364136,0.24654319882392883,-0.8908673524856567,0.999800980091095,0.4394913613796234,0.24655357003211975,-0.8911001682281494,0.9997853636741638,0.5178921222686768,0.2569718062877655,-0.5580594539642334,0.9997667670249939,0.40781646966934204,0.2554428279399872,-0.6750535368919373,0.9998031258583069,0.49523165822029114,0.28987836837768555,-0.7883386611938477,0.9999656677246094,0.45815861225128174,0.2876194715499878,-0.8221343159675598,0.9999616146087646,0.590668797492981,0.3771684169769287,-0.3141956627368927,0.9999539852142334,0.31207916140556335,0.3832806646823883,-0.49344661831855774,0.9998757839202881,0.6212189197540283,0.5306932330131531,-0.1299973577260971,0.9704532027244568,0.3163488507270813,0.5553944110870361,-0.4089592695236206,0.9801214933395386,0.650637686252594,0.6657313704490662,-0.3676051199436188,0.9526011943817139,0.3616012930870056,0.6776918768882751,-0.595309317111969,0.9242828488349915,0.6685986518859863,0.7076824307441711,-0.4474324584007263,0.9123353362083435,0.36176973581314087,0.7160446047782898,-0.6687983870506287,0.8773960471153259,0.6532654762268066,0.7099534273147583,-0.5316187143325806,0.9220703840255737,0.37642818689346313,0.7135899066925049,-0.7519013285636902,0.8861300945281982,0.6412911415100098,0.7017467617988586,-0.40560799837112427,0.9210494756698608,0.3802831470966339,0.7020686268806458,-0.6283553838729858,0.8793784379959106,0.5604588389396667,0.6523381471633911,0.029697434976696968,0.9976413249969482,0.4033201336860657,0.6654370427131653,-0.029330004006624222,0.9958359003067017,0.5631369352340698,0.870765745639801,-0.09889334440231323,0.48049941658973694,0.4210180640220642,0.8726991415023804,-0.10290208458900452,0.4065392315387726,0.5581027269363403,1.0461630821228027,0.4078618288040161,0.21341022849082947,0.44839680194854736,1.0496125221252441,0.3460642695426941,0.22828705608844757,0.5478936433792114,1.0699434280395508,0.4397563934326172,0.21540822088718414,0.4553574025630951,1.0686393976211548,0.37454211711883545,0.1305524855852127,0.5943435430526733,1.110175371170044,0.15808482468128204,0.20608553290367126,0.4691232442855835,1.123672366142273,0.03627923130989075,0.21715304255485535
14451.484032698032,0.48320847749710083,0.2677966356277466,-0.9029402732849121,0.9999369382858276,0.4955383241176605,0.24714858829975128,-0.8593373894691467,0.9998519420623779,0.504258930683136,0.24763980507850647,-0.8595552444458008,0.9998358488082886,0.5130686163902283,0.24795463681221008,-0.8597934246063232,0.9998341798782349,0.4660935401916504,0.24640989303588867,-0.8832131028175354,0.9998212456703186,0.4533635973930359,0.24637222290039062,-0.8833428025245667,0.9998034834861755,0.43961742520332336,0.24640008807182312,-0.8835791945457458,0.9997876286506653,0.517905592918396,0.2569987177848816,-0.5503939390182495,0.9997710585594177,0.4077102541923523,0.25538232922554016,-0.669289231300354,0.999806821346283,0.49538418650627136,0.28985628485679626,-0.7808732986450195,0.9999665021896362,0.45826801657676697,0.287536084651947,-0.815197229385376,0.999962568283081,0.5902037024497986,0.37722262740135193,-0.30745452642440796,0.9999542236328125,0.3122013211250305,0.3832274377346039,-0.49097082018852234,0.9998772144317627,0.621198296546936,0.5308735966682434,-0.12433775514364243,0.9695600271224976,0.3166120946407318,0.5556367635726929,-0.4081326723098755,0.9801361560821533,0.6510694622993469,0.6655691862106323,-0.3617948293685913,0.9525198340415955,0.36180442571640015,0.6780849695205688,-0.5924654006958008,0.9239616394042969,0.6689648032188416,0.7078636288642883,-0.44156232476234436,0.9122697710990906,0.3619946837425232,0.7163581252098083,-0.6653710007667542,0.8771086931228638,0.6536839008331299,0.7101742625236511,-0.5254740715026855,0.9220678210258484,0.37664058804512024,0.7141361236572266,-0.7484943866729736,0.8857779502868652,0.6417787075042725,0.7020102739334106,-0.3997347950935364,0.9210351705551147,0.38043656945228577,0.7028526067733765,-0.6254622340202332,0.879176139831543,0.5603060722351074,0.6528318524360657,0.03219538554549217,0.9976563453674316,0.40366995334625244,0.6657567024230957,-0.03182371333241463,0.9959065914154053,0.5639820694923401,0.8711013197898865,-0.10062238574028015,0.46764397621154785,0.42187151312828064,0.8729995489120483,-0.10806520283222198,0.4009649157524109,0.5590904951095581,1.0468730926513672,0.4057390093803406,0.20587901771068573,0.44925275444984436,1.050810694694519,0.3400457203388214,0.2236328274011612,0.5485219359397888,1.0708634853363037,0.43767276406288147,0.21463681757450104,0.4557192623615265,1.0699756145477295,0.36842694878578186,0.12819188833236694,0.5976389050483704,1.1103684902191162,0.15746185183525085,0.20038947463035583,0.47145217657089233,1.1247283220291138,0.03019622154533863,0.2128085047006607
14468.150699364698,0.48477354645729065,0.26432275772094727,-0.8655952215194702,0.9999339580535889,0.49648457765579224,0.24488061666488647,-0.8205435276031494,0.999846339225769,0.5052757263183594,0.24565137922763824,-0.8207612037658691,0.9998332262039185,0.5141031742095947,0.24617742002010345,-0.820983350276947,0.999829888343811,0.46748924255371094,0.24358026683330536,-0.845824122428894,0.9998114705085754,0.4548170268535614,0.24334341287612915,-0.845953106880188,0.9997971653938293,0.4406825304031372,0.24330829083919525,-0.8461922407150269,0.9997773766517639,0.5184149742126465,0.2563773989677429,-0.5168749094009399,0.999768078327179,0.4075254201889038,0.2529618442058563,-0.642056405544281,0.999798595905304,0.4964051842689514,0.2870537042617798,-0.7468063235282898,0.9999662637710571,0.45941320061683655,0.2847125828266144,-0.7829030156135559,0.9999613761901855,0.5900526642799377,0.3787176012992859,-0.28677716851234436,0.9999549388885498,0.31274208426475525,0.3844397962093353,-0.47862985730171204,0.9998645782470703,0.6218669414520264,0.5311838388442993,-0.10819686204195023,0.9688818454742432,0.31601208448410034,0.5531461238861084,-0.40767037868499756,0.9801746606826782,0.6517288684844971,0.6673945784568787,-0.3423863649368286,0.9539355635643005,0.3614359200000763,0.6769697070121765,-0.5919314622879028,0.9247740507125854,0.6685543060302734,0.7095748782157898,-0.4217613935470581,0.914602518081665,0.36229875683784485,0.7157946825027466,-0.6659272313117981,0.87971431016922,0.6515263915061951,0.7119287848472595,-0.5047666430473328,0.924005389213562,0.37654393911361694,0.7131807208061218,-0.7472391724586487,0.8876095414161682,0.6399116516113281,0.7033618092536926,-0.38007381558418274,0.9233993887901306,0.3802441954612732,0.701666533946991,-0.6244093179702759,0.8810391426086426,0.5599883794784546,0.6530954241752625,0.03318268805742264,0.9977572560310364,0.4013253450393677,0.6657474637031555,-0.032785069197416306,0.9959781169891357,0.5626147389411926,0.8706703186035156,-0.08715960383415222,0.4587112069129944,0.4202788472175598,0.8700904250144958,-0.10058905184268951,0.3942757546901703,0.5583820343017578,1.0416264533996582,0.42317306995391846,0.19322632253170013,0.4473489224910736,1.0444698333740234,0.35282954573631287,0.20461039245128632,0.5485807061195374,1.0648940801620483,0.4555197060108185,0.2014617770910263,0.45300185680389404,1.062769889831543,0.3820771872997284,0.11840096861124039,0.5933849811553955,1.105573058128357,0.17740705609321594,0.18474766612052917,0.4710167348384857,1.118956208229065,0.047536544501781464,0.19677194952964783
14484.817366031364,0.4897255003452301,0.26621928811073303,-0.8304396867752075,0.9999446868896484,0.5004647970199585,0.24661695957183838,-0.7896400690078735,0.9998718500137329,0.5095169544219971,0.24682337045669556,-0.7898396253585815,0.9998564720153809,0.5183112621307373,0.24680890142917633,-0.7900621891021729,0.9998605251312256,0.4716235399246216,0.24618132412433624,-0.817032516002655,0.9998530149459839,0.45993199944496155,0.24604599177837372,-0.8171653151512146,0.9998360872268677,0.4453422427177429,0.24615538120269775,-0.8173981308937073,0.999826967716217,0.5197170376777649,0.25650498270988464,-0.502312958240509,0.999795138835907,0.4107467532157898,0.25471043586730957,-0.6369787454605103,0.9998382329940796,0.5010520219802856,0.2883143126964569,-0.7163180708885193,0.9999709129333496,0.4651997983455658,0.28662770986557007,-0.7551758885383606,0.9999680519104004,0.5900241732597351,0.3781901001930237,-0.2829735577106476,0.999955415725708,0.3115469217300415,0.3837207555770874,-0.4813612103462219,0.9998878240585327,0.6216995716094971,0.5325159430503845,-0.10922043770551682,0.9665261507034302,0.3162992000579834,0.5543097853660583,-0.4026394784450531,0.9833400845527649,0.6530725955963135,0.6671206951141357,-0.3223114311695099,0.9528936743736267,0.362815260887146,0.6784439086914062,-0.549727737903595,0.9372331500053406,0.6707297563552856,0.7101167440414429,-0.3960614502429962,0.9132251739501953,0.3626652956008911,0.7170326709747314,-0.6154398322105408,0.8960756063461304,0.6539968848228455,0.7124025821685791,-0.47597038745880127,0.922839879989624,0.3778004050254822,0.7154314517974854,-0.6922926902770996,0.9031160473823547,0.6421934366226196,0.7038334608078003,-0.3582369387149811,0.9230378866195679,0.38172441720962524,0.7041780948638916,-0.5794836282730103,0.8971124887466431,0.561488687992096,0.651284396648407,0.03409666195511818,0.9977091550827026,0.4035954475402832,0.6635562181472778,-0.03378274291753769,0.9961957931518555,0.5650710463523865,0.8715998530387878,-0.10478539764881134,0.4744548797607422,0.4225181043148041,0.8724490404129028,-0.11368894577026367,0.401569128036499,0.5576275587081909,1.0478084087371826,0.3607274889945984,0.21279944479465485,0.4489442706108093,1.0519278049468994,0.2969769835472107,0.22910919785499573,0.5468475222587585,1.0719542503356934,0.38959118723869324,0.21509453654289246,0.4550674557685852,1.0712554454803467,0.32224348187446594,0.12504565715789795,0.5979200005531311,1.112068772315979,0.12458080798387527,0.20984028279781342,0.4721633195877075,1.1267030239105225,-0.0005672064144164324,0.221431165933609
14501.48403269803,0.4883018434047699,0.2682340741157532,-0.8184908628463745,0.9999563694000244,0.4993932545185089,0.24798530340194702,-0.7783972024917603,0.9998998641967773,0.5082524418830872,0.24817010760307312,-0.7786047458648682,0.9998859167098999,0.5171518921852112,0.248087078332901,-0.7788457870483398,0.999889612197876,0.4706367552280426,0.24780143797397614,-0.8035901188850403,0.9998854398727417,0.4590136706829071,0.2477380782365799,-0.803698718547821,0.9998704195022583,0.444526344537735,0.24789278209209442,-0.8039245009422302,0.9998669624328613,0.5196730494499207,0.25759294629096985,-0.4923381507396698,0.9998425245285034,0.4100918173789978,0.2564030885696411,-0.6172711253166199,0.9998806715011597,0.5003993511199951,0.2904203534126282,-0.7045314311981201,0.9999773502349854,0.4649790823459625,0.2883833348751068,-0.7405919432640076,0.9999758005142212,0.5902097225189209,0.37686610221862793,-0.27718257904052734,0.9999651908874512,0.31026607751846313,0.38377878069877625,-0.45910024642944336,0.9999079704284668,0.6237375140190125,0.5323446989059448,-0.105960413813591,0.9712237119674683,0.3143869936466217,0.5527485609054565,-0.384546160697937,0.9830836057662964,0.6526118516921997,0.6668643951416016,-0.32296788692474365,0.9598130583763123,0.3615797162055969,0.6786357164382935,-0.5413219928741455,0.9372309446334839,0.6691970825195312,0.7103601694107056,-0.39935415983200073,0.9258557558059692,0.36254000663757324,0.7166453003883362,-0.6082251071929932,0.8964111804962158,0.6546515822410583,0.7123715877532959,-0.47914913296699524,0.9342401027679443,0.37822091579437256,0.7145768404006958,-0.686051607131958,0.9039883017539978,0.643202543258667,0.7039046883583069,-0.35878369212150574,0.9334099292755127,0.38155853748321533,0.7035844326019287,-0.5717184543609619,0.8987851142883301,0.5621050596237183,0.6525421738624573,0.02752125822007656,0.9978445768356323,0.4033827781677246,0.6655298471450806,-0.027155913412570953,0.9963977336883545,0.5638269186019897,0.8740532994270325,-0.10986165702342987,0.5143197178840637,0.420425683259964,0.8752428889274597,-0.10649151355028152,0.41456151008605957,0.5603787302970886,1.0504932403564453,0.3559422791004181,0.21564331650733948,0.44958144426345825,1.0526723861694336,0.3030678927898407,0.21780240535736084,0.5513206124305725,1.0741939544677734,0.3848530352115631,0.20393110811710358,0.4572911262512207,1.0715007781982422,0.3289712369441986,0.11986692994832993,0.5950856804847717,1.115831732749939,0.1198173239827156,0.19848492741584778,0.4678266644477844,1.128035545349121,0.010763676837086678,0.20432645082473755
14518.150699364696,0.48862776160240173,0.26784849166870117,-0.867923378944397,0.9999382495880127,0.49935638904571533,0.2476208209991455,-0.8259527683258057,0.9998621940612793,0.5078139901161194,0.24781833589076996,-0.826162576675415,0.9998465776443481,0.5162797570228577,0.24775594472885132,-0.8264070153236389,0.9998507499694824,0.471297949552536,0.2471095621585846,-0.8525068759918213,0.9998372793197632,0.45972761511802673,0.2469080537557602,-0.8526340126991272,0.9998170733451843,0.44537246227264404,0.24694663286209106,-0.8528689742088318,0.9998053908348083,0.5178735852241516,0.2570374608039856,-0.5283425450325012,0.9997904896736145,0.41119152307510376,0.2552603483200073,-0.6593228578567505,0.999821126461029,0.499552458524704,0.2895794212818146,-0.7497747540473938,0.999968409538269,0.46479886770248413,0.28752315044403076,-0.7876088619232178,0.9999644756317139,0.5898821949958801,0.37623801827430725,-0.3003111779689789,0.9999572038650513,0.31042516231536865,0.3828372359275818,-0.4910984933376312,0.9998681545257568,0.6236233115196228,0.5318315029144287,-0.12524659931659698,0.9708446264266968,0.31641915440559387,0.5527744889259338,-0.41541799902915955,0.9804694056510925,0.6512852311134338,0.6659651398658752,-0.34915274381637573,0.9574629664421082,0.3643386960029602,0.6774913668632507,-0.5777214169502258,0.9225113391876221,0.6686006784439087,0.7095370888710022,-0.42646145820617676,0.9200409054756165,0.36795586347579956,0.7151952981948853,-0.6463444828987122,0.8747197389602661,0.6538035273551941,0.7113127708435059,-0.5079570412635803,0.9292040467262268,0.3835122287273407,0.7127811312675476,-0.725829005241394,0.8835299611091614,0.6418644785881042,0.7031282186508179,-0.38575637340545654,0.9278926849365234,0.3854143023490906,0.7012982964515686,-0.6088207960128784,0.8772484660148621,0.5612496733665466,0.6526426076889038,0.03134624660015106,0.99737548828125,0.402999609708786,0.6654269695281982,-0.030959248542785645,0.9954721927642822,0.5642172694206238,0.8727282285690308,-0.10235214978456497,0.48902392387390137,0.42292141914367676,0.8739311099052429,-0.10852258652448654,0.3964058458805084,0.5595561861991882,1.0502679347991943,0.37786757946014404,0.2057323455810547,0.45026907324790955,1.053720235824585,0.3148745894432068,0.21083655953407288,0.5498218536376953,1.0740498304367065,0.40748563408851624,0.2039155811071396,0.45702746510505676,1.0728791952133179,0.3411957621574402,0.11880841851234436,0.5947872996330261,1.1154298782348633,0.1328844577074051,0.19300395250320435,0.47149658203125,1.1284064054489136,0.01089397817850113,0.19945558905601501
14534.817366031362,0.483887642621994,0.2692551612854004,-0.8771528601646423,0.9999408721923828,0.4967232942581177,0.24945175647735596,-0.8371791243553162,0.9998605251312256,0.5054699182510376,0.25003334879875183,-0.8373839259147644,0.9998385906219482,0.5144487023353577,0.2503504157066345,-0.8376290798187256,0.9998385906219482,0.4680817425251007,0.2478344738483429,-0.8598130345344543,0.9998456239700317,0.45611709356307983,0.24726098775863647,-0.8599367141723633,0.9998283386230469,0.4418394863605499,0.24699780344963074,-0.8601737022399902,0.9998263716697693,0.519329309463501,0.2592693269252777,-0.5422694087028503,0.9997705817222595,0.4084274172782898,0.2553769052028656,-0.655965268611908,0.999841570854187,0.49537256360054016,0.2912011742591858,-0.7592319250106812,0.9999672174453735,0.45841577649116516,0.28848177194595337,-0.7920939922332764,0.9999668598175049,0.591346263885498,0.3777417540550232,-0.3115213215351105,0.9999494552612305,0.30835795402526855,0.3829030394554138,-0.48118799924850464,0.9998948574066162,0.6225250959396362,0.5326457619667053,-0.1279451847076416,0.9648637175559998,0.31429532170295715,0.5531522631645203,-0.4051632881164551,0.9807702302932739,0.649809718132019,0.6660966873168945,-0.3414880037307739,0.9426149129867554,0.36432746052742004,0.6783403158187866,-0.5768758058547974,0.9257898926734924,0.6670000553131104,0.7103543877601624,-0.4163729250431061,0.8993477821350098,0.36762771010398865,0.7163393497467041,-0.6465708017349243,0.879429042339325,0.6540874242782593,0.7120463252067566,-0.4967632591724396,0.9101139903068542,0.38230425119400024,0.7130007147789001,-0.7234939336776733,0.8881227374076843,0.6424551606178284,0.7035692930221558,-0.3772633969783783,0.9104476571083069,0.3844645321369171,0.7016122341156006,-0.6069894433021545,0.8825717568397522,0.5629066824913025,0.6525685787200928,0.021734043955802917,0.9974587559700012,0.40257182717323303,0.6654133200645447,-0.021374059841036797,0.9957566857337952,0.5660579204559326,0.8763954639434814,-0.11107111722230911,0.47759920358657837,0.42118436098098755,0.8772469162940979,-0.0991760790348053,0.3831495940685272,0.5573396682739258,1.0512666702270508,0.38069742918014526,0.19602057337760925,0.44815799593925476,1.0541315078735352,0.3313066363334656,0.20555835962295532,0.5487726330757141,1.0745079517364502,0.4119914174079895,0.18837064504623413,0.45673277974128723,1.072828769683838,0.35923653841018677,0.12014678120613098,0.5884862542152405,1.1174473762512207,0.14123287796974182,0.18264538049697876,0.4630654752254486,1.1297361850738525,0.033581797033548355,0.1931583732366562
14551.484032698028,0.4889741539955139,0.2684541940689087,-0.741212785243988,0.9999547004699707,0.5002908110618591,0.24838079512119293,-0.7029076218605042,0.9998927116394043,0.5090451240539551,0.24862419068813324,-0.7031078338623047,0.9998742341995239,0.5177740454673767,0.2486540973186493,-0.7033332586288452,0.9998810291290283,0.47219425439834595,0.2476327121257782,-0.7284703850746155,0.9998846054077148,0.4606747627258301,0.24732762575149536,-0.7285764217376709,0.9998680353164673,0.4462868869304657,0.24729721248149872,-0.7287999391555786,0.9998692274093628,0.5193579792976379,0.2582511901855469,-0.43505239486694336,0.9998193383216858,0.4106186330318451,0.2558813691139221,-0.5616391897201538,0.9998759031295776,0.4998522996902466,0.29051440954208374,-0.6346486210823059,0.9999749660491943,0.46489647030830383,0.2882787585258484,-0.6711387038230896,0.9999752044677734,0.5900776386260986,0.3780493140220642,-0.24286139011383057,0.9999575614929199,0.30956506729125977,0.3829009532928467,-0.4267885088920593,0.9999063014984131,0.6221266984939575,0.5325508117675781,-0.08160927146673203,0.968182384967804,0.31361091136932373,0.5529299974441528,-0.36300304532051086,0.984284520149231,0.6533056497573853,0.6651626229286194,-0.27816781401634216,0.9585204720497131,0.36417853832244873,0.6765910387039185,-0.5002489686012268,0.9435114860534668,0.6706490516662598,0.7100391983985901,-0.34969907999038696,0.9245588779449463,0.368863582611084,0.7150443196296692,-0.5634676814079285,0.9053966999053955,0.6550260186195374,0.7118808627128601,-0.4252934753894806,0.9327476024627686,0.3842029571533203,0.7113900780677795,-0.6343410015106201,0.9120170474052429,0.6429976224899292,0.7039440274238586,-0.31185221672058105,0.9329639077186584,0.3859754204750061,0.6996176838874817,-0.5275698900222778,0.9075332283973694,0.5602497458457947,0.6535214781761169,0.028868084773421288,0.997637152671814,0.4027349352836609,0.66612309217453,-0.02854437381029129,0.9963790774345398,0.5656543970108032,0.8730945587158203,-0.10858623683452606,0.48817649483680725,0.42358818650245667,0.8745731115341187,-0.11591938138008118,0.4042741358280182,0.5605472326278687,1.0505213737487793,0.33475348353385925,0.1959935575723648,0.450883686542511,1.0546962022781372,0.26889753341674805,0.2151697278022766,0.5508330464363098,1.073913335800171,0.36237889528274536,0.192580446600914,0.45762521028518677,1.073582649230957,0.29312655329704285,0.11852461099624634,0.5972607731819153,1.1166590452194214,0.11268262565135956,0.1823534369468689,0.4700990915298462,1.1303248405456543,-0.013063401915133,0.20076844096183777
14568.150699364694,0.4894328713417053,0.2695094645023346,-0.7373341917991638,0.9999548196792603,0.5011204481124878,0.2496391087770462,-0.6994967460632324,0.9998927116394043,0.5097762942314148,0.24997717142105103,-0.6996921896934509,0.9998743534088135,0.5186119675636292,0.2501908540725708,-0.6999124884605408,0.9998804330825806,0.4730992913246155,0.24840375781059265,-0.7253885269165039,0.999883770942688,0.4615284502506256,0.24783971905708313,-0.7255019545555115,0.9998685121536255,0.4473242163658142,0.24764403700828552,-0.7257285118103027,0.9998683929443359,0.5204306244850159,0.259386271238327,-0.43314534425735474,0.9998188614845276,0.4114864766597748,0.25610455870628357,-0.5616734027862549,0.9998776912689209,0.5001278519630432,0.2910742163658142,-0.6311700940132141,0.9999754428863525,0.46504420042037964,0.2889229953289032,-0.6682122349739075,0.9999755620956421,0.5900198221206665,0.37875017523765564,-0.24029381573200226,0.9999595880508423,0.30924105644226074,0.3833475112915039,-0.429473340511322,0.9999127388000488,0.6220800876617432,0.5319749116897583,-0.07486771792173386,0.9678130745887756,0.31452298164367676,0.5524300336837769,-0.364828884601593,0.9846774339675903,0.6524659991264343,0.6642926931381226,-0.26737290620803833,0.9583578705787659,0.3638917803764343,0.6744696497917175,-0.4994561970233917,0.9442413449287415,0.6700999736785889,0.7087892889976501,-0.3378896415233612,0.9242494106292725,0.36724284291267395,0.7131107449531555,-0.5620906949043274,0.9066962003707886,0.6543659567832947,0.7107940912246704,-0.4129679501056671,0.9325259327888489,0.3839353919029236,0.7100949883460999,-0.6321192979812622,0.9130507111549377,0.642155647277832,0.7026855945587158,-0.30077317357063293,0.9331685900688171,0.38614773750305176,0.6981604695320129,-0.5263518691062927,0.9086134433746338,0.5598254799842834,0.65353924036026,0.031192217022180557,0.9977203011512756,0.4025176167488098,0.6661900877952576,-0.03087535686790943,0.9964185953140259,0.5644413828849792,0.8725461363792419,-0.10284864902496338,0.47113215923309326,0.4233158230781555,0.8743256330490112,-0.11223042756319046,0.39575716853141785,0.557526171207428,1.0462610721588135,0.3524631857872009,0.18374629318714142,0.44844838976860046,1.0497061014175415,0.2832704484462738,0.20617294311523438,0.5474135279655457,1.0694849491119385,0.3817407488822937,0.19213923811912537,0.45437875390052795,1.068110704421997,0.3089497685432434,0.11650194972753525,0.5955564975738525,1.1120283603668213,0.13738740980625153,0.17361463606357574,0.4700210690498352,1.1254286766052246,0.005922875367105007,0.19428753852844238
14584.81736603136,0.48723870515823364,0.27020177245140076,-0.9027081727981567,0.9999289512634277,0.49934545159339905,0.24975819885730743,-0.8612549901008606,0.9998317956924438,0.5082669258117676,0.2499270737171173,-0.8614619970321655,0.9998078942298889,0.517179548740387,0.24985431134700775,-0.8616991639137268,0.9998065829277039,0.47068095207214355,0.2491825520992279,-0.8859952092170715,0.9998098015785217,0.4591193199157715,0.2488357573747635,-0.8861449360847473,0.9997887015342712,0.4449223279953003,0.24869288504123688,-0.8863942623138428,0.9997813105583191,0.5198083519935608,0.2586725950241089,-0.5617197751998901,0.9997288584709167,0.41075965762138367,0.25678539276123047,-0.6851049065589905,0.9998016953468323,0.49831461906433105,0.2912866175174713,-0.7835400104522705,0.9999607801437378,0.4631620943546295,0.2893359363079071,-0.8192252516746521,0.9999597072601318,0.5911963582038879,0.37759920954704285,-0.3291987180709839,0.9999468326568604,0.3105866312980652,0.38270074129104614,-0.5074701905250549,0.9998823404312134,0.6217595338821411,0.5316525101661682,-0.14565062522888184,0.9665281772613525,0.3144918978214264,0.5526225566864014,-0.42856815457344055,0.9832224249839783,0.650981068611145,0.6666563749313354,-0.3651171028614044,0.9475193619728088,0.3626379668712616,0.6734489798545837,-0.5951714515686035,0.9355876445770264,0.6689654588699341,0.7111384272575378,-0.44056472182273865,0.9056714773178101,0.36340200901031494,0.7108701467514038,-0.6644004583358765,0.8921455144882202,0.6557035446166992,0.713123619556427,-0.5221380591392517,0.9162144064903259,0.3796877861022949,0.7073488235473633,-0.7424211502075195,0.9002402424812317,0.6433830857276917,0.7045297622680664,-0.4016140103340149,0.9165928363800049,0.3832738697528839,0.6959941983222961,-0.625492513179779,0.8939308524131775,0.5593270659446716,0.6520432233810425,0.02259206585586071,0.9973503351211548,0.4003862738609314,0.6642885804176331,-0.022234797477722168,0.9955345392227173,0.5606883764266968,0.8726497888565063,-0.09798014163970947,0.4409022927284241,0.420093834400177,0.8730462789535522,-0.09015826135873795,0.35151490569114685,0.5523332953453064,1.041715383529663,0.40776243805885315,0.17623594403266907,0.44466692209243774,1.045443058013916,0.35626766085624695,0.19019338488578796,0.5434206128120422,1.0647975206375122,0.4405146837234497,0.184880793094635,0.45317158102989197,1.0640367269515991,0.3857516348361969,0.11659488081932068,0.5832024812698364,1.106585144996643,0.17139111459255219,0.1742577850818634,0.4588823914527893,1.1196529865264893,0.06010548397898674,0.18652480840682983
14601.484032698027,0.4838975667953491,0.26955389976501465,-0.8636519312858582,0.9999109506607056,0.49684661626815796,0.2498345524072647,-0.8208422064781189,0.9997960925102234,0.5058214068412781,0.2504784166812897,-0.8210753798484802,0.9997697472572327,0.5148667693138123,0.2508551776409149,-0.8213319778442383,0.9997711777687073,0.46756359934806824,0.24827581644058228,-0.8446394801139832,0.9997588992118835,0.4552622437477112,0.2478255033493042,-0.8447650671005249,0.9997307658195496,0.44126176834106445,0.24756556749343872,-0.8450202345848083,0.9997171759605408,0.5205105543136597,0.259869247674942,-0.5192801356315613,0.999671459197998,0.40877580642700195,0.25614166259765625,-0.6380917429924011,0.9997339844703674,0.495768666267395,0.2914135158061981,-0.7440074682235718,0.9999493360519409,0.45867013931274414,0.2893679738044739,-0.7784367203712463,0.9999455213546753,0.589576005935669,0.3769492208957672,-0.290110319852829,0.9999415874481201,0.310571551322937,0.38320687413215637,-0.4635023772716522,0.9998440742492676,0.6200953722000122,0.5293986797332764,-0.10633392632007599,0.9647308588027954,0.3151795268058777,0.5523660182952881,-0.3842180371284485,0.9770135283470154,0.6481602787971497,0.6615645289421082,-0.32318994402885437,0.9483230710029602,0.36152178049087524,0.6732490658760071,-0.5584660172462463,0.9191737771034241,0.6675747036933899,0.7031385898590088,-0.39807000756263733,0.9080836772918701,0.3594677448272705,0.711157500743866,-0.6271657943725586,0.8717833757400513,0.6538127064704895,0.7057338953018188,-0.479436993598938,0.9186605215072632,0.374722957611084,0.708154559135437,-0.7071302533149719,0.8813871145248413,0.6405941247940063,0.6982372403144836,-0.3594110608100891,0.9176742434501648,0.3799562156200409,0.6962617039680481,-0.5897321701049805,0.8740371465682983,0.5577401518821716,0.6534312963485718,0.023425357416272163,0.99725741147995,0.399524986743927,0.6657217144966125,-0.02305213361978531,0.9950167536735535,0.5617871284484863,0.871293306350708,-0.12008173018693924,0.4310561716556549,0.41767293214797974,0.8739491701126099,-0.10269655287265778,0.3272917866706848,0.5542587041854858,1.048419713973999,0.37327295541763306,0.16963951289653778,0.44559723138809204,1.0493254661560059,0.3346554934978485,0.17574168741703033,0.5452994704246521,1.0721969604492188,0.404501736164093,0.17321665585041046,0.4537581205368042,1.068408727645874,0.36292487382888794,0.10810262709856033,0.5865876078605652,1.1128015518188477,0.12910285592079163,0.16158823668956757,0.46042388677597046,1.1224552392959595,0.032543476670980453,0.17114503681659698
14618.150699364693,0.4890081286430359,0.2654064893722534,-0.7912477850914001,0.9999370574951172,0.5003427267074585,0.2460940033197403,-0.7462045550346375,0.9998539686203003,0.5096606612205505,0.24652354419231415,-0.7464478611946106,0.9998347759246826,0.5190756320953369,0.2469053417444229,-0.7466906905174255,0.9998363256454468,0.4708060026168823,0.24484051764011383,-0.7739075422286987,0.9998328685760498,0.4589644968509674,0.2444523572921753,-0.7740173935890198,0.999815046787262,0.44485771656036377,0.24431459605693817,-0.7742518782615662,0.9998044371604919,0.5227149724960327,0.25663328170776367,-0.4477887451648712,0.9997631907463074,0.41098225116729736,0.2533678114414215,-0.5837497711181641,0.9998180270195007,0.5004792809486389,0.2867707312107086,-0.6738240122795105,0.9999643564224243,0.464216411113739,0.28485631942749023,-0.7131896018981934,0.9999618530273438,0.5896278023719788,0.3780718147754669,-0.22979792952537537,0.9999501705169678,0.3142957091331482,0.3824176788330078,-0.43116459250450134,0.9998685121536255,0.6201421618461609,0.5298536419868469,-0.04517250135540962,0.962050199508667,0.3129085600376129,0.551550030708313,-0.3644210696220398,0.9807220697402954,0.6488925814628601,0.6619564294815063,-0.26104098558425903,0.9472893476486206,0.3600916564464569,0.6717588901519775,-0.5396180748939514,0.9308232665061951,0.6674549579620361,0.7039781212806702,-0.3350140154361725,0.9067875146865845,0.35739681124687195,0.7102251052856445,-0.611469030380249,0.887698233127594,0.6529337167739868,0.7064940929412842,-0.41712889075279236,0.9172251224517822,0.3731802701950073,0.7071307301521301,-0.6859104633331299,0.8953009247779846,0.6403777599334717,0.6985624432563782,-0.29792773723602295,0.9171712398529053,0.3786477744579315,0.6958250999450684,-0.568973958492279,0.8863656520843506,0.5613598227500916,0.6534301042556763,0.02860475704073906,0.9979206919670105,0.4001672863960266,0.6657527089118958,-0.028203267604112625,0.9962215423583984,0.5659116506576538,0.8729363083839417,-0.12553343176841736,0.47161513566970825,0.4167361855506897,0.875544011592865,-0.10956049710512161,0.35779279470443726,0.5571660995483398,1.0499372482299805,0.3879929780960083,0.18100886046886444,0.4441158175468445,1.051471471786499,0.33735010027885437,0.198820099234581,0.5475858449935913,1.073371410369873,0.42211464047431946,0.17955231666564941,0.45212432742118835,1.070608139038086,0.36683526635169983,0.11460162699222565,0.5912771224975586,1.1150143146514893,0.15283815562725067,0.17311324179172516,0.4587644040584564,1.1252226829528809,0.03890380263328552,0.19247384369373322
14634.817366031359,0.4871273934841156,0.26693862676620483,-0.8743128180503845,0.9998956918716431,0.49858230352401733,0.24716438353061676,-0.8285130262374878,0.9997578263282776,0.5081789493560791,0.2474447786808014,-0.8287650346755981,0.9997277855873108,0.5180726051330566,0.24771030247211456,-0.8290224075317383,0.9997199177742004,0.46812576055526733,0.24630075693130493,-0.853435754776001,0.9997065663337708,0.45572641491889954,0.24608971178531647,-0.8535556197166443,0.9996782541275024,0.4418201744556427,0.24599219858646393,-0.8538021445274353,0.9996570348739624,0.5230490565299988,0.25702130794525146,-0.5135323405265808,0.9996141195297241,0.40917378664016724,0.25516387820243835,-0.6361803412437439,0.9996938705444336,0.49935638904571533,0.2881365120410919,-0.7499745488166809,0.999940037727356,0.4620682895183563,0.28651437163352966,-0.7854903936386108,0.9999362230300903,0.5894063115119934,0.37754765152931213,-0.2677600681781769,0.9999369382858276,0.3143043518066406,0.3828847408294678,-0.46275076270103455,0.9998316764831543,0.6181414723396301,0.5294421911239624,-0.07746464014053345,0.9545378088951111,0.3135833740234375,0.5529152154922485,-0.39586341381073,0.9765871167182922,0.6493843793869019,0.6628784537315369,-0.3097052276134491,0.9354261755943298,0.36068254709243774,0.674091100692749,-0.5990291237831116,0.9123855829238892,0.6679962277412415,0.7046375870704651,-0.38623046875,0.8904774785041809,0.35999470949172974,0.7121634483337402,-0.6759265065193176,0.861244261264801,0.6536806225776672,0.7071251273155212,-0.4724726378917694,0.9027711153030396,0.3740951418876648,0.7093815207481384,-0.7558810114860535,0.8708930015563965,0.6416968703269958,0.698786735534668,-0.3487287759780884,0.9017286896705627,0.3784034848213196,0.6980458498001099,-0.6310713887214661,0.861808717250824,0.5597636699676514,0.6522727608680725,0.027087274938821793,0.9975101947784424,0.3987012505531311,0.6651092171669006,-0.026669219136238098,0.9953194260597229,0.5658079981803894,0.875597357749939,-0.11463803052902222,0.4817044734954834,0.4184395670890808,0.8782148361206055,-0.10206712037324905,0.37338384985923767,0.555604875087738,1.05078125,0.40934956073760986,0.20321229100227356,0.4469107389450073,1.0524218082427979,0.3607226610183716,0.21473035216331482,0.5464608669281006,1.0741016864776611,0.4424891471862793,0.18065254390239716,0.4553923010826111,1.071584939956665,0.3906252682209015,0.1278253197669983,0.5872361063957214,1.115855097770691,0.15274064242839813,0.19092130661010742,0.4606162905693054,1.1261030435562134,0.04619515687227249,0.2132449597120285
14651.484032698025,0.4904079735279083,0.26636984944343567,-0.7972647547721863,0.9999297857284546,0.5018214583396912,0.24578113853931427,-0.7522512078285217,0.9998397827148438,0.5115789175033569,0.2458101361989975,-0.7525040507316589,0.9998212456703186,0.5210261344909668,0.24585497379302979,-0.7527602910995483,0.9998196959495544,0.47133997082710266,0.24535268545150757,-0.7795575261116028,0.9998106360435486,0.4588567912578583,0.24521727859973907,-0.7796536684036255,0.9997912049293518,0.4446451961994171,0.24522188305854797,-0.7798857688903809,0.9997777342796326,0.5236189365386963,0.2551318109035492,-0.448996365070343,0.9997535347938538,0.4108743369579315,0.25434330105781555,-0.5822980403900146,0.9998065829277039,0.5019769668579102,0.2872637212276459,-0.6773748397827148,0.9999606609344482,0.4647270739078522,0.2859078347682953,-0.7160011529922485,0.9999579191207886,0.5909665822982788,0.3770400583744049,-0.22124941647052765,0.9999504089355469,0.31332501769065857,0.38191062211990356,-0.4280674457550049,0.9998679161071777,0.6181259155273438,0.5287245512008667,-0.03457023575901985,0.9578355550765991,0.3108375072479248,0.5513232350349426,-0.3651289939880371,0.9806560277938843,0.6499532461166382,0.6621710658073425,-0.2575305700302124,0.9431718587875366,0.359235942363739,0.6713414788246155,-0.5519216656684875,0.9287011027336121,0.6692653298377991,0.7045711874961853,-0.3326108753681183,0.9018425941467285,0.35671648383140564,0.7096620798110962,-0.6265434622764587,0.8841865658760071,0.6547481417655945,0.707017183303833,-0.4169906675815582,0.9128251075744629,0.37290361523628235,0.7061928510665894,-0.7022542953491211,0.8920213580131531,0.6424157619476318,0.6990429162979126,-0.2957708239555359,0.9123988747596741,0.3782222867012024,0.6949182748794556,-0.5821631550788879,0.8830705881118774,0.558907151222229,0.6527248620986938,0.02981451153755188,0.9977719187736511,0.3984421491622925,0.6655610203742981,-0.029365507885813713,0.9959225654602051,0.5655686259269714,0.8765938878059387,-0.11988546699285507,0.5214844346046448,0.41759082674980164,0.8772836327552795,-0.10529778897762299,0.40376248955726624,0.5565930008888245,1.0513286590576172,0.40700411796569824,0.1997881531715393,0.446246474981308,1.0517456531524658,0.3501722514629364,0.2168399691581726,0.5469491481781006,1.0745043754577637,0.4417476952075958,0.1828833669424057,0.45442700386047363,1.0708204507827759,0.3803304135799408,0.12338481843471527,0.5885899662971497,1.117814064025879,0.16497477889060974,0.18256764113903046,0.46129921078681946,1.1258426904678345,0.04671912640333176,0.20670923590660095
14668.15069936469,0.48850223422050476,0.265945166349411,-0.8094189167022705,0.9999390840530396,0.5002477169036865,0.24577955901622772,-0.7641385197639465,0.9998592138290405,0.5100136995315552,0.2459113746881485,-0.7643882632255554,0.9998437166213989,0.5196976065635681,0.24602574110031128,-0.7646417617797852,0.9998421669006348,0.46960532665252686,0.2451978325843811,-0.7897046208381653,0.9998306035995483,0.45726802945137024,0.2450648844242096,-0.7898011207580566,0.99981290102005,0.44325825572013855,0.24507072567939758,-0.7900270819664001,0.999800980091095,0.5236823558807373,0.25543928146362305,-0.4594843089580536,0.9997829794883728,0.4106379747390747,0.25416845083236694,-0.5846298336982727,0.9998230338096619,0.5007765293121338,0.28685083985328674,-0.6892797350883484,0.9999653100967407,0.4632156491279602,0.2854098081588745,-0.7255462408065796,0.999962329864502,0.5910885334014893,0.3766933083534241,-0.2313445806503296,0.9999557733535767,0.31413400173187256,0.3813478350639343,-0.42662540078163147,0.9998742341995239,0.6179299354553223,0.5281558036804199,-0.04832542687654495,0.9626654386520386,0.31041979789733887,0.5498964786529541,-0.3627806007862091,0.9813031554222107,0.6497519612312317,0.6618314385414124,-0.27831169962882996,0.9498263597488403,0.3588363528251648,0.6709467172622681,-0.5542469024658203,0.9307516813278198,0.6688364148139954,0.7044174075126648,-0.35555770993232727,0.9120315313339233,0.3566018044948578,0.7092881202697754,-0.6297516226768494,0.886824369430542,0.6542022228240967,0.7067328691482544,-0.44033634662628174,0.921847939491272,0.3726784586906433,0.7056933641433716,-0.7072219848632812,0.8946186304092407,0.6418123841285706,0.6986660957336426,-0.31676456332206726,0.920535683631897,0.377888947725296,0.6942899227142334,-0.585288405418396,0.8863328695297241,0.557862401008606,0.6520344018936157,0.02805885300040245,0.9979738593101501,0.39812928438186646,0.6643475890159607,-0.02762005850672722,0.9962638020515442,0.5643876791000366,0.8727259635925293,-0.12264624983072281,0.5386183857917786,0.4171396791934967,0.8758546113967896,-0.10480296611785889,0.42343130707740784,0.5565472841262817,1.0489401817321777,0.3987043499946594,0.2156694382429123,0.44571051001548767,1.0496325492858887,0.3463093340396881,0.22891244292259216,0.5470002293586731,1.0719577074050903,0.432687371969223,0.18779081106185913,0.45403096079826355,1.068825602531433,0.3759446144104004,0.1280369609594345,0.5876556634902954,1.1154615879058838,0.1526777446269989,0.19617047905921936,0.46021875739097595,1.1234811544418335,0.04140612110495567,0.2180500477552414
14684.817366031357,0.48074713349342346,0.2678276300430298,-0.894776463508606,0.9999270439147949,0.4937393069267273,0.247732013463974,-0.8484839797019958,0.999825656414032,0.503258228302002,0.2481914609670639,-0.8487322330474854,0.9998062252998352,0.5130215883255005,0.24857598543167114,-0.8489875793457031,0.9998021721839905,0.4630979001522064,0.2466440051794052,-0.8705154657363892,0.999788224697113,0.4500947594642639,0.2463597059249878,-0.8706245422363281,0.9997686743736267,0.4370101988315582,0.24617142975330353,-0.8708570003509521,0.999755322933197,0.5214824676513672,0.25779643654823303,-0.5301439762115479,0.9997339844703674,0.40739136934280396,0.2551497220993042,-0.6392992734909058,0.9997712969779968,0.49426206946372986,0.2891372740268707,-0.7694849371910095,0.9999585151672363,0.45529910922050476,0.2869437634944916,-0.8011733889579773,0.9999544620513916,0.5908867716789246,0.3777424097061157,-0.28740862011909485,0.9999467134475708,0.3131159245967865,0.38267871737480164,-0.45446062088012695,0.9998494386672974,0.6195288896560669,0.5291118025779724,-0.10024524480104446,0.9658624529838562,0.3113812804222107,0.5500767827033997,-0.38208070397377014,0.9769819974899292,0.6491848826408386,0.6621972322463989,-0.34241101145744324,0.9448504447937012,0.357697069644928,0.6719150543212891,-0.5972585082054138,0.9147465229034424,0.6676872968673706,0.7043228149414062,-0.4232408404350281,0.9042399525642395,0.3562172055244446,0.7100106477737427,-0.6763374209403992,0.8646467328071594,0.6524539589881897,0.7064037322998047,-0.510486900806427,0.9147337675094604,0.3719310760498047,0.7068290710449219,-0.7592297196388245,0.8743655681610107,0.640068531036377,0.6986268758773804,-0.38180267810821533,0.9128309488296509,0.37678688764572144,0.6952511072158813,-0.6308411359786987,0.8652063608169556,0.5591281056404114,0.6519333720207214,0.0198713019490242,0.997753918170929,0.39936354756355286,0.6645810604095459,-0.019468316808342934,0.9956555366516113,0.5655933618545532,0.8724013566970825,-0.12798765301704407,0.5395225882530212,0.4156586825847626,0.8753857016563416,-0.09691217541694641,0.4316078722476959,0.5566573143005371,1.05118989944458,0.403624564409256,0.2416699379682541,0.4453951120376587,1.051872730255127,0.3645343482494354,0.24707187712192535,0.5484296083450317,1.0743019580841064,0.43735581636428833,0.19363808631896973,0.4543619453907013,1.071251630783081,0.39436811208724976,0.1445533186197281,0.5838156938552856,1.1170576810836792,0.1408267468214035,0.21736033260822296,0.45840099453926086,1.125321865081787,0.04790796339511871,0.23541437089443207
14701.484032698023,0.4825055003166199,0.26777857542037964,-0.9015392661094666,0.9999356269836426,0.4950770139694214,0.24754980206489563,-0.8561733961105347,0.9998496770858765,0.5044727921485901,0.2478228211402893,-0.8564245700836182,0.9998313188552856,0.51421058177948,0.24796916544437408,-0.8566977381706238,0.9998297691345215,0.4647570252418518,0.2469092160463333,-0.8781067728996277,0.9998143315315247,0.4520525336265564,0.24676883220672607,-0.8782113194465637,0.9997932314872742,0.43860071897506714,0.24664781987667084,-0.8784366250038147,0.9997816681861877,0.521956205368042,0.2572116255760193,-0.5397201776504517,0.999775230884552,0.40777188539505005,0.25566205382347107,-0.6486393809318542,0.9997929930686951,0.49587443470954895,0.28887414932250977,-0.7763978838920593,0.9999641180038452,0.4578099250793457,0.28719189763069153,-0.8080428242683411,0.9999592304229736,0.5910083055496216,0.3775359094142914,-0.29946279525756836,0.9999527931213379,0.31351345777511597,0.3823918104171753,-0.4593939483165741,0.9998533725738525,0.6193585395812988,0.5286346077919006,-0.11306530982255936,0.9665146470069885,0.31098589301109314,0.5502544641494751,-0.3848685026168823,0.9755546450614929,0.6498190760612488,0.6623947024345398,-0.35112500190734863,0.9465420842170715,0.358839750289917,0.6733840107917786,-0.5981334447860718,0.9138594269752502,0.6684982180595398,0.704246461391449,-0.43159815669059753,0.9073757529258728,0.3579768240451813,0.711277961730957,-0.6760208010673523,0.8654864430427551,0.6533259153366089,0.7064783573150635,-0.5182629227638245,0.9177496433258057,0.3720952868461609,0.7083743810653687,-0.7591229677200317,0.8754784464836121,0.640880823135376,0.6986594796180725,-0.39006203413009644,0.9160255789756775,0.3763941526412964,0.6966878771781921,-0.6317773461341858,0.8667852282524109,0.5596534609794617,0.6514533758163452,0.01511907484382391,0.997869610786438,0.3990263342857361,0.6637901663780212,-0.014712422154843807,0.9957005381584167,0.5653971433639526,0.8718686103820801,-0.1429358720779419,0.5175154209136963,0.4151137173175812,0.8751240372657776,-0.09584829211235046,0.4002141058444977,0.5555111169815063,1.0513254404067993,0.3864418864250183,0.2238263338804245,0.4460579454898834,1.0528924465179443,0.36108702421188354,0.2317332923412323,0.5476824045181274,1.0744543075561523,0.4204118847846985,0.18529334664344788,0.45564860105514526,1.0726114511489868,0.39075958728790283,0.1402023881673813,0.5832887291908264,1.1170122623443604,0.1294296830892563,0.20751434564590454,0.45723864436149597,1.12601900100708,0.04954342171549797,0.22275401651859283
14718.150699364689,0.48169028759002686,0.26852133870124817,-0.9076616764068604,0.9999290704727173,0.494567334651947,0.24794667959213257,-0.8635439276695251,0.9998327493667603,0.5039652585983276,0.24826538562774658,-0.8637933731079102,0.999811589717865,0.5136400461196899,0.24842523038387299,-0.8640656471252441,0.9998070597648621,0.46412259340286255,0.2473130077123642,-0.8848510980606079,0.9997979998588562,0.45116126537323,0.2471962571144104,-0.884958028793335,0.999777615070343,0.4377003014087677,0.24712583422660828,-0.8851916193962097,0.999765932559967,0.5209990739822388,0.2578151822090149,-0.5503935217857361,0.9997410178184509,0.4071384370326996,0.2564878463745117,-0.6567444205284119,0.9997848868370056,0.49521610140800476,0.2900317311286926,-0.7835038304328918,0.9999586343765259,0.4567584693431854,0.28829532861709595,-0.8143986463546753,0.999955415725708,0.5911328792572021,0.37796834111213684,-0.3068835139274597,0.9999449253082275,0.3127065896987915,0.3832423686981201,-0.4699523150920868,0.9998600482940674,0.6174479722976685,0.5296920537948608,-0.1181071475148201,0.9632736444473267,0.3109998404979706,0.5509973168373108,-0.3973810076713562,0.9774182438850403,0.6496099233627319,0.6643248796463013,-0.3477846384048462,0.9393762350082397,0.357541561126709,0.6747554540634155,-0.6056340336799622,0.9163143634796143,0.6685918569564819,0.7061482667922974,-0.42632246017456055,0.8967146873474121,0.3572913408279419,0.7133959531784058,-0.6819704174995422,0.8678456544876099,0.6535958051681519,0.708538830280304,-0.5117528438568115,0.9082826375961304,0.37142184376716614,0.7099717259407043,-0.7646127343177795,0.8778693675994873,0.64164137840271,0.7004683017730713,-0.38626351952552795,0.9075687527656555,0.37578365206718445,0.6979389786720276,-0.6389504075050354,0.8700320720672607,0.5583510398864746,0.6522001028060913,0.016586098819971085,0.9976537823677063,0.3985850512981415,0.6643433570861816,-0.01614997163414955,0.9954543113708496,0.5647969245910645,0.8723167181015015,-0.1389842927455902,0.4933294653892517,0.41510993242263794,0.8749017119407654,-0.09867552667856216,0.39411216974258423,0.5558871626853943,1.0491020679473877,0.38130682706832886,0.20271755754947662,0.4416836202144623,1.0490331649780273,0.35291746258735657,0.214736670255661,0.5476539134979248,1.0726513862609863,0.4144255816936493,0.17978110909461975,0.45040369033813477,1.068760633468628,0.38243937492370605,0.13448266685009003,0.585635244846344,1.1132445335388184,0.1283496469259262,0.1817239224910736,0.4523169994354248,1.1210728883743286,0.044670220464468,0.19986355304718018
14734.817366031355,0.4826660454273224,0.26684337854385376,-0.8745591640472412,0.9999078512191772,0.49510493874549866,0.24635227024555206,-0.829042911529541,0.9997881054878235,0.5048527717590332,0.24659082293510437,-0.8293054103851318,0.9997594952583313,0.5147888660430908,0.24662846326828003,-0.8295787572860718,0.9997552037239075,0.46420973539352417,0.24611598253250122,-0.8516954779624939,0.9997473359107971,0.4508012533187866,0.24622087180614471,-0.8517976403236389,0.9997208714485168,0.4372560381889343,0.24641115963459015,-0.8520463705062866,0.9997100234031677,0.5221906900405884,0.25622716546058655,-0.5155997276306152,0.9996598958969116,0.40671831369400024,0.25615188479423523,-0.6275506019592285,0.9997370839118958,0.49665361642837524,0.2885989546775818,-0.7508787512779236,0.9999454021453857,0.45737379789352417,0.28744086623191833,-0.783357560634613,0.9999433755874634,0.5905703902244568,0.3773612678050995,-0.27131447196006775,0.9999310970306396,0.31238996982574463,0.3835178017616272,-0.4522678256034851,0.99983811378479,0.6169118881225586,0.529793381690979,-0.08479060232639313,0.9567177295684814,0.31327757239341736,0.553791880607605,-0.3843841850757599,0.9766433835029602,0.6482341289520264,0.6632471084594727,-0.3161952793598175,0.9325850605964661,0.3569302558898926,0.675885021686554,-0.5922946929931641,0.9150675535202026,0.667693018913269,0.7047296166419983,-0.39411380887031555,0.8867429494857788,0.3570631146430969,0.7143999338150024,-0.669522225856781,0.8654552698135376,0.6533812880516052,0.7074962854385376,-0.47914958000183105,0.8993604183197021,0.37060147523880005,0.7108173370361328,-0.7516092658042908,0.8755202293395996,0.6411663889884949,0.6996062994003296,-0.35482296347618103,0.8984443545341492,0.3747408092021942,0.6991825699806213,-0.6253363490104675,0.8669953346252441,0.5576053857803345,0.6530670523643494,0.023461850360035896,0.9973747730255127,0.39841896295547485,0.6660670042037964,-0.0230223648250103,0.9951646327972412,0.5653082132339478,0.8775363564491272,-0.12139776349067688,0.48436903953552246,0.41790276765823364,0.8811082243919373,-0.10106639564037323,0.3865874409675598,0.5444934368133545,1.045499324798584,0.38826802372932434,0.19634802639484406,0.44604620337486267,1.0533812046051025,0.3469295799732208,0.2052716612815857,0.5515708327293396,1.076741337776184,0.4198448061943054,0.17100852727890015,0.45434266328811646,1.07313072681427,0.37578094005584717,0.12679104506969452,0.5908803939819336,1.1165552139282227,0.12910372018814087,0.17296317219734192,0.4590120017528534,1.1253457069396973,0.03315979987382889,0.19360101222991943
14751.484032698021,0.4867008328437805,0.2667289674282074,-0.8453013300895691,0.9999251365661621,0.4988093078136444,0.24607673287391663,-0.8008800148963928,0.9998328685760498,0.5085135102272034,0.24606642127037048,-0.8011366128921509,0.9998107552528381,0.5182609558105469,0.2459542453289032,-0.8014124631881714,0.9998080134391785,0.46819961071014404,0.24611055850982666,-0.8243449926376343,0.9998005032539368,0.4557000994682312,0.24620400369167328,-0.82444828748703,0.999778687953949,0.4413079023361206,0.24636970460414886,-0.8246816992759705,0.9997690320014954,0.5238887071609497,0.25555166602134705,-0.4945301413536072,0.9997360110282898,0.4084080457687378,0.25582948327064514,-0.6103434562683105,0.9997962117195129,0.49973756074905396,0.28798508644104004,-0.7240604162216187,0.999956488609314,0.46148568391799927,0.28723156452178955,-0.7576337456703186,0.9999548196792603,0.5907286405563354,0.37720420956611633,-0.2596111297607422,0.9999408721923828,0.3142845034599304,0.38196760416030884,-0.4429270327091217,0.999852180480957,0.6175364255905151,0.5288646817207336,-0.07702727615833282,0.956506073474884,0.3116108775138855,0.5521804094314575,-0.375826358795166,0.9787453413009644,0.6489081978797913,0.662867546081543,-0.29919975996017456,0.9368346929550171,0.3577648997306824,0.6752715110778809,-0.5684506297111511,0.9217026829719543,0.6680620312690735,0.7049534916877747,-0.374668151140213,0.8929953575134277,0.3581518828868866,0.7142376899719238,-0.6423442363739014,0.873897910118103,0.6536672115325928,0.7075507044792175,-0.45793038606643677,0.9048240184783936,0.37157151103019714,0.7106297612190247,-0.7203782200813293,0.8832046389579773,0.6417558789253235,0.6994709372520447,-0.3368114233016968,0.9044890999794006,0.3756552040576935,0.6986815929412842,-0.5996824502944946,0.8757861256599426,0.5581459403038025,0.6519879102706909,0.024440553039312363,0.9975564479827881,0.39882200956344604,0.6647297739982605,-0.02402399852871895,0.9954591989517212,0.5659098625183105,0.8769707679748535,-0.13059109449386597,0.4885949194431305,0.41703417897224426,0.8802753686904907,-0.10579556226730347,0.37826913595199585,0.5578839778900146,1.051008939743042,0.3805078864097595,0.18866463005542755,0.446247398853302,1.0513101816177368,0.3378065526485443,0.20072996616363525,0.5488983988761902,1.0745166540145874,0.4131995737552643,0.17103800177574158,0.454511821269989,1.0707221031188965,0.3668349087238312,0.11891850084066391,0.5893641710281372,1.1160420179367065,0.13383404910564423,0.16921041905879974,0.4599483907222748,1.1240437030792236,0.03335642069578171,0.19003495573997498
14768.150699364687,0.4843604266643524,0.2688687741756439,-0.8582054376602173,0.999923586845398,0.4970392882823944,0.24834126234054565,-0.8147745728492737,0.9998270869255066,0.5063644051551819,0.24853339791297913,-0.8150293231010437,0.9998030066490173,0.5158507823944092,0.24859720468521118,-0.8153048753738403,0.999799907207489,0.46649789810180664,0.24773858487606049,-0.8377783298492432,0.9997965693473816,0.45333924889564514,0.2474830001592636,-0.8378864526748657,0.9997740387916565,0.43978172540664673,0.24719834327697754,-0.8381185531616211,0.9997616410255432,0.5230756998062134,0.257040411233902,-0.5084377527236938,0.9997243285179138,0.4087670147418976,0.2555480897426605,-0.6227898001670837,0.9997939467430115,0.49794721603393555,0.2897284924983978,-0.7365530133247375,0.9999555349349976,0.459198534488678,0.2881941497325897,-0.7696582078933716,0.9999532699584961,0.5912814736366272,0.3764200806617737,-0.269085556268692,0.9999411106109619,0.31390538811683655,0.3815601170063019,-0.45275360345840454,0.999860405921936,0.618831992149353,0.5284163951873779,-0.08201894164085388,0.9575648307800293,0.31258445978164673,0.5524003505706787,-0.38290342688560486,0.9772530198097229,0.6489272117614746,0.6628974676132202,-0.2979196310043335,0.9342706799507141,0.35766494274139404,0.6765702962875366,-0.5735733509063721,0.9118821620941162,0.6666916608810425,0.7049124836921692,-0.3723136782646179,0.8881131410598755,0.35805410146713257,0.7149091362953186,-0.6466332077980042,0.8607978224754333,0.6527482271194458,0.7077069878578186,-0.45498257875442505,0.9005687832832336,0.37056729197502136,0.7116912007331848,-0.7250639200210571,0.871000349521637,0.6407638192176819,0.6996428370475769,-0.33503207564353943,0.9007836580276489,0.37461578845977783,0.7001577019691467,-0.6049109697341919,0.8641532063484192,0.5584476590156555,0.6519526243209839,0.025236826390028,0.9974150657653809,0.4000006914138794,0.6654008030891418,-0.02479374222457409,0.9953102469444275,0.5647464990615845,0.8756909966468811,-0.1243901476264,0.45536667108535767,0.4164641499519348,0.8758314251899719,-0.10596287250518799,0.35793575644493103,0.5564142465591431,1.0506393909454346,0.37089699506759644,0.1728334277868271,0.4324767589569092,1.0428602695465088,0.32683756947517395,0.18738043308258057,0.547092616558075,1.074761152267456,0.40217292308807373,0.1687217652797699,0.4512731432914734,1.0711055994033813,0.35462555289268494,0.11356927454471588,0.590786337852478,1.1140002012252808,0.12591899931430817,0.15705765783786774,0.45608487725257874,1.1242355108261108,0.022181712090969086,0.17595553398132324
14784.817366031353,0.4820006191730499,0.2671508491039276,-0.9510796666145325,0.9998725652694702,0.49499157071113586,0.24731063842773438,-0.9066236615180969,0.9997074007987976,0.5046699643135071,0.2475835382938385,-0.9068653583526611,0.9996746778488159,0.5147061347961426,0.2477734386920929,-0.9071239829063416,0.9996664524078369,0.4641023278236389,0.24691595137119293,-0.9290608763694763,0.9996289014816284,0.4506691098213196,0.2468279004096985,-0.9291998147964478,0.9995915293693542,0.43761175870895386,0.24668237566947937,-0.9294437766075134,0.9995545744895935,0.5235497951507568,0.25694167613983154,-0.5868703126907349,0.9995187520980835,0.40830233693122864,0.25560787320137024,-0.6992005109786987,0.9995928406715393,0.4965737760066986,0.28838327527046204,-0.8244807124137878,0.9999247789382935,0.4568587839603424,0.28678929805755615,-0.8569126725196838,0.9999158382415771,0.5906762480735779,0.3779517710208893,-0.32861554622650146,0.9999241828918457,0.31518080830574036,0.38254716992378235,-0.5073335766792297,0.9997702240943909,0.6150807738304138,0.5309062600135803,-0.14066463708877563,0.9540265798568726,0.3120306134223938,0.552591860294342,-0.4287693500518799,0.9715187549591064,0.6469768285751343,0.6631760597229004,-0.37087875604629517,0.9259324073791504,0.3568653464317322,0.6747663021087646,-0.6265805959701538,0.8776836395263672,0.6659045815467834,0.7038765549659729,-0.4476080536842346,0.8732019066810608,0.3566076159477234,0.7129337191581726,-0.7004520893096924,0.811575710773468,0.6506862640380859,0.7072464823722839,-0.5332918763160706,0.8873723149299622,0.36935508251190186,0.7101566791534424,-0.7821683883666992,0.8245895504951477,0.6388956904411316,0.6990275979042053,-0.4096086323261261,0.8880897164344788,0.37374794483184814,0.699118971824646,-0.6593185663223267,0.8190618753433228,0.555020809173584,0.6496054530143738,0.026393668726086617,0.9969543218612671,0.39784860610961914,0.6613163352012634,-0.026015060022473335,0.9939646124839783,0.5639216899871826,0.8713546395301819,-0.11593843996524811,0.4105585515499115,0.4177853465080261,0.8758774995803833,-0.10558175295591354,0.32279661297798157,0.5532726645469666,1.048917531967163,0.377609521150589,0.18776318430900574,0.4430026710033417,1.0496001243591309,0.3400246500968933,0.18923333287239075,0.5440306067466736,1.0730621814727783,0.40695083141326904,0.17830024659633636,0.4505961239337921,1.068992018699646,0.36741966009140015,0.11791054159402847,0.5876438021659851,1.1116830110549927,0.11045609414577484,0.17434917390346527,0.4569372534751892,1.1229517459869385,0.016460970044136047,0.1884193867444992
14801.48403269802,0.4838848114013672,0.2693225145339966,-0.9210565090179443,0.9999234676361084,0.49677133560180664,0.2485222965478897,-0.8773444294929504,0.9998229146003723,0.5063155889511108,0.24859090149402618,-0.8775830864906311,0.9997989535331726,0.5160503387451172,0.2485421597957611,-0.8778464198112488,0.9997901320457458,0.4660262167453766,0.24847078323364258,-0.900846540927887,0.9997851252555847,0.4526273012161255,0.24842065572738647,-0.9009605646133423,0.9997621178627014,0.43917766213417053,0.24828200042247772,-0.9011955857276917,0.9997411370277405,0.5244454741477966,0.25703588128089905,-0.5603737235069275,0.9997108578681946,0.40821918845176697,0.25687137246131897,-0.6774165034294128,0.9997885823249817,0.49840718507766724,0.2900521159172058,-0.794937789440155,0.9999557733535767,0.4595269560813904,0.2888662815093994,-0.8287736773490906,0.9999532699584961,0.5917669534683228,0.37724626064300537,-0.3000047504901886,0.9999468326568604,0.3130459189414978,0.38102859258651733,-0.49581480026245117,0.9998704195022583,0.6181563138961792,0.5288376212120056,-0.1040099710226059,0.9593460559844971,0.31123751401901245,0.5506377816200256,-0.42282024025917053,0.9798516631126404,0.6490725874900818,0.6619607210159302,-0.3289288878440857,0.9379837512969971,0.35506701469421387,0.6743646264076233,-0.6197078824043274,0.9146960377693176,0.6659491062164307,0.7048006057739258,-0.4050076901912689,0.8919462561607361,0.3579477071762085,0.7128414511680603,-0.6944262981414795,0.8614150285720825,0.6518023014068604,0.7077389359474182,-0.48986488580703735,0.9044070839881897,0.3717186748981476,0.7095960378646851,-0.7758315801620483,0.8716228604316711,0.6409475803375244,0.6992049813270569,-0.3672642707824707,0.9037967920303345,0.37503209710121155,0.6982275247573853,-0.6520562767982483,0.864816427230835,0.5564457178115845,0.6509777903556824,0.029130488634109497,0.9975259900093079,0.3995438814163208,0.6635838747024536,-0.02868816815316677,0.9953704476356506,0.5649701356887817,0.872880756855011,-0.11457451432943344,0.46168050169944763,0.4176205098628998,0.876313328742981,-0.10496842861175537,0.3690740168094635,0.5567742586135864,1.0521533489227295,0.3758281171321869,0.19626303017139435,0.44329744577407837,1.0525315999984741,0.3360782265663147,0.1984981745481491,0.5470584630966187,1.077015995979309,0.4054311513900757,0.18322871625423431,0.4510827362537384,1.0722354650497437,0.36376142501831055,0.12310145795345306,0.593844473361969,1.114210605621338,0.11550737917423248,0.17406737804412842,0.4558587670326233,1.125107765197754,0.01871071197092533,0.1895558387041092
14818.150699364685,0.48204198479652405,0.2686913013458252,-0.9509631395339966,0.9999197721481323,0.4952963888645172,0.24785718321800232,-0.9063443541526794,0.9998154044151306,0.5048331618309021,0.2482336014509201,-0.9065907597541809,0.9997943043708801,0.5144826769828796,0.24829551577568054,-0.9068527817726135,0.999789297580719,0.4645116925239563,0.24742577970027924,-0.9280178546905518,0.9997671246528625,0.4507136046886444,0.24747662246227264,-0.9281218647956848,0.9997380375862122,0.43732142448425293,0.24744002521038055,-0.9283517003059387,0.9997116923332214,0.5232223868370056,0.2572006285190582,-0.5873771905899048,0.9997156262397766,0.4070828855037689,0.25685206055641174,-0.695848286151886,0.9997435212135315,0.4964611530303955,0.2901521325111389,-0.8248199224472046,0.9999532699584961,0.4564860761165619,0.28881582617759705,-0.8562250733375549,0.999945878982544,0.5920630097389221,0.3775964379310608,-0.3347984850406647,0.9999465942382812,0.31429558992385864,0.38176774978637695,-0.5039981007575989,0.9998396635055542,0.6182487607002258,0.5298277735710144,-0.1491958498954773,0.9668228030204773,0.3130783438682556,0.5503551363945007,-0.4265689551830292,0.9767016172409058,0.6499074697494507,0.6629987955093384,-0.3840978741645813,0.9457311630249023,0.3557354509830475,0.6728919744491577,-0.631454348564148,0.9059925079345703,0.6678061485290527,0.7059745788574219,-0.4641731381416321,0.9026873707771301,0.3548550307750702,0.7110480070114136,-0.7074510455131531,0.8505718111991882,0.6527091860771179,0.708581268787384,-0.5502111911773682,0.9141479134559631,0.36858218908309937,0.7083138823509216,-0.7925668358802795,0.8622431755065918,0.6407862305641174,0.7004132866859436,-0.422942191362381,0.9130743145942688,0.3731812834739685,0.696936845779419,-0.6658017039299011,0.8555802702903748,0.556983232498169,0.6515209674835205,0.02038642205297947,0.9973376393318176,0.39911478757858276,0.6639869809150696,-0.019928278401494026,0.994888961315155,0.5636526346206665,0.8703988790512085,-0.1221749484539032,0.4526943862438202,0.4171149730682373,0.8723700642585754,-0.09474752098321915,0.37374019622802734,0.5601306557655334,1.050356149673462,0.3628772795200348,0.19451835751533508,0.4315692186355591,1.0440781116485596,0.3409920334815979,0.1970846801996231,0.5517793297767639,1.0755914449691772,0.39145034551620483,0.17712078988552094,0.4503242075443268,1.0707074403762817,0.3679688274860382,0.12783417105674744,0.594819188117981,1.1110153198242188,0.09566304087638855,0.17030398547649384,0.45116642117500305,1.1219725608825684,0.021977663040161133,0.1848219931125641
14834.817366031351,0.48187416791915894,0.2707240581512451,-0.923075795173645,0.9999063014984131,0.4953854978084564,0.2506110370159149,-0.8798778057098389,0.999784529209137,0.5050729513168335,0.2509589195251465,-0.8801104426383972,0.9997524619102478,0.5147784352302551,0.2510158121585846,-0.8803682327270508,0.9997515082359314,0.46459025144577026,0.24969245493412018,-0.9008398056030273,0.9997382760047913,0.45180022716522217,0.2493639588356018,-0.9009347558021545,0.9997034668922424,0.43812692165374756,0.24930225312709808,-0.9011781215667725,0.9996933937072754,0.5213267207145691,0.260139137506485,-0.5704411864280701,0.9996339082717896,0.4079977571964264,0.257843554019928,-0.6760513782501221,0.9997120499610901,0.49614059925079346,0.2924715578556061,-0.8005644679069519,0.9999436140060425,0.4570048451423645,0.29014813899993896,-0.8311064839363098,0.9999405145645142,0.5894601941108704,0.37915411591529846,-0.32522016763687134,0.999930739402771,0.3142693042755127,0.3821517825126648,-0.49031445384025574,0.9998281002044678,0.61551433801651,0.5290311574935913,-0.14841125905513763,0.9591140151023865,0.31177088618278503,0.5543550252914429,-0.41324707865715027,0.9754289388656616,0.6469477415084839,0.6630857586860657,-0.37711140513420105,0.9341031908988953,0.3551800549030304,0.676214337348938,-0.6047717332839966,0.9030240774154663,0.6666193008422852,0.7041559815406799,-0.4545190930366516,0.8860216736793518,0.3537810742855072,0.7148398756980896,-0.6769405603408813,0.8446791172027588,0.6520141363143921,0.7068150639533997,-0.5367912650108337,0.8990302085876465,0.36767369508743286,0.7127422094345093,-0.75830078125,0.8564829230308533,0.6400892734527588,0.6989683508872986,-0.4145095944404602,0.8987789750099182,0.3729221224784851,0.7015211582183838,-0.6372174024581909,0.8511819243431091,0.5551625490188599,0.6509270071983337,0.02042195573449135,0.9968144297599792,0.39899927377700806,0.6624297499656677,-0.020032813772559166,0.9942348599433899,0.5606874823570251,0.8747149705886841,-0.10893138498067856,0.4202885329723358,0.419508159160614,0.8751504421234131,-0.09612655639648438,0.33703699707984924,0.5555610656738281,1.0469971895217896,0.3656821846961975,0.18020083010196686,0.446811705827713,1.0471527576446533,0.3340810537338257,0.17947518825531006,0.5479180812835693,1.0710653066635132,0.3933938443660736,0.167556494474411,0.45491117238998413,1.0665769577026367,0.36103031039237976,0.11874706298112869,0.5868161916732788,1.1089969873428345,0.10412371158599854,0.16075438261032104,0.4591043293476105,1.1189180612564087,0.022049255669116974,0.17455609142780304
14851.484032698017,0.48284366726875305,0.2712165117263794,-0.9058665037155151,0.9999269247055054,0.49691569805145264,0.25116705894470215,-0.8625010848045349,0.999832034111023,0.5068400502204895,0.25147727131843567,-0.8627316951751709,0.9998070597648621,0.516800582408905,0.25143173336982727,-0.8629887104034424,0.9998039603233337,0.4651505649089813,0.25024113059043884,-0.884407103061676,0.9997984766960144,0.4515533745288849,0.24990643560886383,-0.8845142126083374,0.9997760653495789,0.43737348914146423,0.249723419547081,-0.8847437500953674,0.9997686743736267,0.5238720774650574,0.26033639907836914,-0.551416277885437,0.9997206330299377,0.40661439299583435,0.25820332765579224,-0.6609835624694824,0.9997947812080383,0.4971131980419159,0.2928062677383423,-0.7824946045875549,0.9999568462371826,0.4572679400444031,0.2910279929637909,-0.8141579627990723,0.9999558925628662,0.5885027647018433,0.37834057211875916,-0.30018895864486694,0.9999427795410156,0.31477707624435425,0.38177505135536194,-0.48050186038017273,0.999862790107727,0.6183149814605713,0.5300071239471436,-0.11364919692277908,0.9606305360794067,0.31055399775505066,0.553126871585846,-0.40914425253868103,0.9788119196891785,0.650408148765564,0.6623838543891907,-0.34446749091148376,0.9391152858734131,0.35571321845054626,0.6752688884735107,-0.6109402775764465,0.9157698154449463,0.6683304905891418,0.7045058608055115,-0.42188113927841187,0.893663763999939,0.35554665327072144,0.7120221257209778,-0.6866627931594849,0.8624409437179565,0.6546352505683899,0.7067681550979614,-0.5063141584396362,0.9055330157279968,0.37284672260284424,0.709736704826355,-0.7664775252342224,0.8724584579467773,0.6427425146102905,0.698891282081604,-0.38276153802871704,0.905023455619812,0.37677475810050964,0.6982964277267456,-0.6428762674331665,0.8662829995155334,0.5557457208633423,0.6510431170463562,0.02539457567036152,0.9972923398017883,0.3983830213546753,0.6640774607658386,-0.025008924305438995,0.9950586557388306,0.5626837015151978,0.8732287287712097,-0.11032813042402267,0.4858773946762085,0.41950035095214844,0.8767498731613159,-0.10068921744823456,0.38788312673568726,0.5580859780311584,1.0510517358779907,0.3814418315887451,0.21192042529582977,0.45071327686309814,1.0528749227523804,0.33571967482566833,0.2129543572664261,0.5496698021888733,1.074729084968567,0.41103053092956543,0.17747223377227783,0.459177702665329,1.0717692375183105,0.36299481987953186,0.12429063767194748,0.58957839012146,1.1152642965316772,0.12044098973274231,0.18978463113307953,0.46651726961135864,1.126807689666748,0.020341185852885246,0.20474733412265778
14868.150699364684,0.4837225079536438,0.2720285654067993,-0.9001874327659607,0.9999332427978516,0.4976406395435333,0.2512623369693756,-0.8574618101119995,0.999840259552002,0.5075040459632874,0.2514646649360657,-0.8576907515525818,0.9998201727867126,0.5172157287597656,0.25137123465538025,-0.8579393029212952,0.999815046787262,0.46587368845939636,0.2505275011062622,-0.8801656365394592,0.9998063445091248,0.4526367485523224,0.25021323561668396,-0.8802850246429443,0.9997859597206116,0.43814167380332947,0.2501349449157715,-0.8805156946182251,0.999771773815155,0.5230948328971863,0.25975704193115234,-0.5524588227272034,0.9997488856315613,0.40737465023994446,0.25791311264038086,-0.6662706732749939,0.9997938275337219,0.49759766459465027,0.2937805652618408,-0.7790576219558716,0.9999611377716064,0.45785796642303467,0.29153943061828613,-0.8119550943374634,0.9999576807022095,0.5894196629524231,0.37670424580574036,-0.3144075870513916,0.9999526739120483,0.3116062879562378,0.38386210799217224,-0.4848431944847107,0.9998574256896973,0.6158286333084106,0.5281549096107483,-0.12442297488451004,0.9656153917312622,0.31274712085723877,0.553617000579834,-0.40593937039375305,0.9785315990447998,0.6496673822402954,0.6621904969215393,-0.3427533805370331,0.9491908550262451,0.35783523321151733,0.6747233271598816,-0.589215874671936,0.9241958856582642,0.6676609516143799,0.7056474685668945,-0.4168758690357208,0.9104579091072083,0.3597542941570282,0.7118173241615295,-0.6605891585350037,0.8778035640716553,0.6538229584693909,0.707733154296875,-0.4993618130683899,0.9202656745910645,0.37555721402168274,0.7086941003799438,-0.7400186061859131,0.8870848417282104,0.6419064998626709,0.6999690532684326,-0.3793579041957855,0.9206084609031677,0.37873390316963196,0.6977068185806274,-0.620625913143158,0.8819739818572998,0.5547230839729309,0.6535267233848572,0.020510800182819366,0.9976988434791565,0.3984971344470978,0.6657301187515259,-0.020161740481853485,0.995445728302002,0.5588973760604858,0.8743788003921509,-0.11434963345527649,0.4362715184688568,0.41777312755584717,0.8739961981773376,-0.09433292597532272,0.32407912611961365,0.5546137094497681,1.045931339263916,0.39372894167900085,0.17591802775859833,0.44649171829223633,1.0496091842651367,0.3533131778240204,0.1801874190568924,0.547289252281189,1.0687810182571411,0.42636939883232117,0.16394688189029694,0.4551393389701843,1.0682348012924194,0.38268905878067017,0.11157192289829254,0.5829497575759888,1.1111167669296265,0.15113823115825653,0.16785411536693573,0.4602622985839844,1.1238641738891602,0.052591219544410706,0.17840513586997986
14884.81736603135,0.48403435945510864,0.2709442675113678,-0.9010909795761108,0.9999397993087769,0.4981282651424408,0.2504575252532959,-0.8578904271125793,0.9998583793640137,0.508074939250946,0.2507184147834778,-0.8581131100654602,0.9998388290405273,0.5177531838417053,0.25074800848960876,-0.8583577275276184,0.999836802482605,0.46665751934051514,0.24968905746936798,-0.8805410861968994,0.9998289346694946,0.45356857776641846,0.24931953847408295,-0.8806578516960144,0.9998086094856262,0.43879973888397217,0.24927867949008942,-0.8808939456939697,0.9997984766960144,0.5238240957260132,0.25949642062187195,-0.5518854260444641,0.9997743964195251,0.4076918363571167,0.2573933005332947,-0.6656415462493896,0.999813973903656,0.4975670278072357,0.29299017786979675,-0.7798891067504883,0.9999656677246094,0.4576565623283386,0.2908681035041809,-0.8127551674842834,0.999962568283081,0.5910156965255737,0.37679460644721985,-0.3138889968395233,0.9999533891677856,0.3119201064109802,0.38410231471061707,-0.4839150011539459,0.9998641014099121,0.6177873015403748,0.5304495096206665,-0.12707355618476868,0.9666054248809814,0.3140701651573181,0.5548403263092041,-0.4069582223892212,0.9776843786239624,0.6509571075439453,0.6639419794082642,-0.3526328206062317,0.9526309370994568,0.3588234782218933,0.6753386855125427,-0.5967728495597839,0.9237151145935059,0.6702414751052856,0.7080053687095642,-0.4288959801197052,0.9154008626937866,0.3609200716018677,0.7123547196388245,-0.6695523262023926,0.8771567344665527,0.6552783250808716,0.7098950743675232,-0.5123926997184753,0.9248263835906982,0.3765637278556824,0.7097706198692322,-0.749363124370575,0.8863423466682434,0.6427389979362488,0.7019981741905212,-0.3898572623729706,0.924325704574585,0.37964847683906555,0.6989198923110962,-0.6284128427505493,0.8808605074882507,0.5568287372589111,0.6538963913917542,0.021260941401124,0.9976701140403748,0.4004875719547272,0.6658778190612793,-0.020910225808620453,0.9956270456314087,0.5599257349967957,0.8739899396896362,-0.10952141880989075,0.4549674987792969,0.4187992215156555,0.8740659952163696,-0.09491292387247086,0.3443138003349304,0.5559542775154114,1.0485759973526,0.39829036593437195,0.18894131481647491,0.4482048749923706,1.0535064935684204,0.3517155051231384,0.19463510811328888,0.5483250021934509,1.0714893341064453,0.4304831922054291,0.17105792462825775,0.4570540189743042,1.0721849203109741,0.3805672824382782,0.11588116735219955,0.5847005248069763,1.1138439178466797,0.1509360671043396,0.18067125976085663,0.4623522162437439,1.128227710723877,0.04650362953543663,0.19177299737930298
14901.484032698016,0.48387616872787476,0.2709842324256897,-0.9180052280426025,0.9999336004257202,0.4980491101741791,0.25049006938934326,-0.8750696182250977,0.9998434782028198,0.5079476833343506,0.25075092911720276,-0.8752908706665039,0.9998217225074768,0.5175922513008118,0.25076568126678467,-0.8755354881286621,0.9998189806938171,0.46667739748954773,0.24972200393676758,-0.8973960876464844,0.9998107552528381,0.4536155164241791,0.24933864176273346,-0.8975178003311157,0.9997889399528503,0.4388677477836609,0.24928009510040283,-0.8977557420730591,0.9997770190238953,0.5237661004066467,0.2594687044620514,-0.5679367184638977,0.9997488856315613,0.4077366292476654,0.2574039697647095,-0.680680513381958,0.9997934699058533,0.4973544180393219,0.2929978668689728,-0.7962606549263,0.9999622106552124,0.4575135111808777,0.2908852994441986,-0.8288241624832153,0.9999589920043945,0.591185450553894,0.37645667791366577,-0.32749614119529724,0.9999508857727051,0.3117074966430664,0.38390395045280457,-0.49415087699890137,0.9998577833175659,0.6180030107498169,0.5302773714065552,-0.13993583619594574,0.9670279622077942,0.3139435052871704,0.5547430515289307,-0.4150589108467102,0.9770836234092712,0.6517766118049622,0.6636725068092346,-0.3669951260089874,0.9524763822555542,0.35867753624916077,0.6750941276550293,-0.6062385439872742,0.9204798340797424,0.670792818069458,0.7079241275787354,-0.443729430437088,0.9147418141365051,0.3600921332836151,0.7120580673217773,-0.6788612604141235,0.8727763891220093,0.6558817625045776,0.7097606658935547,-0.5272274017333984,0.9242644309997559,0.3756049573421478,0.7094711065292358,-0.7591233253479004,0.8823502659797668,0.6433233618736267,0.7018355131149292,-0.40421101450920105,0.9237768650054932,0.37897413969039917,0.6986803412437439,-0.6381024122238159,0.8770250678062439,0.5580028891563416,0.6526578664779663,0.021191775798797607,0.9974942207336426,0.4016239643096924,0.6644490957260132,-0.020841484889388084,0.9952799081802368,0.5600335597991943,0.8732473254203796,-0.11039692908525467,0.4521335959434509,0.41909608244895935,0.8730688691139221,-0.09544725716114044,0.3440413773059845,0.5564785003662109,1.0465974807739258,0.40410304069519043,0.18514642119407654,0.4482967257499695,1.0515328645706177,0.35628175735473633,0.1912856549024582,0.5487689971923828,1.0695056915283203,0.43695753812789917,0.17153242230415344,0.45692887902259827,1.0699870586395264,0.38560956716537476,0.11434842646121979,0.5857570767402649,1.1116102933883667,0.15764546394348145,0.17659731209278107,0.463103711605072,1.126356601715088,0.050300776958465576,0.1867339164018631
14918.150699364682,0.4834420084953308,0.2732621133327484,-0.9305000305175781,0.9999357461929321,0.49799418449401855,0.25241413712501526,-0.8896211981773376,0.9998494386672974,0.5076000690460205,0.252653568983078,-0.8898313045501709,0.9998273253440857,0.5172054767608643,0.25257784128189087,-0.8900766968727112,0.9998225569725037,0.4665800631046295,0.25169962644577026,-0.911207914352417,0.9998205304145813,0.4530329704284668,0.25131353735923767,-0.9113258123397827,0.9998014569282532,0.43868428468704224,0.2510135769844055,-0.9115484356880188,0.9997898936271667,0.5242910385131836,0.26073381304740906,-0.5827001333236694,0.9997492432594299,0.40803369879722595,0.2588273584842682,-0.6923006176948547,0.9998192191123962,0.497212290763855,0.295041561126709,-0.8078987002372742,0.9999629259109497,0.45736485719680786,0.2930888831615448,-0.8394574522972107,0.9999628067016602,0.5916183590888977,0.37599435448646545,-0.32914814352989197,0.9999521970748901,0.3141407370567322,0.38263025879859924,-0.5077517032623291,0.9998835325241089,0.6187807321548462,0.5294909477233887,-0.14157404005527496,0.9656140804290771,0.31211981177330017,0.5551344752311707,-0.4324426054954529,0.9798253178596497,0.6515809297561646,0.6636499762535095,-0.3644625246524811,0.9480506181716919,0.357230544090271,0.6746859550476074,-0.6206315159797668,0.9180440306663513,0.6709479093551636,0.706817090511322,-0.44093140959739685,0.9065805673599243,0.35970354080200195,0.711097776889801,-0.6924331784248352,0.8668035864830017,0.6554520726203918,0.7089347243309021,-0.5228574872016907,0.9170099496841431,0.37565940618515015,0.7069401741027832,-0.7714115381240845,0.8764535784721375,0.6432995200157166,0.7010888457298279,-0.401205450296402,0.9174969792366028,0.3787146210670471,0.6959075331687927,-0.6517271399497986,0.8723614811897278,0.5566549897193909,0.6529784798622131,0.03033277951180935,0.997369647026062,0.40138959884643555,0.6646497845649719,-0.02997097373008728,0.995216965675354,0.5589650273323059,0.8738647699356079,-0.09589871019124985,0.40913090109825134,0.4203779101371765,0.8750258088111877,-0.10347679257392883,0.34480324387550354,0.556188702583313,1.0451527833938599,0.3946954011917114,0.17279431223869324,0.4476310610771179,1.048795461654663,0.33253780007362366,0.18462906777858734,0.5471140742301941,1.0691165924072266,0.42538338899612427,0.1808333694934845,0.4534790515899658,1.0675768852233887,0.36051636934280396,0.11519734561443329,0.5936707258224487,1.1075239181518555,0.15275901556015015,0.1648229956626892,0.46974119544029236,1.122566819190979,0.02900569513440132,0.17521874606609344
14934.817366031348,0.48640871047973633,0.27098986506462097,-0.9217727780342102,0.9999136924743652,0.4995025098323822,0.2506624460220337,-0.8779687881469727,0.99980229139328,0.5089988708496094,0.25086483359336853,-0.8781994581222534,0.9997740387916565,0.5186577439308167,0.25079914927482605,-0.8784517645835876,0.9997691512107849,0.46854111552238464,0.25034719705581665,-0.901459276676178,0.9997592568397522,0.455333411693573,0.25032690167427063,-0.9015748500823975,0.9997314810752869,0.4412022829055786,0.2501678168773651,-0.9018266201019287,0.9997195601463318,0.5259162187576294,0.25955235958099365,-0.5631932020187378,0.999665379524231,0.4098380506038666,0.25830188393592834,-0.6801228523254395,0.9997524619102478,0.5007874965667725,0.2923937439918518,-0.7967453598976135,0.99994957447052,0.46170106530189514,0.2910647988319397,-0.8305174708366394,0.9999481439590454,0.5920463800430298,0.37870556116104126,-0.30745986104011536,0.9999403953552246,0.3141631782054901,0.38307666778564453,-0.4975837171077728,0.9998544454574585,0.6176214218139648,0.5312967300415039,-0.12391012161970139,0.9581012725830078,0.3113006055355072,0.5554051399230957,-0.4243374168872833,0.9790590405464172,0.6496376991271973,0.6647606492042542,-0.361788809299469,0.9398370981216431,0.3579389452934265,0.6756327748298645,-0.6209846138954163,0.9190176129341125,0.6683899164199829,0.7058767080307007,-0.44032758474349976,0.8952394127845764,0.35798442363739014,0.7136147618293762,-0.6953486800193787,0.8668105602264404,0.6536420583724976,0.7084382772445679,-0.5245763063430786,0.9074447751045227,0.37363386154174805,0.7107638716697693,-0.7758298516273499,0.876757025718689,0.6414475440979004,0.7002843022346497,-0.4002653658390045,0.9065617322921753,0.37782761454582214,0.6989899277687073,-0.6527324318885803,0.8702746033668518,0.5565698146820068,0.6539227962493896,0.026662053540349007,0.9971019625663757,0.399581640958786,0.6646873950958252,-0.0262661874294281,0.9948769211769104,0.5610581040382385,0.8769725561141968,-0.10371733456850052,0.4401225745677948,0.4193456768989563,0.8794718384742737,-0.10173298418521881,0.34071263670921326,0.5561051368713379,1.0501856803894043,0.38250401616096497,0.19500970840454102,0.4459057152271271,1.0535930395126343,0.33661147952079773,0.19329272210597992,0.5481969118118286,1.0740509033203125,0.41154834628105164,0.1763962358236313,0.45322054624557495,1.0730143785476685,0.3640073537826538,0.12029096484184265,0.5875331163406372,1.1132259368896484,0.12214800715446472,0.18192557990550995,0.4611451327800751,1.126469612121582,0.02083011344075203,0.19189436733722687
14951.484032698014,0.48627060651779175,0.27153849601745605,-0.9450221657752991,0.9998940229415894,0.49908655881881714,0.250671923160553,-0.9038276076316833,0.9997544884681702,0.5084922313690186,0.2508546710014343,-0.9040427207946777,0.999718964099884,0.5179737210273743,0.2508103847503662,-0.9042894244194031,0.9997110962867737,0.4679613709449768,0.2504725456237793,-0.9273004531860352,0.9997091889381409,0.45433756709098816,0.2504696846008301,-0.9274320006370544,0.9996781349182129,0.44070354104042053,0.2503049373626709,-0.9276783466339111,0.9996614456176758,0.5256623029708862,0.25960591435432434,-0.5940852165222168,0.9995853304862976,0.4100167453289032,0.25867101550102234,-0.7108524441719055,0.9997157454490662,0.5007322430610657,0.2927752733230591,-0.8212209343910217,0.99993896484375,0.46212244033813477,0.2915424108505249,-0.8548405766487122,0.9999387264251709,0.5909827947616577,0.3777376413345337,-0.3286091089248657,0.9999310970306396,0.31449440121650696,0.38242414593696594,-0.5323386788368225,0.9998631477355957,0.6157608032226562,0.529790997505188,-0.14128142595291138,0.9520041942596436,0.31141340732574463,0.5563929080963135,-0.45955660939216614,0.9804465770721436,0.6498955488204956,0.6626291275024414,-0.36916017532348633,0.9293480515480042,0.3596688210964203,0.6771636009216309,-0.6453719735145569,0.9121227860450745,0.6677336692810059,0.7035978436470032,-0.44487568736076355,0.8777272701263428,0.36023253202438354,0.7153609991073608,-0.7186960577964783,0.8538116216659546,0.6529526114463806,0.7065525650978088,-0.5289919376373291,0.8915119171142578,0.37488222122192383,0.7128487825393677,-0.7968270778656006,0.8638250231742859,0.6409939527511597,0.6987173557281494,-0.40751349925994873,0.8919738531112671,0.37894296646118164,0.7009820938110352,-0.6762135624885559,0.8596530556678772,0.5553792119026184,0.6514333486557007,0.03543128818273544,0.9966098666191101,0.3998886048793793,0.6634312272071838,-0.03503386303782463,0.9945188164710999,0.5606554746627808,0.8707554340362549,-0.07858438044786453,0.4265025854110718,0.4178008735179901,0.872498631477356,-0.10157439112663269,0.359036386013031,0.5528276562690735,1.0463287830352783,0.39207687973976135,0.1899113953113556,0.44404980540275574,1.051437497138977,0.32634592056274414,0.19666410982608795,0.5426610112190247,1.0707067251205444,0.4195990562438965,0.18204091489315033,0.4498468041419983,1.0710139274597168,0.3522612154483795,0.11968359351158142,0.5912066698074341,1.1087040901184082,0.13500575721263885,0.17943750321865082,0.46433115005493164,1.124891996383667,0.009868161752820015,0.19112367928028107
14968.15069936468,0.4861283302307129,0.2712184488773346,-0.9325761795043945,0.9999151229858398,0.49938586354255676,0.2505651116371155,-0.8910003900527954,0.999796450138092,0.5089187026023865,0.25085076689720154,-0.8912233114242554,0.9997672438621521,0.518519937992096,0.25088033080101013,-0.8914751410484314,0.9997581839561462,0.46826526522636414,0.2502171993255615,-0.9134353399276733,0.9997575879096985,0.4544034004211426,0.2501881718635559,-0.9135499000549316,0.9997294545173645,0.4407435655593872,0.250042587518692,-0.9137829542160034,0.9997143149375916,0.5261870622634888,0.2600873112678528,-0.5838414430618286,0.9996556043624878,0.4100847840309143,0.258426308631897,-0.6962018609046936,0.9997566342353821,0.5005397796630859,0.2928698658943176,-0.8100128173828125,0.9999470710754395,0.4614672362804413,0.2912163734436035,-0.8424683213233948,0.9999473094940186,0.5904293656349182,0.37899020314216614,-0.3294824957847595,0.9999399185180664,0.314864844083786,0.3818766474723816,-0.5140308141708374,0.9998618364334106,0.6147056221961975,0.531314492225647,-0.1420348882675171,0.9583916068077087,0.3098815083503723,0.5549967885017395,-0.4425811469554901,0.980469286441803,0.6499702334403992,0.664635956287384,-0.3630867898464203,0.9376468658447266,0.35802751779556274,0.6756277084350586,-0.6299588680267334,0.9178164005279541,0.6677566170692444,0.7064391374588013,-0.43794742226600647,0.8909671306610107,0.36102256178855896,0.7139474153518677,-0.703156054019928,0.8632683157920837,0.654222846031189,0.7091435790061951,-0.5216875076293945,0.9033371210098267,0.37553152441978455,0.7098710536956787,-0.7812192440032959,0.8731746673583984,0.6433567404747009,0.7009212374687195,-0.4008965492248535,0.9039111137390137,0.3788648843765259,0.6978920698165894,-0.6607991456985474,0.8682606220245361,0.552731990814209,0.6525923013687134,0.025202272459864616,0.9972080588340759,0.3973122835159302,0.6641895174980164,-0.024810023605823517,0.995048463344574,0.5625580549240112,0.8743517398834229,-0.08581431210041046,0.44637995958328247,0.41714125871658325,0.8772681951522827,-0.08836902678012848,0.3633001744747162,0.5420658588409424,1.0419118404388428,0.38554877042770386,0.1978704035282135,0.4438466429710388,1.0513235330581665,0.34268879890441895,0.2001056671142578,0.5465154051780701,1.0737730264663696,0.41322076320648193,0.17841003835201263,0.45194190740585327,1.0705796480178833,0.36960774660110474,0.1230139434337616,0.5888011455535889,1.1127511262893677,0.12680737674236298,0.17913393676280975,0.45633915066719055,1.1249868869781494,0.03070167638361454,0.1921941637992859
14984.817366031346,0.48543134331703186,0.2755054831504822,-0.8888228535652161,0.9999179840087891,0.5006977319717407,0.25476983189582825,-0.8486327528953552,0.999803364276886,0.5097566843032837,0.255219966173172,-0.8488398194313049,0.9997699856758118,0.5193085074424744,0.2556053102016449,-0.8490803241729736,0.999765932559967,0.4699859619140625,0.25280600786209106,-0.8728328943252563,0.9997764229774475,0.4576230049133301,0.25194409489631653,-0.8729555606842041,0.9997496008872986,0.4437234103679657,0.2512149512767792,-0.8731939792633057,0.9997408986091614,0.5249848961830139,0.2631857395172119,-0.5486980676651001,0.9996523857116699,0.4122207760810852,0.2581307291984558,-0.6696367859840393,0.9997765421867371,0.49796298146247864,0.29728254675865173,-0.7685312032699585,0.9999489784240723,0.46060511469841003,0.29358500242233276,-0.8034995794296265,0.9999508857727051,0.5875149369239807,0.37780117988586426,-0.3011106550693512,0.9999390840530396,0.3138926029205322,0.38113170862197876,-0.4959750175476074,0.999887228012085,0.6152913570404053,0.5317026376724243,-0.11132791638374329,0.955620288848877,0.31049516797065735,0.5547481775283813,-0.4223780632019043,0.9817750453948975,0.6491786241531372,0.664523184299469,-0.3173622488975525,0.935662567615509,0.3594423830509186,0.6744599938392639,-0.5915525555610657,0.9275199174880981,0.6676036715507507,0.7060503363609314,-0.38800549507141113,0.8876820802688599,0.3609689474105835,0.712655246257782,-0.659778356552124,0.8787183165550232,0.6527442336082458,0.7086434960365295,-0.46918419003486633,0.9001686573028564,0.37690111994743347,0.7092155814170837,-0.7363666296005249,0.8874698281288147,0.6413189768791199,0.7007231712341309,-0.35365286469459534,0.9008835554122925,0.38084521889686584,0.697611391544342,-0.6210398077964783,0.8816074728965759,0.5551210641860962,0.6531189680099487,0.02907186560332775,0.9972509741783142,0.3994806110858917,0.6649445295333862,-0.02872282639145851,0.9954400062561035,0.5630820989608765,0.8754135966300964,-0.09100973606109619,0.429436057806015,0.41901886463165283,0.8791425824165344,-0.09905577450990677,0.3444061279296875,0.5560234189033508,1.0490660667419434,0.3672027587890625,0.18443433940410614,0.44446861743927,1.0517938137054443,0.3187376856803894,0.19213613867759705,0.5467816591262817,1.0734816789627075,0.39441266655921936,0.18048112094402313,0.45201531052589417,1.0712261199951172,0.344727098941803,0.11749927699565887,0.5927186608314514,1.1118484735488892,0.11912781745195389,0.17584797739982605,0.45980480313301086,1.1250594854354858,0.01476453710347414,0.18903464078903198
15001.484032698012,0.4845035672187805,0.2749767601490021,-0.8013260960578918,0.9999345541000366,0.49953216314315796,0.25421464443206787,-0.7607976198196411,0.9998449087142944,0.5087727904319763,0.25472670793533325,-0.7610231041908264,0.9998176693916321,0.5182794332504272,0.25527486205101013,-0.7612622380256653,0.9998156428337097,0.46864259243011475,0.2524144649505615,-0.7843367457389832,0.9998252987861633,0.4556737542152405,0.2516899108886719,-0.7844358086585999,0.9998040795326233,0.4420429766178131,0.25100353360176086,-0.7846653461456299,0.9997987151145935,0.5247897505760193,0.26316675543785095,-0.4698004424571991,0.9997240900993347,0.4110110402107239,0.25800955295562744,-0.5875991582870483,0.9998307228088379,0.497432678937912,0.29665258526802063,-0.68528813123703,0.9999585151672363,0.4596465528011322,0.29311448335647583,-0.7193120121955872,0.999961256980896,0.5874472260475159,0.3792668282985687,-0.23968544602394104,0.9999432563781738,0.31243735551834106,0.38190633058547974,-0.4357954263687134,0.9999022483825684,0.6144895553588867,0.5328444242477417,-0.05937230959534645,0.954281747341156,0.3110853135585785,0.5541481971740723,-0.3721717894077301,0.9814505577087402,0.6501122713088989,0.6633350849151611,-0.2645474970340729,0.937758207321167,0.3589785397052765,0.6729782819747925,-0.5437629818916321,0.9276571869850159,0.6680418848991394,0.7054787874221802,-0.3359821140766144,0.8929047584533691,0.3587522804737091,0.7099734544754028,-0.6124144196510315,0.8804970383644104,0.6552543044090271,0.7080961465835571,-0.41611090302467346,0.9048227667808533,0.3748890459537506,0.7068853974342346,-0.6878441572189331,0.8890852332115173,0.6435434818267822,0.7001296281814575,-0.30075860023498535,0.9052532315254211,0.3792133033275604,0.6955275535583496,-0.5732775330543518,0.8839398622512817,0.5556685924530029,0.6531456708908081,0.03225862979888916,0.9973515272140503,0.3998691141605377,0.6661940813064575,-0.03186247870326042,0.9957271814346313,0.5643864274024963,0.8749638199806213,-0.0927577093243599,0.46086442470550537,0.4180140495300293,0.878589391708374,-0.10467295348644257,0.37618786096572876,0.5569016337394714,1.0515193939208984,0.3549807369709015,0.18518608808517456,0.444416880607605,1.0525548458099365,0.2988012135028839,0.1950034499168396,0.5464213490486145,1.076188087463379,0.3814890682697296,0.18181410431861877,0.45126014947891235,1.071919322013855,0.3238028287887573,0.11524705588817596,0.5947273373603821,1.114967703819275,0.1117367222905159,0.16781145334243774,0.4604507386684418,1.1259150505065918,-0.0009691026643849909,0.18557150661945343
15018.150699364678,0.48543766140937805,0.27557578682899475,-0.8468000888824463,0.9999442100524902,0.5002676844596863,0.25463005900382996,-0.8039162755012512,0.9998658895492554,0.5094858407974243,0.2549172639846802,-0.8041315674781799,0.9998445510864258,0.5191900730133057,0.25533926486968994,-0.8043650984764099,0.9998393058776855,0.46934670209884644,0.2532591223716736,-0.8303707838058472,0.9998459815979004,0.45637843012809753,0.2525568902492523,-0.8304733037948608,0.9998302459716797,0.442427396774292,0.25192829966545105,-0.8306894302368164,0.9998213648796082,0.5250046253204346,0.26315921545028687,-0.4973098635673523,0.9997697472572327,0.4098198711872101,0.258685439825058,-0.6278364658355713,0.9998544454574585,0.4980160892009735,0.2971110939979553,-0.7246294021606445,0.9999665021896362,0.460796058177948,0.2940270006656647,-0.7623121738433838,0.9999679327011108,0.5866922736167908,0.37879982590675354,-0.24873079359531403,0.9999533891677856,0.31029602885246277,0.3825293183326721,-0.46169549226760864,0.9999071359634399,0.6164456009864807,0.5295743346214294,-0.05731511488556862,0.9603286385536194,0.31194424629211426,0.5536271333694458,-0.3948085904121399,0.9843988418579102,0.6514343619346619,0.6612531542778015,-0.2889053523540497,0.9460436701774597,0.36045217514038086,0.6712943911552429,-0.5866444110870361,0.9409052729606628,0.669318675994873,0.7052431702613831,-0.3661561608314514,0.9040936231613159,0.3631516695022583,0.7093331813812256,-0.6620652079582214,0.9003263711929321,0.6553817987442017,0.7072184681892395,-0.45073843002319336,0.9147099256515503,0.3811967074871063,0.7051947116851807,-0.7410719394683838,0.9074387550354004,0.6428162455558777,0.6994078159332275,-0.3275904059410095,0.913769006729126,0.3846781849861145,0.6936233639717102,-0.6176411509513855,0.9004598259925842,0.5583259463310242,0.6534857749938965,0.03427870199084282,0.9977108240127563,0.400054007768631,0.6668832898139954,-0.033862531185150146,0.996113657951355,0.5643752217292786,0.8746092319488525,-0.09147962927818298,0.5341025590896606,0.41990599036216736,0.8768964409828186,-0.10358040779829025,0.4224686622619629,0.5540921688079834,1.053454875946045,0.3931722939014435,0.23327068984508514,0.44705674052238464,1.0549602508544922,0.3295929729938507,0.23309417068958282,0.5429455637931824,1.0773695707321167,0.422494500875473,0.2114384025335312,0.45453229546546936,1.074291706085205,0.35653895139694214,0.13412564992904663,0.5892432332038879,1.119028925895691,0.13882367312908173,0.21256501972675323,0.4632887840270996,1.1293851137161255,0.017957475036382675,0.2261050045490265
15034.817366031344,0.48974040150642395,0.2719709575176239,-0.8414153456687927,0.99993896484375,0.5030549764633179,0.251356840133667,-0.7957476377487183,0.9998577833175659,0.5122014880180359,0.25158190727233887,-0.7959736585617065,0.9998354911804199,0.5217419862747192,0.25173816084861755,-0.7961951494216919,0.9998300075531006,0.4729485511779785,0.25048893690109253,-0.8245810866355896,0.999836802482605,0.4609498679637909,0.25006529688835144,-0.8246880173683167,0.9998199343681335,0.44627881050109863,0.2498808354139328,-0.8249168992042542,0.9998120665550232,0.5244736671447754,0.2610306739807129,-0.4847474694252014,0.9997580647468567,0.4116918444633484,0.25785019993782043,-0.6259259581565857,0.9998461008071899,0.5012458562850952,0.2940128743648529,-0.7187184691429138,0.9999648332595825,0.4653996229171753,0.2914677858352661,-0.7594684362411499,0.9999666213989258,0.5857453346252441,0.378639817237854,-0.24215619266033173,0.9999504089355469,0.3100931942462921,0.382737398147583,-0.4612428545951843,0.9998948574066162,0.6153803467750549,0.5294108390808105,-0.05605218559503555,0.9585989117622375,0.3108333349227905,0.5530961751937866,-0.3958815634250641,0.985257089138031,0.6501818895339966,0.661396324634552,-0.3003217875957489,0.9454489350318909,0.36128294467926025,0.6710009574890137,-0.588063657283783,0.9441589713096619,0.6684122085571289,0.7052446007728577,-0.37947773933410645,0.9032295346260071,0.3637253940105438,0.7092772126197815,-0.6642509698867798,0.9040191769599915,0.6556665897369385,0.7073323726654053,-0.46421700716018677,0.9139188528060913,0.381610244512558,0.7055152058601379,-0.7436469793319702,0.9108614921569824,0.6430653929710388,0.6993657350540161,-0.3395223021507263,0.912596583366394,0.38508713245391846,0.6938415169715881,-0.6191835403442383,0.9035521745681763,0.5581582188606262,0.6543183922767639,0.034347470849752426,0.9975858926773071,0.39964166283607483,0.6671974062919617,-0.03393147513270378,0.9959090948104858,0.5627496838569641,0.8742325305938721,-0.08024613559246063,0.5184569954872131,0.4209674298763275,0.8766337633132935,-0.09932366758584976,0.40926462411880493,0.553589403629303,1.051794171333313,0.4180279076099396,0.22715167701244354,0.4471125602722168,1.0543651580810547,0.34670138359069824,0.22684337198734283,0.5429899096488953,1.0753529071807861,0.44839128851890564,0.20383356511592865,0.45433077216148376,1.0736194849014282,0.3747864067554474,0.1333521008491516,0.5871279835700989,1.1173886060714722,0.16191737353801727,0.21244516968727112,0.4651110768318176,1.1285185813903809,0.0328051894903183,0.22668702900409698
15051.48403269801,0.49071425199508667,0.27296337485313416,-0.7411362528800964,0.9999586343765259,0.5042532086372375,0.2524155378341675,-0.7006821632385254,0.9998999834060669,0.5132883787155151,0.2527093291282654,-0.7008848786354065,0.9998797178268433,0.5229007005691528,0.2530101537704468,-0.7010887265205383,0.9998799562454224,0.47433966398239136,0.2512681484222412,-0.7270976305007935,0.9998935461044312,0.462444007396698,0.25072604417800903,-0.7272012233734131,0.9998809099197388,0.44782596826553345,0.25054243206977844,-0.7274096012115479,0.999881386756897,0.5256180167198181,0.26215115189552307,-0.4217131435871124,0.9998095631599426,0.4125463366508484,0.25867676734924316,-0.5539644956588745,0.9998966455459595,0.5019617676734924,0.29489168524742126,-0.6304187774658203,0.9999740123748779,0.4667336642742157,0.2923189103603363,-0.6684581637382507,0.999977707862854,0.5852376222610474,0.378571093082428,-0.21882575750350952,0.9999557733535767,0.3113824129104614,0.3828544616699219,-0.4101567566394806,0.9999189376831055,0.6152134537696838,0.528118371963501,-0.049719471484422684,0.9625844955444336,0.30993813276290894,0.5536977648735046,-0.3467206358909607,0.9864158034324646,0.650131106376648,0.6609070897102356,-0.2590673267841339,0.9570478796958923,0.36385780572891235,0.6693440675735474,-0.5011228919029236,0.9542579650878906,0.6693301200866699,0.7047428488731384,-0.3315121829509735,0.9233021140098572,0.36648228764533997,0.7085468769073486,-0.5658032894134521,0.9210115075111389,0.6580057740211487,0.7069014310836792,-0.4079749584197998,0.9315863251686096,0.38503599166870117,0.7041108012199402,-0.6362212300300598,0.9269430041313171,0.6456897854804993,0.6988837718963623,-0.2936682105064392,0.9318581819534302,0.3881916403770447,0.692110538482666,-0.5278213024139404,0.9226681590080261,0.5590683221817017,0.6539143919944763,0.030263004824519157,0.9974796175956726,0.4047408103942871,0.6656119227409363,-0.02996596321463585,0.9960312247276306,0.5626314878463745,0.8738358020782471,-0.10076066851615906,0.45650091767311096,0.4218960106372833,0.8751286268234253,-0.11518202722072601,0.346748024225235,0.5563356876373291,1.0496915578842163,0.3422433137893677,0.1777866780757904,0.44866833090782166,1.0544941425323486,0.27270928025245667,0.18712002038955688,0.5465832352638245,1.0732449293136597,0.36969342827796936,0.1766747385263443,0.454787939786911,1.073540210723877,0.2969261407852173,0.1084444671869278,0.5913900136947632,1.1154241561889648,0.11902666091918945,0.17091788351535797,0.46868452429771423,1.1292039155960083,-0.013885839842259884,0.18284398317337036
15068.150699364676,0.4885994791984558,0.27413827180862427,-0.7499500513076782,0.9999619722366333,0.5027751326560974,0.25374895334243774,-0.7093849182128906,0.9999092817306519,0.5114467740058899,0.2541019916534424,-0.7095803618431091,0.9998893737792969,0.5207383036613464,0.25462275743484497,-0.7097870707511902,0.9998888969421387,0.4728465676307678,0.25220340490341187,-0.7369694113731384,0.9999041557312012,0.46049612760543823,0.2513536214828491,-0.7370775938034058,0.9998940229415894,0.44606679677963257,0.2506216764450073,-0.7372780442237854,0.9998946189880371,0.5241233110427856,0.26236075162887573,-0.42508620023727417,0.9998230338096619,0.4121306538581848,0.25728949904441833,-0.5624178647994995,0.9999146461486816,0.4990253746509552,0.29555806517601013,-0.6367578506469727,0.9999762773513794,0.4631766974925995,0.2924747169017792,-0.676252007484436,0.9999804496765137,0.5834921002388,0.37836015224456787,-0.20286940038204193,0.9999535083770752,0.31279438734054565,0.381794273853302,-0.42506667971611023,0.9999364614486694,0.6139259338378906,0.5291736721992493,-0.02284407801926136,0.9556305408477783,0.3102995753288269,0.5539029836654663,-0.36546769738197327,0.9880257248878479,0.649232029914856,0.6620995402336121,-0.22512957453727722,0.9479807615280151,0.36284658312797546,0.6708575487136841,-0.5226805806159973,0.955024242401123,0.6691530346870422,0.7058873772621155,-0.2958807349205017,0.907565712928772,0.36564940214157104,0.7084255218505859,-0.5896890163421631,0.9198852181434631,0.6567570567131042,0.7078956961631775,-0.37333351373672485,0.9174641966819763,0.3842397928237915,0.7044262290000916,-0.6587045192718506,0.9253641366958618,0.6443451642990112,0.699694812297821,-0.26038622856140137,0.9183108806610107,0.3876744508743286,0.6928937435150146,-0.5487723350524902,0.9207776188850403,0.5583751797676086,0.6532877087593079,0.04114903509616852,0.9977557063102722,0.40352970361709595,0.6663393378257751,-0.04085656628012657,0.9966214895248413,0.5621984004974365,0.8735644817352295,-0.07740285992622375,0.47489801049232483,0.4226687550544739,0.876477837562561,-0.11136019229888916,0.37948480248451233,0.5535383224487305,1.0497267246246338,0.37556028366088867,0.19499839842319489,0.449729323387146,1.054233193397522,0.28877946734428406,0.20687571167945862,0.5421767830848694,1.0736738443374634,0.4039146900177002,0.2013428658246994,0.4543452262878418,1.0732649564743042,0.3140781819820404,0.11882425099611282,0.5942801833152771,1.1145522594451904,0.15164195001125336,0.18874329328536987,0.47612905502319336,1.1288068294525146,-0.0007143580005504191,0.20316681265830994
15084.817366031342,0.4866184592247009,0.27324676513671875,-0.6702712774276733,0.9999533891677856,0.5005620718002319,0.25355926156044006,-0.6306990385055542,0.999887228012085,0.5092484951019287,0.2540951669216156,-0.6308850646018982,0.999860405921936,0.5183838605880737,0.2547977566719055,-0.6310628056526184,0.999859094619751,0.47098299860954285,0.25155535340309143,-0.6583878993988037,0.999887228012085,0.45889490842819214,0.2507361173629761,-0.6585022807121277,0.9998774528503418,0.44503721594810486,0.25002625584602356,-0.6587198376655579,0.9998786449432373,0.5227620005607605,0.26264211535453796,-0.36401188373565674,0.9997625946998596,0.41291072964668274,0.2569305896759033,-0.5022860169410706,0.9999016523361206,0.49692392349243164,0.2947288155555725,-0.5649632811546326,0.9999707937240601,0.46120283007621765,0.2914564609527588,-0.6046397089958191,0.9999780654907227,0.5829418897628784,0.38106971979141235,-0.15931551158428192,0.9999401569366455,0.3147183954715729,0.3816933035850525,-0.3993445932865143,0.9999425411224365,0.6148830652236938,0.5326876640319824,0.015103118494153023,0.9441631436347961,0.31254738569259644,0.5550158619880676,-0.35272809863090515,0.9892510771751404,0.6528681516647339,0.6609541177749634,-0.16139699518680573,0.9399815797805786,0.3627628684043884,0.6712053418159485,-0.49008482694625854,0.9577249884605408,0.6716452836990356,0.7033171653747559,-0.22594358026981354,0.8970903754234314,0.36543554067611694,0.7085294723510742,-0.5531606078147888,0.9243566989898682,0.6581458449363708,0.7058389186859131,-0.29798057675361633,0.907864511013031,0.38268378376960754,0.7047188878059387,-0.6159840822219849,0.9288837313652039,0.6462113857269287,0.6978392601013184,-0.19418460130691528,0.910832405090332,0.3859226107597351,0.6930480003356934,-0.5136078000068665,0.9248113036155701,0.5565484166145325,0.656406044960022,0.05366174504160881,0.9976372718811035,0.4044366478919983,0.6689338088035583,-0.0533997043967247,0.996740996837616,0.564250111579895,0.8752069473266602,-0.062009572982788086,0.3768835663795471,0.42748332023620605,0.880091667175293,-0.1244412437081337,0.3460332453250885,0.5589482188224792,1.0457360744476318,0.3768616020679474,0.13894188404083252,0.45018714666366577,1.0508251190185547,0.26744794845581055,0.1692361980676651,0.5465049147605896,1.0702288150787354,0.40520042181015015,0.18006423115730286,0.4504441022872925,1.0696094036102295,0.29299819469451904,0.10407593101263046,0.6087623834609985,1.1075283288955688,0.173227459192276,0.13912901282310486,0.48587650060653687,1.1239593029022217,-0.008975598029792309,0.1647181361913681
15101.484032698008,0.4868584871292114,0.27307412028312683,-0.6706225275993347,0.9999535083770752,0.500741720199585,0.2533762454986572,-0.6310195922851562,0.9998877048492432,0.5094332098960876,0.25390756130218506,-0.6312040090560913,0.9998607635498047,0.5186142921447754,0.25458255410194397,-0.6313806772232056,0.9998601675033569,0.4711928367614746,0.25141510367393494,-0.6591182947158813,0.999887228012085,0.45913466811180115,0.2506248354911804,-0.6592345237731934,0.9998773336410522,0.4452320635318756,0.24995289742946625,-0.6594520211219788,0.9998786449432373,0.5228964686393738,0.2624845504760742,-0.364509254693985,0.9997618794441223,0.4129880368709564,0.2569000720977783,-0.5046542882919312,0.9999008178710938,0.49714139103889465,0.2946260869503021,-0.5653900504112244,0.9999707937240601,0.46147945523262024,0.2913724482059479,-0.6056066751480103,0.9999779462814331,0.583004891872406,0.38109827041625977,-0.15938636660575867,0.9999399185180664,0.3148379325866699,0.38167494535446167,-0.4034138023853302,0.9999411106109619,0.614821195602417,0.5330418348312378,0.014821773394942284,0.9437546730041504,0.31234806776046753,0.5551988482475281,-0.3579343259334564,0.9893361330032349,0.6528889536857605,0.6611726880073547,-0.15995793044567108,0.9409679770469666,0.36289143562316895,0.6713963747024536,-0.4930769205093384,0.9577988386154175,0.6717270016670227,0.7034946084022522,-0.22407862544059753,0.8982828259468079,0.36547502875328064,0.708633542060852,-0.555882453918457,0.9240591526031494,0.658005952835083,0.7060167193412781,-0.29605987668037415,0.9089578986167908,0.3828628659248352,0.7047926783561707,-0.6182125210762024,0.9285497069358826,0.6461123824119568,0.6979662775993347,-0.19270506501197815,0.911743700504303,0.3861055076122284,0.6931041479110718,-0.5163247585296631,0.9245005249977112,0.5563492178916931,0.6564055681228638,0.05466384440660477,0.9976285099983215,0.4046246111392975,0.6688852906227112,-0.05441134423017502,0.9967244267463684,0.5643178224563599,0.8750582337379456,-0.06101829186081886,0.37160131335258484,0.42789044976234436,0.8798813819885254,-0.1257292479276657,0.33917462825775146,0.559139609336853,1.045896291732788,0.3739137351512909,0.13825316727161407,0.45053133368492126,1.0512440204620361,0.2637764513492584,0.1679900735616684,0.5467347502708435,1.0703935623168945,0.4018281400203705,0.17863422632217407,0.4506032168865204,1.0701072216033936,0.2890288233757019,0.10303262621164322,0.6090115308761597,1.107712984085083,0.16982050240039825,0.13953666388988495,0.4867650866508484,1.1243650913238525,-0.012931233271956444,0.16493462026119232
15118.150699364674,0.48790231347084045,0.27355170249938965,-0.6540892124176025,0.9999504089355469,0.5012931227684021,0.2541353404521942,-0.6145864129066467,0.9998795986175537,0.5098655223846436,0.25461074709892273,-0.6147733926773071,0.9998493194580078,0.518905758857727,0.25525084137916565,-0.6149562001228333,0.9998494386672974,0.4720298647880554,0.25205060839653015,-0.6437650322914124,0.9998822212219238,0.46025213599205017,0.25110873579978943,-0.6438801884651184,0.999872088432312,0.4464142322540283,0.2502956688404083,-0.6441055536270142,0.9998759031295776,0.5221153497695923,0.2626560628414154,-0.3482113480567932,0.9997453093528748,0.41338345408439636,0.2568574845790863,-0.49283427000045776,0.9999001026153564,0.4977433979511261,0.29482507705688477,-0.5485917925834656,0.9999693632125854,0.46264395117759705,0.29147112369537354,-0.5901393294334412,0.9999775886535645,0.5824060440063477,0.3802916407585144,-0.14251640439033508,0.9999377727508545,0.3141673803329468,0.38113823533058167,-0.3933286964893341,0.9999449253082275,0.6145902872085571,0.5321758985519409,0.034153178334236145,0.9424580335617065,0.31234824657440186,0.5544965267181396,-0.34779515862464905,0.9900590777397156,0.6522496342658997,0.6610230207443237,-0.14355650544166565,0.9381299614906311,0.36267411708831787,0.6705905795097351,-0.4837544858455658,0.9612877368927002,0.6712652444839478,0.7033460736274719,-0.20806662738323212,0.8941089510917664,0.36552339792251587,0.708005964756012,-0.5470784902572632,0.9297351837158203,0.6582272052764893,0.7059356570243835,-0.2803833484649658,0.9052286148071289,0.38277432322502136,0.7037443518638611,-0.6099270582199097,0.9339723587036133,0.6463356018066406,0.6979836225509644,-0.17663119733333588,0.9080702662467957,0.38604193925857544,0.6921870112419128,-0.5071280002593994,0.929449737071991,0.5567150115966797,0.6565360426902771,0.05593477189540863,0.9975612163543701,0.4043918251991272,0.6691831946372986,-0.05566392093896866,0.9967212080955505,0.5645477771759033,0.8765486478805542,-0.06703682243824005,0.3983912765979767,0.4263513684272766,0.8820804953575134,-0.1309124380350113,0.35749319195747375,0.5587067008018494,1.047276258468628,0.37779685854911804,0.14300285279750824,0.4507133364677429,1.0522663593292236,0.26310548186302185,0.1748722791671753,0.5457852482795715,1.0716205835342407,0.4067702293395996,0.18055883049964905,0.45105916261672974,1.0711662769317627,0.28880947828292847,0.10580259561538696,0.6085155010223389,1.1099361181259155,0.1740494966506958,0.1420922726392746,0.48709550499916077,1.1254578828811646,-0.014747659675776958,0.16900387406349182
15134.81736603134,0.4898466467857361,0.27326497435569763,-0.7381659746170044,0.9999431371688843,0.5036033987998962,0.2527017593383789,-0.6987434029579163,0.9998646974563599,0.5129774808883667,0.2528421878814697,-0.6989274024963379,0.9998350143432617,0.5228258967399597,0.2529790699481964,-0.6991127729415894,0.9998337030410767,0.4736398160457611,0.2519981265068054,-0.7266076803207397,0.9998615980148315,0.4618101418018341,0.2516372501850128,-0.726716935634613,0.9998478889465332,0.4473336637020111,0.2516167163848877,-0.7269324660301208,0.9998471736907959,0.5257786512374878,0.26188284158706665,-0.4217541217803955,0.99973064661026,0.4126541018486023,0.259808748960495,-0.5605872273445129,0.9998764991760254,0.5011009573936462,0.2954150140285492,-0.628180742263794,0.9999655485153198,0.46554774045944214,0.2930421829223633,-0.6680043935775757,0.9999730587005615,0.5838104486465454,0.3790609538555145,-0.20328716933727264,0.9999408721923828,0.3137558698654175,0.382111132144928,-0.4375144839286804,0.9999300241470337,0.6125922203063965,0.5293646454811096,-0.026095526292920113,0.9484678506851196,0.3091581165790558,0.5522701740264893,-0.3850029706954956,0.9887394905090332,0.6501509547233582,0.6605665683746338,-0.21313555538654327,0.9394406080245972,0.3617174029350281,0.6697120070457458,-0.5258945822715759,0.9511691331863403,0.6707369089126587,0.7034422159194946,-0.2805936634540558,0.8948087096214294,0.3661820590496063,0.7074282169342041,-0.5895865559577942,0.9132117629051208,0.6574265956878662,0.7060549259185791,-0.3537145256996155,0.9060109853744507,0.38370758295059204,0.7023115754127502,-0.6562078595161438,0.9186199903488159,0.6452163457870483,0.6978847980499268,-0.24649852514266968,0.908572793006897,0.3866579830646515,0.6905555129051208,-0.5509185194969177,0.9143747091293335,0.5563557147979736,0.6530408263206482,0.051899004727602005,0.9973729848861694,0.4039037823677063,0.6651565432548523,-0.05160689726471901,0.9961709380149841,0.5635416507720947,0.8707176446914673,-0.05715298280119896,0.3761121332645416,0.42619025707244873,0.8742765784263611,-0.11805034428834915,0.34493300318717957,0.5575299859046936,1.0436465740203857,0.38159483671188354,0.1519944667816162,0.44909635186195374,1.0488605499267578,0.2765467166900635,0.17677032947540283,0.545156717300415,1.0683467388153076,0.4093036353588104,0.19280707836151123,0.4496045708656311,1.0681248903274536,0.30181118845939636,0.11158215254545212,0.6072472333908081,1.1051976680755615,0.16888931393623352,0.1530635505914688,0.4842076599597931,1.1213821172714233,-0.0068680718541145325,0.17051425576210022
15151.484032698007,0.4893481731414795,0.27300068736076355,-0.7111600041389465,0.9999337196350098,0.5032058954238892,0.252126008272171,-0.67029869556427,0.9998401403427124,0.5126739740371704,0.25222569704055786,-0.670510470867157,0.9998062252998352,0.5225991606712341,0.25232139229774475,-0.6707110404968262,0.9998043179512024,0.4729084074497223,0.25160738825798035,-0.6980962157249451,0.9998307228088379,0.461087703704834,0.2513604164123535,-0.6982012391090393,0.99981290102005,0.4464949667453766,0.25142383575439453,-0.6984418034553528,0.9998152852058411,0.5256444811820984,0.2613884508609772,-0.3911518454551697,0.9996898174285889,0.412094384431839,0.2597979009151459,-0.5286548733711243,0.9998477697372437,0.5011511445045471,0.2951684594154358,-0.6004567742347717,0.9999582767486572,0.46481120586395264,0.2930774390697479,-0.6400179862976074,0.999966025352478,0.5842621922492981,0.37811723351478577,-0.17457087337970734,0.9999381303787231,0.31292611360549927,0.38130512833595276,-0.40499237179756165,0.9999204874038696,0.6128414273262024,0.5286588668823242,-0.0024207194801419973,0.9471290111541748,0.3099086880683899,0.5509500503540039,-0.35493332147598267,0.9874522089958191,0.6519412994384766,0.6610303521156311,-0.20773279666900635,0.9426672458648682,0.3622247576713562,0.6687144637107849,-0.5123053193092346,0.9552255272865295,0.6712180972099304,0.7035470604896545,-0.2774205505847931,0.9014931917190552,0.3644094169139862,0.706855297088623,-0.5785378217697144,0.9206790328025818,0.6577337980270386,0.7060657739639282,-0.353382408618927,0.9121192097663879,0.3831598460674286,0.7020394802093506,-0.6475514769554138,0.9259066581726074,0.6455103754997253,0.6982588768005371,-0.24260972440242767,0.913088321685791,0.38694512844085693,0.6901571750640869,-0.5383740663528442,0.920985221862793,0.555927038192749,0.6550301313400269,0.045287709683179855,0.9972368478775024,0.40340617299079895,0.6668843626976013,-0.04496249184012413,0.9960153698921204,0.5618284940719604,0.876502275466919,-0.0758102759718895,0.41398942470550537,0.4246332347393036,0.8809101581573486,-0.12339607626199722,0.3435222804546356,0.5579084157943726,1.0467545986175537,0.37498822808265686,0.15869960188865662,0.450531929731369,1.0523711442947388,0.27782994508743286,0.1808725744485855,0.5470352172851562,1.0707244873046875,0.40287211537361145,0.17598776519298553,0.4535883665084839,1.0718624591827393,0.3032534122467041,0.11196361482143402,0.6001703143119812,1.1099927425384521,0.15337997674942017,0.15508876740932465,0.4780927896499634,1.1250548362731934,-0.011030513793230057,0.17899592220783234
15168.150699364673,0.48556411266326904,0.27372148633003235,-0.7867428064346313,0.9999479055404663,0.500387966632843,0.2536211311817169,-0.7480226159095764,0.9998747110366821,0.5094398856163025,0.2541755139827728,-0.7481916546821594,0.9998483657836914,0.5192533731460571,0.2548595368862152,-0.7483689785003662,0.9998416900634766,0.47007226943969727,0.25141841173171997,-0.7741877436637878,0.9998682737350464,0.4579440951347351,0.25041279196739197,-0.7743214964866638,0.9998577833175659,0.44401252269744873,0.2495940923690796,-0.7745456099510193,0.9998530149459839,0.5237486958503723,0.26261797547340393,-0.46720507740974426,0.9997507929801941,0.41075456142425537,0.2568995952606201,-0.5988247394561768,0.9998847246170044,0.496279239654541,0.29510700702667236,-0.6749468445777893,0.9999699592590332,0.4598492383956909,0.2918132543563843,-0.712626039981842,0.9999756813049316,0.5837281942367554,0.37841516733169556,-0.23476147651672363,0.999947190284729,0.3129795789718628,0.38175174593925476,-0.46729686856269836,0.9999421834945679,0.6142876148223877,0.5276221036911011,-0.054851923137903214,0.9518158435821533,0.3118542432785034,0.553425669670105,-0.4135187268257141,0.9891316890716553,0.6521451473236084,0.6617273688316345,-0.25330257415771484,0.944283664226532,0.36535152792930603,0.6727976202964783,-0.5671136379241943,0.9528495073318481,0.6710735559463501,0.7028099298477173,-0.3230745196342468,0.9020707011222839,0.36677438020706177,0.7118439674377441,-0.6335493326187134,0.9174225330352783,0.6548483967781067,0.7060009837150574,-0.3989159166812897,0.9127526879310608,0.3830021619796753,0.7090310454368591,-0.7038833498954773,0.9226490259170532,0.6431804895401001,0.6979001760482788,-0.2879556119441986,0.9145727157592773,0.38709378242492676,0.6968598365783691,-0.593859076499939,0.9194638729095459,0.5564454197883606,0.6496996879577637,0.052204448729753494,0.9975523352622986,0.4037990868091583,0.6617180109024048,-0.05187035724520683,0.9966141581535339,0.5621711611747742,0.866936445236206,-0.06191682815551758,0.36239928007125854,0.4228510856628418,0.8698320984840393,-0.12518993020057678,0.35394081473350525,0.5522849559783936,1.0344512462615967,0.3793964684009552,0.14684946835041046,0.4435168504714966,1.0412193536758423,0.27095746994018555,0.1805276721715927,0.5390408635139465,1.0591106414794922,0.4069773256778717,0.19764848053455353,0.44395458698272705,1.0603585243225098,0.29578903317451477,0.11563631892204285,0.6036627888679504,1.0950236320495605,0.16658087074756622,0.15100912749767303,0.47680526971817017,1.1138322353363037,-0.015549437142908573,0.1732148677110672
