0,1
13674.027986585095,243.0
13674.028049082308,223.0
13674.02811157952,222.0
13674.028174076733,256.0
13674.028236573946,251.0
13674.028299071158,251.0
13674.028361568371,255.0
13674.028424065584,269.0
13674.028486562795,274.0
13674.028549060007,262.0
13674.02861155722,263.0
13674.028674054432,275.0
13674.028736551645,274.0
13674.028799048858,268.0
13674.02886154607,290.0
13674.028924043283,302.0
13674.028986540496,293.0
13674.029049037708,276.0
13674.029111534921,284.0
13674.029174032134,301.0
13674.029236529344,279.0
13674.029299026557,300.0
13674.02936152377,297.0
13674.029424020982,257.0
13674.029486518195,281.0
13674.029549015408,281.0
13674.02961151262,255.0
13674.029674009833,285.0
13674.029736507046,262.0
13674.029799004258,242.0
13674.029861501469,283.0
13674.029923998682,266.0
13674.029986495894,273.0
13674.030048993107,270.0
13674.03011149032,268.0
13674.030173987532,262.0
13674.030236484745,256.0
13674.030298981957,285.0
13674.03036147917,287.0
13674.030423976383,272.0
13674.030486473595,281.0
13674.030548970808,278.0
13674.030611468019,254.0
13674.030673965231,286.0
13674.030736462444,254.0
13674.030798959657,232.0
13674.03086145687,292.0
13674.030923954082,269.0
13674.030986451295,273.0
13674.031048948507,279.0
13674.03111144572,274.0
13674.031173942933,283.0
13674.031236440143,277.0
13674.031298937356,274.0
13674.031361434569,278.0
13674.031423931781,288.0
13674.031486428994,289.0
13674.031548926207,266.0
13674.03161142342,270.0
13674.031673920632,277.0
13674.031736417845,230.0
13674.031798915057,261.0
13674.03186141227,292.0
13674.031923909482,251.0
13674.031986406693,257.0
13674.032048903906,253.0
13674.032111401119,268.0
13674.032173898331,277.0
13674.032236395544,244.0
13674.032298892756,217.0
13674.032361389969,232.0
13674.032423887182,257.0
13674.032486384394,256.0
13674.032548881607,280.0
13674.032611378818,257.0
13674.03267387603,222.0
13674.032736373243,244.0
13674.032798870456,260.0
13674.032861367668,280.0
13674.032923864881,269.0
13674.032986362094,238.0
13674.033048859306,247.0
13674.033111356519,273.0
13674.033173853732,241.0
13674.033236350944,241.0
13674.033298848155,278.0
13674.033361345368,288.0
13674.03342384258,299.0
13674.033486339793,274.0
13674.033548837006,257.0
13674.033611334218,284.0
13674.03367383143,301.0
13674.033736328643,251.0
13674.033798825856,257.0
13674.033861323069,329.0
13674.033923820281,281.0
13674.033986317492,244.0
13674.034048814705,300.0
13674.034111311918,317.0
13674.03417380913,276.0
13674.034236306343,284.0
13674.034298803555,286.0
13674.034361300768,284.0
13674.03442379798,299.0
13674.034486295193,285.0
13674.034548792406,301.0
13674.034611289619,322.0
13674.03467378683,309.0
13674.034736284042,296.0
13674.034798781255,319.0
13674.034861278467,327.0
13674.03492377568,289.0
13674.034986272893,290.0
13674.035048770105,300.0
13674.035111267318,320.0
13674.03517376453,312.0
13674.035236261743,299.0
13674.035298758956,277.0
13674.035361256167,282.0
13674.03542375338,309.0
13674.035486250592,318.0
13674.035548747805,333.0
13674.035611245017,315.0
13674.03567374223,298.0
13674.035736239442,281.0
13674.035798736655,271.0
13674.035861233868,307.0
13674.03592373108,314.0
13674.035986228293,283.0
13674.036048725504,266.0
13674.036111222716,267.0
13674.03617371993,255.0
13674.036236217142,282.0
13674.036298714354,282.0
13674.036361211567,265.0
13674.03642370878,265.0
13674.036486205992,312.0
13674.036548703205,310.0
13674.036611200418,275.0
13674.03667369763,305.0
13674.036736194841,265.0
13674.036798692054,277.0
13674.036861189266,340.0
13674.036923686479,279.0
13674.036986183692,296.0
13674.037048680904,310.0
13674.037111178117,291.0
13674.03717367533,317.0
13674.037236172542,315.0
13674.037298669755,310.0
13674.037361166967,335.0
13674.037423664178,325.0
13674.037486161391,315.0
13674.037548658604,326.0
13674.037611155816,304.0
13674.037673653029,326.0
13674.037736150241,286.0
13674.037798647454,288.0
13674.037861144667,372.0
13674.03792364188,361.0
13674.037986139092,351.0
13674.038048636305,313.0
13674.038111133515,318.0
13674.038173630728,334.0
13674.03823612794,322.0
13674.038298625153,319.0
13674.038361122366,305.0
13674.038423619579,291.0
13674.038486116791,294.0
13674.038548614004,287.0
13674.038611111217,277.0
13674.03867360843,307.0
13674.038736105642,259.0
13674.038798602853,271.0
13674.038861100065,357.0
13674.038923597278,333.0
13674.03898609449,319.0
13674.039048591703,314.0
13674.039111088916,326.0
13674.039173586129,326.0
13674.039236083341,316.0
13674.039298580554,304.0
13674.039361077766,307.0
13674.039423574979,313.0
13674.03948607219,308.0
13674.039548569403,289.0
13674.039611066615,267.0
13674.039673563828,278.0
13674.03973606104,266.0
13674.039798558253,272.0
13674.039861055466,315.0
13674.039923552678,305.0
13674.039986049891,285.0
13674.040048547104,303.0
13674.040111044316,309.0
13674.040173541527,291.0
13674.04023603874,313.0
13674.040298535952,331.0
13674.040361033165,340.0
13674.040423530378,341.0
13674.04048602759,327.0
13674.040548524803,331.0
13674.040611022016,329.0
13674.040673519228,353.0
13674.04073601644,316.0
13674.040798513652,318.0
13674.040861010864,393.0
13674.040923508077,351.0
13674.04098600529,342.0
13674.041048502502,337.0
13674.041110999715,312.0
13674.041173496928,322.0
13674.04123599414,332.0
13674.041298491353,330.0
13674.041360988565,332.0
13674.041423485778,375.0
13674.04148598299,375.0
13674.041548480202,353.0
13674.041610977414,340.0
13674.041673474627,373.0
13674.04173597184,359.0
13674.041798469052,365.0
13674.041860966265,408.0
13674.041923463477,357.0
13674.04198596069,355.0
13674.042048457903,378.0
13674.042110955115,388.0
13674.042173452326,387.0
13674.042235949539,372.0
13674.042298446751,384.0
13674.042360943964,381.0
13674.042423441177,349.0
13674.04248593839,365.0
13674.042548435602,367.0
13674.042610932815,326.0
13674.042673430027,350.0
13674.04273592724,322.0
13674.042798424452,324.0
13674.042860921665,389.0
13674.042923418876,367.0
13674.042985916089,344.0
13674.043048413301,357.0
13674.043110910514,355.0
13674.043173407726,359.0
13674.04323590494,375.0
13674.043298402152,355.0
13674.043360899364,356.0
13674.043423396577,367.0
13674.04348589379,352.0
13674.043548391,359.0
13674.043610888213,365.0
13674.043673385426,369.0
13674.043735882638,351.0
13674.043798379851,339.0
13674.043860877064,392.0
13674.043923374276,379.0
13674.043985871489,369.0
13674.044048368702,383.0
13674.044110865914,375.0
13674.044173363127,372.0
13674.044235860338,383.0
13674.04429835755,375.0
13674.044360854763,348.0
13674.044423351976,359.0
13674.044485849188,378.0
13674.044548346401,358.0
13674.044610843614,351.0
13674.044673340826,372.0
13674.044735838039,359.0
13674.044798335251,365.0
13674.044860832464,390.0
13674.044923329675,340.0
13674.044985826888,328.0
13674.0450483241,345.0
13674.045110821313,315.0
13674.045173318525,341.0
13674.045235815738,364.0
13674.04529831295,362.0
13674.045360810163,375.0
13674.045423307376,361.0
13674.045485804589,352.0
13674.045548301801,336.0
13674.045610799012,347.0
13674.045673296225,360.0
13674.045735793437,316.0
13674.04579829065,338.0
13674.045860787863,386.0
13674.045923285075,355.0
13674.045985782288,365.0
13674.0460482795,358.0
13674.046110776713,338.0
13674.046173273926,351.0
13674.046235771139,341.0
13674.04629826835,337.0
13674.046360765562,378.0
13674.046423262775,383.0
13674.046485759987,360.0
13674.0465482572,385.0
13674.046610754413,393.0
13674.046673251625,415.0
13674.046735748838,380.0
13674.04679824605,369.0
13674.046860743263,436.0
13674.046923240476,409.0
13674.046985737687,397.0
13674.0470482349,400.0
13674.047110732112,414.0
13674.047173229324,421.0
13674.047235726537,418.0
13674.04729822375,425.0
13674.047360720962,428.0
13674.047423218175,421.0
13674.047485715388,415.0
13674.0475482126,434.0
13674.047610709813,420.0
13674.047673207024,422.0
13674.047735704236,392.0
13674.047798201449,378.0
13674.047860698662,441.0
13674.047923195874,395.0
13674.047985693087,374.0
13674.0480481903,402.0
13674.048110687512,364.0
13674.048173184725,357.0
13674.048235681938,343.0
13674.04829817915,346.0
13674.048360676361,358.0
13674.048423173574,356.0
13674.048485670786,379.0
13674.048548167999,357.0
13674.048610665212,342.0
13674.048673162424,359.0
13674.048735659637,345.0
13674.04879815685,332.0
13674.048860654062,396.0
13674.048923151275,396.0
13674.048985648487,364.0
13674.049048145698,363.0
13674.04911064291,377.0
13674.049173140123,412.0
13674.049235637336,399.0
13674.049298134549,400.0
13674.049360631761,419.0
13674.049423128974,421.0
13674.049485626187,437.0
13674.0495481234,434.0
13674.049610620612,416.0
13674.049673117825,426.0
13674.049735615035,401.0
13674.049798112248,395.0
13674.04986060946,437.0
13674.049923106673,436.0
13674.049985603886,426.0
13674.050048101099,425.0
13674.050110598311,410.0
13674.050173095524,390.0
13674.050235592736,372.0
13674.05029808995,410.0
13674.050360587162,424.0
13674.050423084373,401.0
13674.050485581585,423.0
13674.050548078798,422.0
13674.05061057601,395.0
13674.050673073223,404.0
13674.050735570436,369.0
13674.050798067648,382.0
13674.050860564861,461.0
13674.050923062074,422.0
13674.050985559286,409.0
13674.051048056499,411.0
13674.05111055371,389.0
13674.051173050922,399.0
13674.051235548135,397.0
13674.051298045348,393.0
13674.05136054256,404.0
13674.051423039773,434.0
13674.051485536986,437.0
13674.051548034198,401.0
13674.051610531411,400.0
13674.051673028624,393.0
13674.051735525834,365.0
13674.051798023047,389.0
13674.05186052026,412.0
13674.051923017472,388.0
13674.051985514685,395.0
13674.052048011898,399.0
13674.05211050911,383.0
13674.052173006323,390.0
13674.052235503535,362.0
13674.052298000748,352.0
13674.05236049796,381.0
13674.052422995173,386.0
13674.052485492384,392.0
13674.052547989597,400.0
13674.05261048681,409.0
13674.052672984022,422.0
13674.052735481235,394.0
13674.052797978447,408.0
13674.05286047566,450.0
13674.052922972873,405.0
13674.052985470085,426.0
13674.053047967298,440.0
13674.053110464509,412.0
13674.053172961721,442.0
13674.053235458934,456.0
13674.053297956147,457.0
13674.05336045336,420.0
13674.053422950572,407.0
13674.053485447785,443.0
13674.053547944997,442.0
13674.05361044221,428.0
13674.053672939423,448.0
13674.053735436635,400.0
13674.053797933848,414.0
13674.053860431059,504.0
13674.053922928271,475.0
13674.053985425484,437.0
13674.054047922697,418.0
13674.05411041991,420.0
13674.054172917122,443.0
13674.054235414334,431.0
13674.054297911547,408.0
13674.05436040876,402.0
13674.054422905972,417.0
13674.054485403183,438.0
13674.054547900396,432.0
13674.054610397608,419.0
13674.054672894821,417.0
13674.054735392034,383.0
13674.054797889246,396.0
13674.054860386459,440.0
13674.054922883672,408.0
13674.054985380884,414.0
13674.055047878097,434.0
13674.05511037531,422.0
13674.05517287252,444.0
13674.055235369733,450.0
13674.055297866946,444.0
13674.055360364158,446.0
13674.055422861371,413.0
13674.055485358584,411.0
13674.055547855796,411.0
13674.055610353009,404.0
13674.055672850222,434.0
13674.055735347434,378.0
13674.055797844647,379.0
13674.055860341858,431.0
13674.05592283907,416.0
13674.055985336283,451.0
13674.056047833496,383.0
13674.056110330708,369.0
13674.05617282792,413.0
13674.056235325133,407.0
13674.056297822346,381.0
13674.056360319559,381.0
13674.056422816771,406.0
13674.056485313984,422.0
13674.056547811195,447.0
13674.056610308407,431.0
13674.05667280562,428.0
13674.056735302833,420.0
13674.056797800045,427.0
13674.056860297258,449.0
13674.05692279447,396.0
13674.056985291683,407.0
13674.057047788896,404.0
13674.057110286109,390.0
13674.057172783321,375.0
13674.057235280532,387.0
13674.057297777745,407.0
13674.057360274957,383.0
13674.05742277217,394.0
13674.057485269383,387.0
13674.057547766595,398.0
13674.057610263808,411.0
13674.05767276102,401.0
13674.057735258233,379.0
13674.057797755446,380.0
13674.057860252658,422.0
13674.05792274987,398.0
13674.057985247082,370.0
13674.058047744295,387.0
13674.058110241507,401.0
13674.05817273872,402.0
13674.058235235932,390.0
13674.058297733145,403.0
13674.058360230358,419.0
13674.05842272757,397.0
13674.058485224783,378.0
13674.058547721996,390.0
13674.058610219206,377.0
13674.05867271642,393.0
13674.058735213632,352.0
13674.058797710844,321.0
13674.058860208057,371.0
13674.05892270527,350.0
13674.058985202482,360.0
13674.059047699695,368.0
13674.059110196908,350.0
13674.05917269412,342.0
13674.059235191333,351.0
13674.059297688544,337.0
13674.059360185756,307.0
13674.059422682969,341.0
13674.059485180182,378.0
13674.059547677394,363.0
13674.059610174607,340.0
13674.05967267182,349.0
13674.059735169032,326.0
13674.059797666245,329.0
13674.059860163457,383.0
13674.05992266067,360.0
13674.05998515788,318.0
13674.060047655094,336.0
13674.060110152306,341.0
13674.060172649519,335.0
13674.060235146731,340.0
13674.060297643944,350.0
13674.060360141157,356.0
13674.06042263837,356.0
13674.060485135582,353.0
13674.060547632795,352.0
13674.060610130007,361.0
13674.060672627218,371.0
13674.06073512443,344.0
13674.060797621643,322.0
13674.060860118856,360.0
13674.060922616069,361.0
13674.060985113281,382.0
13674.061047610494,393.0
13674.061110107707,367.0
13674.06117260492,358.0
13674.061235102132,345.0
13674.061297599344,349.0
13674.061360096555,368.0
13674.061422593768,340.0
13674.06148509098,332.0
13674.061547588193,371.0
13674.061610085406,344.0
13674.061672582618,356.0
13674.061735079831,336.0
13674.061797577044,322.0
13674.061860074256,373.0
13674.061922571469,334.0
13674.061985068682,309.0
13674.062047565892,328.0
13674.062110063105,325.0
13674.062172560318,323.0
13674.06223505753,341.0
13674.062297554743,326.0
13674.062360051956,318.0
13674.062422549168,328.0
13674.062485046381,341.0
13674.062547543594,353.0
13674.062610040806,358.0
13674.062672538017,332.0
13674.06273503523,297.0
13674.062797532442,326.0
13674.062860029655,371.0
13674.062922526868,337.0
13674.06298502408,327.0
13674.063047521293,290.0
13674.063110018506,290.0
13674.063172515718,317.0
13674.06323501293,315.0
13674.063297510143,330.0
13674.063360007356,319.0
13674.063422504567,328.0
13674.06348500178,347.0
13674.063547498992,341.0
13674.063609996205,350.0
13674.063672493417,351.0
13674.06373499063,300.0
13674.063797487843,292.0
13674.063859985055,339.0
13674.063922482268,307.0
13674.06398497948,285.0
13674.064047476691,308.0
13674.064109973904,324.0
13674.064172471117,289.0
13674.06423496833,295.0
13674.064297465542,324.0
13674.064359962755,324.0
13674.064422459967,319.0
13674.06448495718,298.0
13674.064547454393,296.0
13674.064609951605,293.0
13674.064672448818,308.0
13674.06473494603,288.0
13674.064797443241,262.0
13674.064859940454,309.0
13674.064922437667,293.0
13674.06498493488,290.0
13674.065047432092,282.0
13674.065109929305,265.0
13674.065172426517,274.0
13674.06523492373,264.0
13674.065297420942,305.0
13674.065359918155,333.0
13674.065422415366,292.0
13674.065484912579,290.0
13674.065547409791,322.0
13674.065609907004,310.0
13674.065672404216,318.0
13674.06573490143,273.0
13674.065797398642,273.0
13674.065859895854,328.0
13674.065922393067,285.0
13674.06598489028,273.0
13674.066047387492,279.0
13674.066109884703,297.0
13674.066172381916,307.0
13674.066234879128,299.0
13674.066297376341,316.0
13674.066359873554,315.0
13674.066422370766,296.0
13674.066484867979,291.0
13674.066547365192,306.0
13674.066609862404,295.0
13674.066672359617,292.0
13674.06673485683,277.0
13674.06679735404,290.0
13674.066859851253,344.0
13674.066922348466,316.0
13674.066984845678,326.0
13674.06704734289,332.0
13674.067109840104,297.0
13674.067172337316,306.0
13674.067234834529,325.0
13674.067297331741,302.0
13674.067359828954,306.0
13674.067422326167,336.0
13674.067484823378,319.0
13674.06754732059,298.0
13674.067609817803,307.0
13674.067672315015,319.0
13674.067734812228,294.0
13674.06779730944,278.0
13674.067859806653,334.0
13674.067922303866,320.0
13674.067984801079,289.0
13674.068047298291,269.0
13674.068109795504,291.0
13674.068172292715,292.0
13674.068234789927,247.0
13674.06829728714,268.0
13674.068359784353,245.0
13674.068422281565,215.0
13674.068484778778,238.0
13674.06854727599,269.0
13674.068609773203,265.0
13674.068672270416,248.0
13674.068734767628,207.0
13674.068797264841,207.0
13674.068859762052,275.0
13674.068922259265,249.0
13674.068984756477,233.0
13674.06904725369,269.0
13674.069109750902,240.0
13674.069172248115,250.0
13674.069234745328,263.0
13674.06929724254,232.0
13674.069359739753,225.0
13674.069422236966,225.0
13674.069484734178,238.0
13674.06954723139,253.0
13674.069609728602,240.0
13674.069672225814,248.0
13674.069734723027,232.0
13674.06979722024,235.0
13674.069859717452,258.0
13674.069922214665,234.0
13674.069984711878,250.0
13674.07004720909,248.0
13674.070109706303,225.0
13674.070172203516,234.0
13674.070234700726,226.0
13674.070297197939,260.0
13674.070359695152,273.0
13674.070422192364,234.0
13674.070484689577,249.0
13674.07054718679,249.0
13674.070609684002,236.0
13674.070672181215,268.0
13674.070734678427,235.0
13674.07079717564,208.0
13674.070859672853,275.0
13674.070922170064,248.0
13674.070984667276,211.0
13674.071047164489,213.0
13674.071109661701,211.0
13674.071172158914,194.0
13674.071234656127,187.0
13674.07129715334,192.0
13674.071359650552,193.0
13674.071422147765,199.0
13674.071484644977,194.0
13674.07154714219,214.0
13674.0716096394,208.0
13674.071672136613,208.0
13674.071734633826,205.0
13674.071797131039,217.0
13674.071859628251,274.0
13674.071922125464,242.0
13674.071984622677,232.0
13674.07204711989,237.0
13674.072109617102,229.0
13674.072172114315,239.0
13674.072234611527,237.0
13674.072297108738,215.0
13674.07235960595,188.0
13674.072422103163,184.0
13674.072484600376,189.0
13674.072547097589,175.0
13674.072609594801,158.0
13674.072672092014,189.0
13674.072734589226,166.0
13674.07279708644,146.0
13674.072859583652,201.0
13674.072922080864,160.0
13674.072984578075,143.0
13674.073047075288,173.0
13674.0731095725,161.0
13674.073172069713,151.0
13674.073234566926,160.0
13674.073297064138,142.0
13674.073359561351,116.0
13674.073422058564,138.0
13674.073484555776,142.0
13674.073547052989,157.0
13674.0736095502,131.0
13674.073672047412,123.0
13674.073734544625,126.0
13674.073797041838,114.0
13674.07385953905,146.0
13674.073922036263,112.0
13674.073984533476,104.0
13674.074047030688,131.0
13674.0741095279,156.0
13674.074172025114,116.0
13674.074234522326,112.0
13674.074297019539,117.0
13674.07435951675,115.0
13674.074422013962,112.0
13674.074484511175,88.0
13674.074547008388,128.0
13674.0746095056,111.0
13674.074672002813,115.0
13674.074734500025,130.0
13674.074796997238,102.0
13674.07485949445,186.0
13674.074921991663,180.0
13674.074984488874,147.0
13674.075046986087,171.0
13674.0751094833,157.0
13674.075171980512,159.0
13674.075234477725,153.0
13674.075296974937,161.0
13674.07535947215,124.0
13674.075421969363,98.0
13674.075484466575,154.0
13674.075546963788,132.0
13674.075609461,85.0
13674.075671958213,127.0
13674.075734455424,111.0
13674.075796952637,83.0
13674.07585944985,151.0
13674.075921947062,121.0
13674.075984444275,86.0
13674.076046941487,109.0
13674.0761094387,95.0
13674.076171935912,97.0
13674.076234433125,105.0
13674.076296930338,91.0
13674.076359427549,74.0
13674.076421924761,65.0
13674.076484421974,77.0
13674.076546919187,70.0
13674.0766094164,56.0
13674.076671913612,84.0
13674.076734410824,82.0
13674.076796908037,70.0
13674.07685940525,128.0
13674.076921902462,108.0
13674.076984399675,84.0
13674.077046896888,90.0
13674.077109394098,84.0
13674.077171891311,77.0
13674.077234388524,64.0
13674.077296885736,76.0
13674.077359382949,51.0
13674.077421880162,41.0
13674.077484377374,69.0
13674.077546874587,65.0
13674.0776093718,55.0
13674.077671869012,74.0
13674.077734366223,55.0
13674.077796863436,41.0
13674.077859360648,76.0
13674.077921857861,41.0
13674.077984355074,28.0
13674.078046852286,52.0
13674.078109349499,51.0
13674.078171846711,52.0
13674.078234343924,73.0
13674.078296841137,64.0
13674.07835933835,58.0
13674.07842183556,64.0
13674.078484332773,80.0
13674.078546829985,113.0
13674.078609327198,78.0
13674.07867182441,76.0
13674.078734321623,42.0
13674.078796818836,14.0
13674.078859316049,94.0
13674.078921813261,54.0
13674.078984310474,24.0
13674.079046807687,31.0
13674.079109304897,33.0
13674.07917180211,59.0
13674.079234299323,72.0
13674.079296796535,72.0
13674.079359293748,68.0
13674.07942179096,87.0
13674.079484288173,94.0
13674.079546785386,72.0
13674.079609282599,33.0
13674.079671779811,53.0
13674.079734277024,37.0
13674.079796774235,33.0
13674.079859271447,87.0
13674.07992176866,47.0
13674.079984265873,46.0
13674.080046763085,20.0
13674.080109260298,12.0
13674.08017175751,24.0
13674.080234254723,11.0
13674.080296751936,20.0
13674.080359249148,29.0
13674.080421746361,6.0
13674.080484243572,-3.0
13674.080546740784,-4.0
13674.080609237997,-18.0
13674.08067173521,13.0
13674.080734232422,-37.0
13674.080796729635,-41.0
13674.080859226848,14.0
13674.08092172406,-21.0
13674.080984221273,-23.0
13674.081046718486,0.0
13674.081109215698,-10.0
13674.081171712909,-27.0
13674.081234210122,-12.0
13674.081296707334,-10.0
13674.081359204547,-9.0
13674.08142170176,-12.0
13674.081484198972,-21.0
13674.081546696185,-24.0
13674.081609193398,-38.0
13674.08167169061,-23.0
13674.081734187823,-33.0
13674.081796685035,-23.0
13674.081859182246,25.0
13674.081921679459,-12.0
13674.081984176672,-25.0
13674.082046673884,-12.0
13674.082109171097,-28.0
13674.08217166831,-36.0
13674.082234165522,-25.0
13674.082296662735,-35.0
13674.082359159947,-54.0
13674.08242165716,-41.0
13674.082484154373,-45.0
13674.082546651583,-62.0
13674.082609148796,-58.0
13674.082671646009,-63.0
13674.082734143221,-92.0
13674.082796640434,-106.0
13674.082859137647,-72.0
13674.08292163486,-69.0
13674.082984132072,-54.0
13674.083046629285,-72.0
13674.083109126497,-75.0
13674.08317162371,-38.0
13674.08323412092,-65.0
13674.083296618133,-98.0
13674.083359115346,-101.0
13674.083421612559,-105.0
13674.083484109771,-102.0
13674.083546606984,-96.0
13674.083609104197,-97.0
13674.08367160141,-90.0
13674.083734098622,-90.0
13674.083796595834,-114.0
13674.083859093047,-92.0
13674.083921590258,-85.0
13674.08398408747,-88.0
13674.084046584683,-96.0
13674.084109081896,-126.0
13674.084171579108,-127.0
13674.084234076321,-103.0
13674.084296573534,-99.0
13674.084359070746,-114.0
13674.084421567959,-108.0
13674.084484065172,-103.0
13674.084546562384,-78.0
13674.084609059595,-91.0
13674.084671556808,-125.0
13674.08473405402,-149.0
13674.084796551233,-152.0
13674.084859048446,-115.0
13674.084921545658,-124.0
13674.084984042871,-131.0
13674.085046540084,-117.0
13674.085109037296,-115.0
13674.085171534509,-123.0
13674.085234031721,-120.0
13674.085296528932,-96.0
13674.085359026145,-108.0
13674.085421523358,-132.0
13674.08548402057,-114.0
13674.085546517783,-109.0
13674.085609014995,-123.0
13674.085671512208,-136.0
13674.08573400942,-157.0
13674.085796506633,-132.0
13674.085859003846,-96.0
13674.085921501057,-113.0
13674.08598399827,-110.0
13674.086046495482,-101.0
13674.086108992695,-132.0
13674.086171489907,-144.0
13674.08623398712,-139.0
13674.086296484333,-120.0
13674.086358981545,-122.0
13674.086421478758,-150.0
13674.08648397597,-147.0
13674.086546473183,-157.0
13674.086608970396,-168.0
13674.086671467607,-180.0
13674.08673396482,-182.0
13674.086796462032,-179.0
13674.086858959245,-151.0
13674.086921456457,-159.0
13674.08698395367,-173.0
13674.087046450883,-151.0
13674.087108948095,-144.0
13674.087171445308,-131.0
13674.08723394252,-137.0
13674.087296439731,-148.0
13674.087358936944,-159.0
13674.087421434157,-154.0
13674.08748393137,-137.0
13674.087546428582,-131.0
13674.087608925794,-140.0
13674.087671423007,-144.0
13674.08773392022,-158.0
13674.087796417432,-167.0
13674.087858914645,-127.0
13674.087921411858,-137.0
13674.08798390907,-147.0
13674.088046406281,-152.0
13674.088108903494,-171.0
13674.088171400706,-157.0
13674.088233897919,-162.0
13674.088296395132,-169.0
13674.088358892344,-153.0
13674.088421389557,-157.0
13674.08848388677,-155.0
13674.088546383982,-145.0
13674.088608881195,-143.0
13674.088671378406,-162.0
13674.088733875618,-188.0
13674.088796372831,-171.0
13674.088858870044,-152.0
13674.088921367256,-175.0
13674.088983864469,-186.0
13674.089046361682,-172.0
13674.089108858894,-157.0
13674.089171356107,-169.0
13674.08923385332,-197.0
13674.089296350532,-204.0
13674.089358847743,-169.0
13674.089421344956,-166.0
13674.089483842168,-192.0
13674.08954633938,-181.0
13674.089608836593,-157.0
13674.089671333806,-160.0
13674.089733831019,-194.0
13674.089796328231,-212.0
13674.089858825444,-184.0
13674.089921322657,-184.0
13674.08998381987,-205.0
13674.09004631708,-194.0
13674.090108814293,-183.0
13674.090171311505,-173.0
13674.090233808718,-177.0
13674.09029630593,-202.0
13674.090358803143,-200.0
13674.090421300356,-151.0
13674.090483797569,-182.0
13674.090546294781,-216.0
13674.090608791994,-186.0
13674.090671289207,-193.0
13674.090733786417,-206.0
13674.09079628363,-186.0
13674.090858780843,-158.0
13674.090921278055,-160.0
13674.090983775268,-187.0
13674.09104627248,-213.0
13674.091108769693,-198.0
13674.091171266906,-172.0
13674.091233764118,-185.0
13674.091296261331,-199.0
13674.091358758544,-170.0
13674.091421255755,-165.0
13674.091483752967,-178.0
13674.09154625018,-162.0
13674.091608747392,-179.0
13674.091671244605,-192.0
13674.091733741818,-204.0
13674.09179623903,-225.0
13674.091858736243,-194.0
13674.091921233456,-217.0
13674.091983730668,-232.0
13674.092046227881,-221.0
13674.092108725092,-217.0
13674.092171222304,-225.0
13674.092233719517,-212.0
13674.09229621673,-196.0
13674.092358713942,-197.0
13674.092421211155,-159.0
13674.092483708368,-145.0
13674.09254620558,-195.0
13674.092608702793,-209.0
13674.092671200005,-181.0
13674.092733697218,-207.0
13674.092796194429,-217.0
13674.092858691642,-178.0
13674.092921188854,-199.0
13674.092983686067,-222.0
13674.09304618328,-213.0
13674.093108680492,-220.0
13674.093171177705,-232.0
13674.093233674917,-227.0
13674.09329617213,-229.0
13674.093358669343,-249.0
13674.093421166555,-220.0
13674.093483663766,-202.0
13674.093546160979,-218.0
13674.093608658191,-218.0
13674.093671155404,-200.0
13674.093733652617,-192.0
13674.09379614983,-187.0
13674.093858647042,-165.0
13674.093921144255,-170.0
13674.093983641467,-179.0
13674.09404613868,-188.0
13674.094108635893,-173.0
13674.094171133103,-177.0
13674.094233630316,-211.0
13674.094296127529,-221.0
13674.094358624741,-199.0
13674.094421121954,-215.0
13674.094483619167,-229.0
13674.09454611638,-245.0
13674.094608613592,-271.0
13674.094671110804,-255.0
13674.094733608017,-263.0
13674.09479610523,-268.0
13674.09485860244,-260.0
13674.094921099653,-259.0
13674.094983596866,-264.0
13674.095046094078,-289.0
13674.095108591291,-279.0
13674.095171088504,-279.0
13674.095233585716,-273.0
13674.095296082929,-262.0
13674.095358580142,-274.0
13674.095421077354,-283.0
13674.095483574567,-283.0
13674.095546071778,-287.0
13674.09560856899,-294.0
13674.095671066203,-278.0
13674.095733563416,-307.0
13674.095796060628,-324.0
13674.095858557841,-285.0
13674.095921055054,-306.0
13674.095983552266,-283.0
13674.096046049479,-275.0
13674.096108546692,-314.0
13674.096171043904,-293.0
13674.096233541115,-283.0
13674.096296038328,-297.0
13674.09635853554,-315.0
13674.096421032753,-303.0
13674.096483529966,-311.0
13674.096546027178,-319.0
13674.09660852439,-301.0
13674.096671021603,-287.0
13674.096733518816,-306.0
13674.096796016029,-334.0
13674.09685851324,-314.0
13674.096921010452,-322.0
13674.096983507665,-327.0
13674.097046004877,-321.0
13674.09710850209,-323.0
13674.097170999303,-318.0
13674.097233496515,-307.0
13674.097295993728,-329.0
13674.09735849094,-338.0
13674.097420988153,-356.0
13674.097483485366,-359.0
13674.097545982579,-343.0
13674.09760847979,-368.0
13674.097670977002,-324.0
13674.097733474215,-330.0
13674.097795971427,-341.0
13674.09785846864,-308.0
13674.097920965853,-333.0
13674.097983463065,-319.0
13674.098045960278,-318.0
13674.09810845749,-344.0
13674.098170954703,-354.0
13674.098233451914,-357.0
13674.098295949127,-331.0
13674.09835844634,-327.0
13674.098420943552,-330.0
13674.098483440765,-317.0
13674.098545937977,-312.0
13674.09860843519,-322.0
13674.098670932402,-319.0
13674.098733429615,-354.0
13674.098795926828,-354.0
13674.09885842404,-322.0
13674.098920921253,-340.0
13674.098983418464,-344.0
13674.099045915676,-373.0
13674.09910841289,-382.0
13674.099170910102,-357.0
13674.099233407314,-346.0
13674.099295904527,-345.0
13674.09935840174,-373.0
13674.099420898952,-370.0
13674.099483396165,-349.0
13674.099545893378,-352.0
13674.099608390588,-356.0
13674.099670887801,-376.0
13674.099733385014,-390.0
13674.099795882226,-379.0
13674.099858379439,-361.0
13674.099920876652,-325.0
13674.099983373864,-332.0
13674.100045871077,-354.0
13674.10010836829,-316.0
13674.100170865502,-325.0
13674.100233362715,-361.0
13674.100295859926,-329.0
13674.100358357138,-319.0
13674.10042085435,-334.0
13674.100483351564,-327.0
13674.100545848776,-326.0
13674.100608345989,-313.0
13674.100670843201,-293.0
13674.100733340414,-312.0
13674.100795837627,-316.0
13674.10085833484,-295.0
13674.100920832052,-315.0
13674.100983329263,-317.0
13674.101045826475,-334.0
13674.101108323688,-347.0
13674.1011708209,-333.0
13674.101233318113,-334.0
13674.101295815326,-319.0
13674.101358312539,-327.0
13674.101420809751,-353.0
13674.101483306964,-330.0
13674.101545804177,-333.0
13674.10160830139,-369.0
13674.1016707986,-331.0
13674.101733295813,-341.0
13674.101795793025,-356.0
13674.101858290238,-331.0
13674.10192078745,-353.0
13674.101983284663,-323.0
13674.102045781876,-320.0
13674.102108279088,-347.0
13674.102170776301,-353.0
13674.102233273514,-362.0
13674.102295770726,-359.0
13674.102358267937,-367.0
13674.10242076515,-385.0
13674.102483262363,-386.0
13674.102545759575,-386.0
13674.102608256788,-382.0
13674.102670754,-373.0
13674.102733251213,-390.0
13674.102795748426,-361.0
13674.102858245638,-338.0
13674.102920742851,-379.0
13674.102983240064,-380.0
13674.103045737274,-362.0
13674.103108234487,-383.0
13674.1031707317,-391.0
13674.103233228912,-388.0
13674.103295726125,-392.0
13674.103358223338,-413.0
13674.10342072055,-421.0
13674.103483217763,-407.0
13674.103545714976,-414.0
13674.103608212188,-409.0
13674.1036707094,-395.0
13674.103733206612,-405.0
13674.103795703824,-398.0
13674.103858201037,-387.0
13674.10392069825,-401.0
13674.103983195462,-390.0
13674.104045692675,-380.0
13674.104108189887,-407.0
13674.1041706871,-401.0
13674.104233184313,-400.0
13674.104295681525,-413.0
13674.104358178738,-400.0
13674.104420675949,-390.0
13674.104483173161,-380.0
13674.104545670374,-371.0
13674.104608167587,-368.0
13674.1046706648,-378.0
13674.104733162012,-380.0
13674.104795659225,-372.0
13674.104858156437,-354.0
13674.10492065365,-375.0
13674.104983150863,-368.0
13674.105045648075,-348.0
13674.105108145286,-378.0
13674.105170642499,-395.0
13674.105233139711,-384.0
13674.105295636924,-362.0
13674.105358134137,-366.0
13674.10542063135,-402.0
13674.105483128562,-407.0
13674.105545625775,-382.0
13674.105608122987,-391.0
13674.1056706202,-362.0
13674.105733117412,-376.0
13674.105795614623,-386.0
13674.105858111836,-313.0
13674.105920609049,-318.0
13674.105983106261,-345.0
13674.106045603474,-322.0
13674.106108100686,-319.0
13674.1061705979,-330.0
13674.106233095112,-356.0
13674.106295592324,-411.0
13674.106358089537,-391.0
13674.10642058675,-369.0
13674.10648308396,-382.0
13674.106545581173,-372.0
13674.106608078386,-373.0
13674.106670575598,-374.0
13674.106733072811,-408.0
13674.106795570024,-429.0
13674.106858067236,-383.0
13674.106920564449,-396.0
13674.106983061662,-405.0
13674.107045558874,-394.0
13674.107108056087,-405.0
13674.107170553298,-381.0
13674.10723305051,-373.0
13674.107295547723,-355.0
13674.107358044936,-353.0
13674.107420542148,-388.0
13674.10748303936,-371.0
13674.107545536574,-372.0
13674.107608033786,-374.0
13674.107670530999,-375.0
13674.107733028211,-430.0
13674.107795525422,-397.0
13674.107858022635,-345.0
13674.107920519848,-385.0
13674.10798301706,-375.0
13674.108045514273,-389.0
13674.108108011485,-403.0
13674.108170508698,-383.0
13674.10823300591,-400.0
13674.108295503123,-402.0
13674.108358000336,-408.0
13674.108420497549,-412.0
13674.108482994761,-409.0
13674.108545491972,-424.0
13674.108607989185,-425.0
13674.108670486397,-419.0
13674.10873298361,-435.0
13674.108795480823,-441.0
13674.108857978035,-377.0
13674.108920475248,-378.0
13674.10898297246,-422.0
13674.109045469673,-434.0
13674.109107966886,-458.0
13674.109170464097,-484.0
13674.10923296131,-485.0
13674.109295458522,-481.0
13674.109357955735,-452.0
13674.109420452947,-462.0
13674.10948295016,-482.0
13674.109545447373,-439.0
13674.109607944585,-446.0
13674.109670441798,-437.0
13674.10973293901,-434.0
13674.109795436223,-434.0
13674.109857933436,-393.0
13674.109920430647,-414.0
13674.10998292786,-401.0
13674.110045425072,-391.0
13674.110107922284,-409.0
13674.110170419497,-397.0
13674.11023291671,-426.0
13674.110295413922,-438.0
13674.110357911135,-426.0
13674.110420408348,-446.0
13674.11048290556,-425.0
13674.110545402771,-408.0
13674.110607899984,-423.0
13674.110670397196,-403.0
13674.110732894409,-422.0
13674.110795391622,-434.0
13674.110857888834,-383.0
13674.110920386047,-388.0
13674.11098288326,-398.0
13674.111045380472,-394.0
13674.111107877685,-394.0
13674.111170374897,-418.0
13674.111232872108,-420.0
13674.111295369321,-414.0
13674.111357866534,-414.0
13674.111420363746,-393.0
13674.111482860959,-411.0
13674.111545358171,-397.0
13674.111607855384,-395.0
13674.111670352597,-422.0
13674.11173284981,-450.0
13674.111795347022,-427.0
13674.111857844235,-401.0
13674.111920341446,-450.0
13674.111982838658,-448.0
13674.11204533587,-450.0
13674.112107833083,-453.0
13674.112170330296,-459.0
13674.112232827509,-472.0
13674.112295324721,-450.0
13674.112357821934,-457.0
13674.112420319147,-433.0
13674.11248281636,-415.0
13674.112545313572,-445.0
13674.112607810783,-442.0
13674.112670307995,-433.0
13674.112732805208,-452.0
13674.11279530242,-439.0
13674.112857799633,-410.0
13674.112920296846,-426.0
13674.112982794059,-448.0
13674.113045291271,-432.0
13674.113107788484,-396.0
13674.113170285696,-410.0
13674.11323278291,-461.0
13674.11329528012,-435.0
13674.113357777333,-401.0
13674.113420274545,-404.0
13674.113482771758,-407.0
13674.11354526897,-405.0
13674.113607766183,-416.0
13674.113670263396,-408.0
13674.113732760608,-451.0
13674.113795257821,-463.0
13674.113857755034,-398.0
13674.113920252246,-438.0
13674.113982749457,-449.0
13674.11404524667,-420.0
13674.114107743882,-462.0
13674.114170241095,-461.0
13674.114232738308,-446.0
13674.11429523552,-474.0
13674.114357732733,-442.0
13674.114420229946,-426.0
13674.114482727158,-457.0
13674.11454522437,-422.0
13674.114607721584,-422.0
13674.114670218794,-435.0
13674.114732716007,-424.0
13674.11479521322,-431.0
13674.114857710432,-388.0
13674.114920207645,-428.0
13674.114982704858,-432.0
13674.11504520207,-417.0
13674.115107699283,-446.0
13674.115170196495,-450.0
13674.115232693708,-434.0
13674.11529519092,-424.0
13674.115357688132,-416.0
13674.115420185344,-387.0
13674.115482682557,-400.0
13674.11554517977,-395.0
13674.115607676982,-360.0
13674.115670174195,-374.0
13674.115732671407,-427.0
13674.11579516862,-401.0
13674.115857665833,-352.0
13674.115920163045,-376.0
13674.115982660258,-370.0
13674.116045157469,-366.0
13674.116107654681,-375.0
13674.116170151894,-368.0
13674.116232649107,-365.0
13674.11629514632,-345.0
13674.116357643532,-346.0
13674.116420140745,-335.0
13674.116482637957,-321.0
13674.11654513517,-371.0
13674.116607632383,-369.0
13674.116670129595,-366.0
13674.116732626806,-394.0
13674.116795124019,-343.0
13674.116857621231,-311.0
13674.116920118444,-347.0
13674.116982615657,-352.0
13674.11704511287,-364.0
13674.117107610082,-384.0
13674.117170107294,-388.0
13674.117232604507,-369.0
13674.11729510172,-366.0
13674.117357598932,-354.0
13674.117420096143,-349.0
13674.117482593356,-364.0
13674.117545090568,-367.0
13674.117607587781,-379.0
13674.117670084994,-363.0
13674.117732582206,-374.0
13674.117795079419,-361.0
13674.117857576632,-310.0
13674.117920073844,-335.0
13674.117982571057,-362.0
13674.11804506827,-348.0
13674.11810756548,-310.0
13674.118170062693,-323.0
13674.118232559906,-366.0
13674.118295057118,-356.0
13674.118357554331,-349.0
13674.118420051544,-358.0
13674.118482548756,-339.0
13674.118545045969,-340.0
13674.118607543181,-312.0
13674.118670040394,-316.0
13674.118732537605,-358.0
13674.118795034818,-349.0
13674.11885753203,-302.0
13674.118920029243,-295.0
13674.118982526456,-314.0
13674.119045023668,-323.0
13674.11910752088,-340.0
13674.119170018093,-328.0
13674.119232515306,-324.0
13674.119295012519,-317.0
13674.119357509731,-296.0
13674.119420006944,-289.0
13674.119482504155,-273.0
13674.119545001367,-273.0
13674.11960749858,-271.0
13674.119669995793,-267.0
13674.119732493005,-270.0
13674.119794990218,-265.0
13674.11985748743,-243.0
13674.119919984643,-269.0
13674.119982481856,-294.0
13674.120044979069,-278.0
13674.12010747628,-285.0
13674.120169973492,-299.0
13674.120232470705,-292.0
13674.120294967917,-287.0
13674.12035746513,-292.0
13674.120419962343,-302.0
13674.120482459555,-303.0
13674.120544956768,-310.0
13674.12060745398,-320.0
13674.120669951193,-308.0
13674.120732448406,-336.0
13674.120794945618,-323.0
13674.12085744283,-293.0
13674.120919940042,-337.0
13674.120982437254,-310.0
13674.121044934467,-307.0
13674.12110743168,-340.0
13674.121169928892,-316.0
13674.121232426105,-295.0
13674.121294923318,-284.0
13674.12135742053,-292.0
13674.121419917743,-278.0
13674.121482414954,-271.0
13674.121544912166,-286.0
13674.121607409379,-273.0
13674.121669906592,-264.0
13674.121732403804,-282.0
13674.121794901017,-259.0
13674.12185739823,-209.0
13674.121919895442,-252.0
13674.121982392655,-249.0
13674.122044889868,-218.0
13674.12210738708,-248.0
13674.122169884291,-242.0
13674.122232381504,-233.0
13674.122294878716,-234.0
13674.122357375929,-212.0
13674.122419873142,-198.0
13674.122482370354,-229.0
13674.122544867567,-214.0
13674.12260736478,-190.0
13674.122669861992,-213.0
13674.122732359205,-225.0
13674.122794856417,-226.0
13674.122857353628,-196.0
13674.12291985084,-183.0
13674.122982348053,-171.0
13674.123044845266,-175.0
13674.123107342479,-185.0
13674.123169839691,-190.0
13674.123232336904,-197.0
13674.123294834117,-196.0
13674.12335733133,-182.0
13674.123419828542,-168.0
13674.123482325755,-178.0
13674.123544822965,-182.0
13674.123607320178,-194.0
13674.12366981739,-187.0
13674.123732314603,-186.0
13674.123794811816,-191.0
13674.123857309029,-151.0
13674.123919806241,-164.0
13674.123982303454,-167.0
13674.124044800667,-164.0
13674.12410729788,-171.0
13674.124169795092,-146.0
13674.124232292303,-148.0
13674.124294789515,-166.0
13674.124357286728,-169.0
13674.12441978394,-164.0
13674.124482281153,-173.0
13674.124544778366,-152.0
13674.124607275578,-155.0
13674.124669772791,-148.0
13674.124732270004,-133.0
13674.124794767216,-149.0
13674.124857264429,-111.0
13674.12491976164,-126.0
13674.124982258852,-122.0
13674.125044756065,-98.0
13674.125107253278,-120.0
13674.12516975049,-103.0
13674.125232247703,-93.0
13674.125294744916,-91.0
13674.125357242128,-66.0
13674.125419739341,-82.0
13674.125482236554,-81.0
13674.125544733766,-47.0
13674.125607230977,-52.0
13674.12566972819,-38.0
13674.125732225402,-29.0
13674.125794722615,-39.0
13674.125857219828,-20.0
13674.12591971704,-15.0
13674.125982214253,-18.0
13674.126044711466,-8.0
13674.126107208678,-17.0
13674.12616970589,-60.0
13674.126232203103,-47.0
13674.126294700314,-4.0
13674.126357197527,-3.0
13674.12641969474,-33.0
13674.126482191952,-25.0
13674.126544689165,-13.0
13674.126607186377,-39.0
13674.12666968359,-21.0
13674.126732180803,-23.0
13674.126794678015,-43.0
13674.126857175228,-10.0
13674.12691967244,-18.0
13674.126982169651,-11.0
13674.127044666864,-11.0
13674.127107164077,-20.0
13674.12716966129,-15.0
13674.127232158502,-14.0
13674.127294655715,5.0
13674.127357152927,1.0
13674.12741965014,6.0
13674.127482147353,15.0
13674.127544644565,14.0
13674.127607141778,22.0
13674.127669638989,31.0
13674.127732136201,33.0
13674.127794633414,39.0
13674.127857130627,96.0
13674.12791962784,70.0
13674.127982125052,44.0
13674.128044622264,66.0
13674.128107119477,74.0
13674.12816961669,84.0
13674.128232113902,102.0
13674.128294611115,107.0
13674.128357108326,105.0
13674.128419605539,124.0
13674.128482102751,127.0
13674.128544599964,141.0
13674.128607097176,89.0
13674.128669594389,99.0
13674.128732091602,117.0
13674.128794588814,89.0
13674.128857086027,132.0
13674.12891958324,139.0
13674.128982080452,148.0
13674.129044577663,141.0
13674.129107074876,138.0
13674.129169572088,124.0
13674.129232069301,110.0
13674.129294566514,146.0
13674.129357063726,162.0
13674.129419560939,154.0
13674.129482058152,148.0
13674.129544555364,146.0
13674.129607052577,148.0
13674.129669549788,167.0
13674.129732047,168.0
13674.129794544213,164.0
13674.129857041426,203.0
13674.129919538638,185.0
13674.12998203585,179.0
13674.130044533063,200.0
13674.130107030276,183.0
13674.130169527489,201.0
13674.130232024701,192.0
13674.130294521914,161.0
13674.130357019127,170.0
13674.130419516337,193.0
13674.13048201355,201.0
13674.130544510763,210.0
13674.130607007975,214.0
13674.130669505188,201.0
13674.1307320024,177.0
13674.130794499613,195.0
13674.130856996826,258.0
13674.130919494039,251.0
13674.130981991251,225.0
13674.131044488462,209.0
13674.131106985675,215.0
13674.131169482887,198.0
13674.1312319801,204.0
13674.131294477313,214.0
13674.131356974525,197.0
13674.131419471738,199.0
13674.13148196895,205.0
13674.131544466163,200.0
13674.131606963376,185.0
13674.131669460588,199.0
13674.131731957801,143.0
13674.131794455012,147.0
13674.131856952225,215.0
13674.131919449437,145.0
13674.13198194665,153.0
13674.132044443862,168.0
13674.132106941075,141.0
13674.132169438288,183.0
13674.1322319355,186.0
13674.132294432713,165.0
13674.132356929926,150.0
13674.132419427136,160.0
13674.13248192435,170.0
13674.132544421562,154.0
13674.132606918774,139.0
13674.132669415987,162.0
13674.1327319132,151.0
13674.132794410412,151.0
13674.132856907625,208.0
13674.132919404838,156.0
13674.13298190205,152.0
13674.133044399263,187.0
13674.133106896476,172.0
13674.133169393686,165.0
13674.133231890899,163.0
13674.133294388112,182.0
13674.133356885324,179.0
13674.133419382537,181.0
13674.13348187975,176.0
13674.133544376962,155.0
13674.133606874175,161.0
13674.133669371387,181.0
13674.1337318686,156.0
13674.13379436581,161.0
13674.133856863024,213.0
13674.133919360236,201.0
13674.133981857449,192.0
13674.134044354661,199.0
13674.134106851874,234.0
13674.134169349087,210.0
13674.1342318463,185.0
13674.134294343512,158.0
13674.134356840725,150.0
13674.134419337937,169.0
13674.134481835148,146.0
13674.13454433236,147.0
13674.134606829573,163.0
13674.134669326786,156.0
13674.134731823999,118.0
13674.134794321211,147.0
13674.134856818424,228.0
13674.134919315637,184.0
13674.13498181285,180.0
13674.135044310062,179.0
13674.135106807274,158.0
13674.135169304485,174.0
13674.135231801698,152.0
13674.13529429891,167.0
13674.135356796123,196.0
13674.135419293336,182.0
13674.135481790549,184.0
13674.135544287761,190.0
13674.135606784974,176.0
13674.135669282186,181.0
13674.135731779399,176.0
13674.135794276612,159.0
13674.135856773823,209.0
13674.135919271035,212.0
13674.135981768248,192.0
13674.13604426546,174.0
13674.136106762673,160.0
13674.136169259886,157.0
13674.136231757098,174.0
13674.136294254311,193.0
13674.136356751524,213.0
13674.136419248736,199.0
13674.136481745949,168.0
13674.13654424316,181.0
13674.136606740372,171.0
13674.136669237585,180.0
13674.136731734798,154.0
13674.13679423201,150.0
13674.136856729223,221.0
13674.136919226436,202.0
13674.136981723648,202.0
13674.13704422086,223.0
13674.137106718073,208.0
13674.137169215286,186.0
13674.137231712497,206.0
13674.13729420971,211.0
13674.137356706922,195.0
13674.137419204135,171.0
13674.137481701347,159.0
13674.13754419856,173.0
13674.137606695773,152.0
13674.137669192985,198.0
13674.137731690198,191.0
13674.13779418741,157.0
13674.137856684623,227.0
13674.137919181834,201.0
13674.137981679047,188.0
13674.13804417626,224.0
13674.138106673472,241.0
13674.138169170685,263.0
13674.138231667897,266.0
13674.13829416511,262.0
13674.138356662323,242.0
13674.138419159535,262.0
13674.138481656748,266.0
13674.13854415396,279.0
13674.138606651171,263.0
13674.138669148384,262.0
13674.138731645597,273.0
13674.13879414281,246.0
13674.138856640022,303.0
13674.138919137235,289.0
13674.138981634447,260.0
13674.13904413166,272.0
13674.139106628872,282.0
13674.139169126085,278.0
13674.139231623298,284.0
13674.139294120509,304.0
13674.139356617721,300.0
13674.139419114934,302.0
13674.139481612146,313.0
13674.13954410936,313.0
13674.139606606572,308.0
13674.139669103784,328.0
13674.139731600997,311.0
13674.13979409821,325.0
13674.139856595422,376.0
13674.139919092635,342.0
13674.139981589846,326.0
13674.140044087058,316.0
13674.140106584271,290.0
13674.140169081484,296.0
13674.140231578696,322.0
13674.140294075909,322.0
13674.140356573122,304.0
13674.140419070334,325.0
13674.140481567547,296.0
13674.14054406476,306.0
13674.140606561972,348.0
13674.140669059183,326.0
13674.140731556396,320.0
13674.140794053608,315.0
13674.14085655082,370.0
13674.140919048034,379.0
13674.140981545246,345.0
13674.141044042459,344.0
13674.141106539671,352.0
13674.141169036884,345.0
13674.141231534097,331.0
13674.14129403131,339.0
13674.14135652852,356.0
13674.141419025733,395.0
13674.141481522945,392.0
13674.141544020158,379.0
13674.14160651737,390.0
13674.141669014583,398.0
13674.141731511796,399.0
13674.141794009009,420.0
13674.141856506221,445.0
13674.141919003434,417.0
13674.141981500645,414.0
13674.142043997857,402.0
13674.14210649507,413.0
13674.142168992283,457.0
13674.142231489495,472.0
13674.142293986708,455.0
13674.14235648392,438.0
13674.142418981133,423.0
13674.142481478346,444.0
13674.142543975559,441.0
13674.142606472771,414.0
13674.142668969984,447.0
13674.142731467195,411.0
13674.142793964407,392.0
13674.14285646162,463.0
13674.142918958833,429.0
13674.142981456045,411.0
13674.143043953258,424.0
13674.14310645047,413.0
13674.143168947683,388.0
13674.143231444896,402.0
13674.143293942108,430.0
13674.14335643932,397.0
13674.143418936532,383.0
13674.143481433744,400.0
13674.143543930957,426.0
13674.14360642817,431.0
13674.143668925382,411.0
13674.143731422595,385.0
13674.143793919808,392.0
13674.14385641702,434.0
13674.143918914233,400.0
13674.143981411446,372.0
13674.144043908658,385.0
13674.144106405869,398.0
13674.144168903082,389.0
13674.144231400294,386.0
13674.144293897507,387.0
13674.14435639472,384.0
13674.144418891932,419.0
13674.144481389145,412.0
13674.144543886357,389.0
13674.14460638357,381.0
13674.144668880783,383.0
13674.144731377994,367.0
13674.144793875206,352.0
13674.144856372419,391.0
13674.144918869632,363.0
13674.144981366844,338.0
13674.145043864057,335.0
13674.14510636127,327.0
13674.145168858482,336.0
13674.145231355695,323.0
13674.145293852907,349.0
13674.14535635012,351.0
13674.14541884733,347.0
13674.145481344543,353.0
13674.145543841756,323.0
13674.145606338969,324.0
13674.145668836181,332.0
13674.145731333394,309.0
13674.145793830607,301.0
13674.14585632782,319.0
13674.145918825032,301.0
13674.145981322245,291.0
13674.146043819457,306.0
13674.146106316668,290.0
13674.14616881388,270.0
13674.146231311093,294.0
13674.146293808306,307.0
13674.146356305519,294.0
13674.146418802731,286.0
13674.146481299944,294.0
13674.146543797156,312.0
13674.14660629437,283.0
13674.146668791582,278.0
13674.146731288794,248.0
13674.146793786005,216.0
13674.146856283218,295.0
13674.14691878043,292.0
13674.146981277643,276.0
13674.147043774856,278.0
13674.147106272068,264.0
13674.147168769281,261.0
13674.147231266494,240.0
13674.147293763706,243.0
13674.147356260919,252.0
13674.147418758132,262.0
13674.147481255342,264.0
13674.147543752555,263.0
13674.147606249768,262.0
13674.14766874698,259.0
13674.147731244193,228.0
13674.147793741406,250.0
13674.147856238618,305.0
13674.14791873583,267.0
13674.147981233044,228.0
13674.148043730256,230.0
13674.148106227469,219.0
13674.14816872468,208.0
13674.148231221892,207.0
13674.148293719105,217.0
13674.148356216318,247.0
13674.14841871353,243.0
13674.148481210743,235.0
13674.148543707955,242.0
13674.148606205168,223.0
13674.14866870238,213.0
13674.148731199593,204.0
13674.148793696806,200.0
13674.148856194017,265.0
13674.14891869123,257.0
13674.148981188442,253.0
13674.149043685655,276.0
13674.149106182867,247.0
13674.14916868008,237.0
13674.149231177293,228.0
13674.149293674505,230.0
13674.149356171718,231.0
13674.14941866893,216.0
13674.149481166143,208.0
13674.149543663354,219.0
13674.149606160567,232.0
13674.14966865778,229.0
13674.149731154992,180.0
13674.149793652205,201.0
13674.149856149417,286.0
13674.14991864663,230.0
13674.149981143843,206.0
13674.150043641055,226.0
13674.150106138268,202.0
13674.15016863548,198.0
13674.150231132691,208.0
13674.150293629904,225.0
13674.150356127117,222.0
13674.15041862433,226.0
13674.150481121542,220.0
13674.150543618754,208.0
13674.150606115967,234.0
13674.15066861318,273.0
13674.150731110392,238.0
13674.150793607605,200.0
13674.150856104818,235.0
13674.150918602028,218.0
13674.150981099241,219.0
13674.151043596454,223.0
13674.151106093666,222.0
13674.151168590879,240.0
13674.151231088092,241.0
13674.151293585304,220.0
13674.151356082517,221.0
13674.15141857973,235.0
13674.151481076942,216.0
13674.151543574155,191.0
13674.151606071366,189.0
13674.151668568578,222.0
13674.151731065791,181.0
13674.151793563004,173.0
13674.151856060216,243.0
13674.151918557429,226.0
13674.151981054642,188.0
13674.152043551854,186.0
13674.152106049067,212.0
13674.15216854628,195.0
13674.152231043492,187.0
13674.152293540703,184.0
13674.152356037916,176.0
13674.152418535128,182.0
13674.15248103234,175.0
13674.152543529553,173.0
13674.152606026766,170.0
13674.152668523979,197.0
13674.152731021191,161.0
13674.152793518404,137.0
13674.152856015617,170.0
13674.152918512827,148.0
13674.15298101004,181.0
13674.153043507253,192.0
13674.153106004465,157.0
13674.153168501678,174.0
13674.15323099889,156.0
13674.153293496103,125.0
13674.153355993316,140.0
13674.153418490529,152.0
13674.153480987741,159.0
13674.153543484954,186.0
13674.153605982166,197.0
13674.153668479377,185.0
13674.15373097659,147.0
13674.153793473803,155.0
13674.153855971015,228.0
13674.153918468228,204.0
13674.15398096544,185.0
13674.154043462653,202.0
13674.154105959866,182.0
13674.154168457078,173.0
13674.154230954291,205.0
13674.154293451502,216.0
13674.154355948715,187.0
13674.154418445927,187.0
13674.15448094314,233.0
13674.154543440352,236.0
13674.154605937565,208.0
13674.154668434778,240.0
13674.15473093199,213.0
13674.154793429203,184.0
13674.154855926416,273.0
13674.154918423628,246.0
13674.15498092084,206.0
13674.155043418052,184.0
13674.155105915264,190.0
13674.155168412477,230.0
13674.15523090969,222.0
13674.155293406902,235.0
13674.155355904115,230.0
13674.155418401328,208.0
13674.15548089854,219.0
13674.155543395753,242.0
13674.155605892965,246.0
13674.155668390176,249.0
13674.155730887389,235.0
13674.155793384602,236.0
13674.155855881814,270.0
13674.155918379027,257.0
13674.15598087624,241.0
13674.156043373452,248.0
13674.156105870665,263.0
13674.156168367877,262.0
13674.15623086509,279.0
13674.156293362303,285.0
13674.156355859513,284.0
13674.156418356726,283.0
13674.156480853939,276.0
13674.156543351151,285.0
13674.156605848364,281.0
13674.156668345577,279.0
13674.15673084279,252.0
13674.156793340002,239.0
13674.156855837215,274.0
13674.156918334427,262.0
13674.15698083164,237.0
13674.15704332885,238.0
13674.157105826063,245.0
13674.157168323276,238.0
13674.157230820489,239.0
13674.157293317701,239.0
13674.157355814914,217.0
13674.157418312127,219.0
13674.15748080934,220.0
13674.157543306552,220.0
13674.157605803764,235.0
13674.157668300977,234.0
13674.157730798188,195.0
13674.1577932954,163.0
13674.157855792613,229.0
13674.157918289826,259.0
13674.157980787038,252.0
13674.158043284251,229.0
13674.158105781464,237.0
13674.158168278676,274.0
13674.158230775889,268.0
13674.158293273102,275.0
13674.158355770314,281.0
13674.158418267525,286.0
13674.158480764738,296.0
13674.15854326195,308.0
13674.158605759163,304.0
13674.158668256376,310.0
13674.158730753588,287.0
13674.158793250801,246.0
13674.158855748014,299.0
13674.158918245226,289.0
13674.158980742439,255.0
13674.159043239652,273.0
13674.159105736862,279.0
13674.159168234075,265.0
13674.159230731288,277.0
13674.1592932285,293.0
13674.159355725713,278.0
13674.159418222926,290.0
13674.159480720138,286.0
13674.15954321735,311.0
13674.159605714563,312.0
13674.159668211776,306.0
13674.159730708989,309.0
13674.1597932062,290.0
13674.159855703412,339.0
13674.159918200625,333.0
13674.159980697837,320.0
13674.16004319505,317.0
13674.160105692263,317.0
13674.160168189475,333.0
13674.160230686688,326.0
13674.1602931839,346.0
13674.160355681113,343.0
13674.160418178326,333.0
13674.160480675537,359.0
13674.16054317275,386.0
13674.160605669962,366.0
13674.160668167175,361.0
13674.160730664387,369.0
13674.1607931616,394.0
13674.160855658813,440.0
13674.160918156025,407.0
13674.160980653238,402.0
13674.16104315045,408.0
13674.161105647663,395.0
13674.161168144874,397.0
13674.161230642087,401.0
13674.1612931393,395.0
13674.161355636512,413.0
13674.161418133725,442.0
13674.161480630937,439.0
13674.16154312815,431.0
13674.161605625362,433.0
13674.161668122575,442.0
13674.161730619788,439.0
13674.161793117,418.0
13674.161855614211,474.0
13674.161918111424,465.0
13674.161980608636,434.0
13674.162043105849,431.0
13674.162105603062,431.0
13674.162168100274,456.0
13674.162230597487,432.0
13674.1622930947,441.0
13674.162355591912,455.0
13674.162418089125,433.0
13674.162480586338,429.0
13674.162543083548,422.0
13674.162605580761,433.0
13674.162668077974,473.0
13674.162730575186,444.0
13674.162793072399,433.0
13674.162855569612,488.0
13674.162918066824,440.0
13674.162980564037,437.0
13674.16304306125,480.0
13674.163105558462,456.0
13674.163168055675,434.0
13674.163230552886,444.0
13674.163293050098,431.0
13674.16335554731,444.0
13674.163418044523,468.0
13674.163480541736,439.0
13674.163543038949,418.0
13674.163605536161,410.0
13674.163668033374,423.0
13674.163730530587,387.0
13674.1637930278,372.0
13674.16385552501,447.0
13674.163918022223,428.0
13674.163980519435,409.0
13674.164043016648,442.0
13674.16410551386,447.0
13674.164168011073,425.0
13674.164230508286,392.0
13674.164293005499,407.0
13674.164355502711,426.0
13674.164417999924,422.0
13674.164480497137,421.0
13674.16454299435,432.0
13674.16460549156,435.0
13674.164667988773,445.0
13674.164730485985,436.0
13674.164792983198,429.0
13674.16485548041,466.0
13674.164917977623,452.0
13674.164980474836,448.0
13674.165042972048,465.0
13674.165105469261,463.0
13674.165167966474,464.0
13674.165230463685,445.0
13674.165292960897,442.0
13674.16535545811,466.0
13674.165417955322,461.0
13674.165480452535,484.0
13674.165542949748,522.0
13674.16560544696,498.0
13674.165667944173,503.0
13674.165730441386,463.0
13674.165792938598,431.0
13674.165855435811,496.0
13674.165917933024,452.0
13674.165980430234,456.0
13674.166042927447,476.0
13674.16610542466,461.0
13674.166167921872,471.0
13674.166230419085,424.0
13674.166292916298,446.0
13674.16635541351,457.0
13674.166417910723,446.0
13674.166480407936,462.0
13674.166542905148,464.0
13674.166605402359,470.0
13674.166667899572,458.0
13674.166730396784,429.0
13674.166792893997,408.0
13674.16685539121,456.0
13674.166917888422,434.0
13674.166980385635,423.0
13674.167042882847,423.0
13674.16710538006,396.0
13674.167167877273,411.0
13674.167230374485,420.0
13674.167292871696,426.0
13674.167355368909,411.0
13674.167417866121,425.0
13674.167480363334,448.0
13674.167542860547,424.0
13674.16760535776,426.0
13674.167667854972,443.0
13674.167730352185,442.0
13674.167792849397,423.0
13674.16785534661,443.0
13674.167917843823,431.0
13674.167980341033,407.0
13674.168042838246,419.0
13674.168105335459,422.0
13674.168167832671,423.0
13674.168230329884,426.0
13674.168292827097,443.0
13674.16835532431,472.0
13674.168417821522,456.0
13674.168480318735,450.0
13674.168542815947,455.0
13674.16860531316,458.0
13674.16866781037,459.0
13674.168730307583,417.0
13674.168792804796,420.0
13674.168855302009,474.0
13674.168917799221,432.0
13674.168980296434,425.0
13674.169042793646,442.0
13674.169105290859,430.0
13674.169167788072,437.0
13674.169230285284,434.0
13674.169292782497,417.0
13674.169355279708,444.0
13674.16941777692,446.0
13674.169480274133,434.0
13674.169542771346,436.0
13674.169605268558,419.0
13674.169667765771,429.0
13674.169730262984,421.0
13674.169792760196,411.0
13674.169855257409,459.0
13674.169917754622,435.0
13674.169980251834,410.0
13674.170042749045,428.0
13674.170105246258,416.0
13674.17016774347,416.0
13674.170230240683,437.0
13674.170292737896,451.0
13674.170355235108,444.0
13674.17041773232,425.0
13674.170480229533,437.0
13674.170542726746,443.0
13674.170605223959,424.0
13674.170667721171,449.0
13674.170730218382,438.0
13674.170792715595,428.0
13674.170855212808,490.0
13674.17091771002,467.0
13674.170980207233,433.0
13674.171042704445,452.0
13674.171105201658,456.0
13674.17116769887,474.0
13674.171230196083,467.0
13674.171292693296,475.0
13674.171355190509,495.0
13674.17141768772,465.0
13674.171480184932,453.0
13674.171542682145,462.0
13674.171605179357,480.0
13674.17166767657,482.0
13674.171730173783,423.0
13674.171792670995,419.0
13674.171855168208,488.0
13674.17191766542,452.0
13674.171980162633,406.0
13674.172042659846,403.0
13674.172105157057,412.0
13674.17216765427,407.0
13674.172230151482,395.0
13674.172292648695,409.0
13674.172355145907,402.0
13674.17241764312,379.0
13674.172480140332,376.0
13674.172542637545,375.0
13674.172605134758,359.0
13674.17266763197,372.0
13674.172730129183,370.0
13674.172792626394,369.0
13674.172855123606,408.0
13674.17291762082,388.0
13674.172980118032,382.0
13674.173042615244,383.0
13674.173105112457,399.0
13674.17316760967,389.0
13674.173230106882,376.0
13674.173292604095,389.0
13674.173355101308,388.0
13674.17341759852,410.0
13674.173480095731,424.0
13674.173542592944,408.0
13674.173605090156,418.0
13674.173667587369,442.0
13674.173730084582,413.0
13674.173792581794,409.0
13674.173855079007,436.0
13674.17391757622,412.0
13674.173980073432,390.0
13674.174042570645,393.0
13674.174105067857,380.0
13674.174167565068,367.0
13674.174230062281,403.0
13674.174292559494,395.0
13674.174355056706,382.0
13674.174417553919,381.0
13674.174480051131,375.0
13674.174542548344,364.0
13674.174605045557,344.0
13674.17466754277,368.0
13674.174730039982,387.0
13674.174792537193,375.0
13674.174855034405,411.0
13674.174917531618,395.0
13674.17498002883,399.0
13674.175042526043,412.0
13674.175105023256,379.0
13674.175167520469,386.0
13674.175230017681,396.0
13674.175292514894,393.0
13674.175355012107,431.0
13674.17541750932,444.0
13674.175480006532,439.0
13674.175542503743,432.0
13674.175605000955,413.0
13674.175667498168,432.0
13674.17572999538,402.0
13674.175792492593,396.0
13674.175854989806,458.0
13674.175917487019,441.0
13674.175979984231,419.0
13674.176042481444,416.0
13674.176104978656,414.0
13674.176167475867,432.0
13674.17622997308,426.0
13674.176292470293,431.0
13674.176354967505,432.0
13674.176417464718,419.0
13674.17647996193,443.0
13674.176542459143,440.0
13674.176604956356,410.0
13674.176667453568,419.0
13674.176729950781,409.0
13674.176792447994,388.0
13674.176854945206,425.0
13674.176917442417,426.0
13674.17697993963,407.0
13674.177042436842,376.0
13674.177104934055,390.0
13674.177167431268,385.0
13674.17722992848,385.0
13674.177292425693,433.0
13674.177354922906,407.0
13674.177417420118,398.0
13674.17747991733,409.0
13674.177542414542,418.0
13674.177604911754,408.0
13674.177667408967,410.0
13674.17772990618,394.0
13674.177792403392,403.0
13674.177854900605,452.0
13674.177917397818,408.0
13674.17797989503,389.0
13674.178042392243,386.0
13674.178104889455,365.0
13674.178167386668,348.0
13674.17822988388,373.0
13674.178292381092,384.0
13674.178354878304,370.0
13674.178417375517,383.0
13674.17847987273,369.0
13674.178542369942,357.0
13674.178604867155,346.0
13674.178667364367,366.0
13674.17872986158,381.0
13674.178792358793,375.0
13674.178854856005,414.0
13674.178917353216,398.0
13674.178979850429,393.0
13674.179042347641,378.0
13674.179104844854,348.0
13674.179167342067,381.0
13674.17922983928,390.0
13674.179292336492,360.0
13674.179354833705,374.0
13674.179417330917,384.0
13674.17947982813,368.0
13674.179542325342,362.0
13674.179604822553,356.0
13674.179667319766,369.0
13674.179729816979,356.0
13674.179792314191,344.0
13674.179854811404,392.0
13674.179917308616,399.0
13674.17997980583,373.0
13674.180042303042,361.0
13674.180104800254,365.0
13674.180167297467,370.0
13674.18022979468,381.0
13674.18029229189,379.0
13674.180354789103,359.0
13674.180417286316,370.0
13674.180479783528,408.0
13674.180542280741,409.0
13674.180604777954,390.0
13674.180667275166,405.0
13674.180729772379,380.0
13674.180792269592,365.0
13674.180854766804,441.0
13674.180917264017,399.0
13674.180979761228,365.0
13674.18104225844,386.0
13674.181104755653,379.0
13674.181167252866,379.0
13674.181229750078,357.0
13674.181292247291,354.0
13674.181354744504,353.0
13674.181417241716,380.0
13674.181479738929,400.0
13674.181542236141,346.0
13674.181604733354,338.0
13674.181667230565,413.0
13674.181729727778,356.0
13674.18179222499,356.0
13674.181854722203,437.0
13674.181917219415,361.0
13674.181979716628,367.0
13674.18204221384,383.0
13674.182104711053,368.0
13674.182167208266,422.0
13674.182229705479,392.0
13674.182292202691,391.0
13674.182354699902,440.0
13674.182417197115,419.0
13674.182479694327,417.0
13674.18254219154,426.0
13674.182604688753,407.0
13674.182667185965,411.0
13674.182729683178,380.0
13674.18279218039,368.0
13674.182854677603,431.0
13674.182917174816,400.0
13674.182979672029,370.0
13674.18304216924,402.0
13674.183104666452,387.0
13674.183167163665,368.0
13674.183229660877,371.0
13674.18329215809,358.0
13674.183354655303,351.0
13674.183417152515,355.0
13674.183479649728,379.0
13674.18354214694,385.0
13674.183604644153,397.0
13674.183667141366,390.0
13674.183729638577,351.0
13674.18379213579,364.0
13674.183854633002,391.0
13674.183917130214,350.0
13674.183979627427,343.0
13674.18404212464,360.0
13674.184104621852,352.0
13674.184167119065,364.0
13674.184229616278,371.0
13674.18429211349,347.0
13674.184354610703,351.0
13674.184417107914,356.0
13674.184479605126,348.0
13674.184542102339,360.0
13674.184604599552,337.0
13674.184667096764,329.0
13674.184729593977,313.0
13674.18479209119,294.0
13674.184854588402,365.0
13674.184917085615,356.0
13674.184979582828,325.0
13674.18504208004,334.0
13674.185104577251,304.0
13674.185167074464,294.0
13674.185229571676,293.0
13674.185292068889,304.0
13674.185354566102,314.0
13674.185417063314,293.0
13674.185479560527,296.0
13674.18554205774,310.0
13674.185604554952,310.0
13674.185667052165,348.0
13674.185729549376,325.0
13674.185792046588,299.0
13674.1858545438,353.0
13674.185917041013,324.0
13674.185979538226,312.0
13674.186042035439,332.0
13674.186104532651,335.0
13674.186167029864,320.0
13674.186229527077,307.0
13674.18629202429,324.0
13674.186354521502,334.0
13674.186417018715,334.0
13674.186479515925,333.0
13674.186542013138,330.0
13674.18660451035,335.0
13674.186667007563,376.0
13674.186729504776,361.0
13674.186792001989,321.0
13674.186854499201,373.0
13674.186916996414,353.0
13674.186979493626,319.0
13674.18704199084,317.0
13674.18710448805,337.0
13674.187166985263,346.0
13674.187229482475,324.0
13674.187291979688,328.0
13674.1873544769,341.0
13674.187416974113,350.0
13674.187479471326,330.0
13674.187541968538,333.0
13674.187604465751,347.0
13674.187666962964,355.0
13674.187729460176,322.0
13674.187791957389,303.0
13674.1878544546,384.0
13674.187916951812,368.0
13674.187979449025,337.0
13674.188041946238,361.0
13674.18810444345,342.0
13674.188166940663,358.0
13674.188229437876,356.0
13674.188291935088,341.0
13674.188354432301,365.0
13674.188416929514,340.0
13674.188479426724,343.0
13674.188541923937,366.0
13674.18860442115,370.0
13674.188666918362,370.0
13674.188729415575,336.0
13674.188791912788,337.0
13674.18885441,393.0
13674.188916907213,353.0
13674.188979404425,338.0
13674.189041901638,387.0
13674.18910439885,394.0
13674.189166896063,358.0
13674.189229393274,339.0
13674.189291890487,338.0
13674.1893543877,339.0
13674.189416884912,353.0
13674.189479382125,351.0
13674.189541879337,336.0
13674.18960437655,340.0
13674.189666873763,359.0
13674.189729370975,295.0
13674.189791868188,308.0
13674.189854365399,379.0
13674.189916862611,314.0
13674.189979359824,282.0
13674.190041857037,287.0
13674.19010435425,266.0
13674.190166851462,282.0
13674.190229348675,297.0
13674.190291845887,292.0
13674.1903543431,301.0
13674.190416840313,280.0
13674.190479337525,294.0
13674.190541834736,299.0
13674.190604331949,304.0
13674.190666829161,324.0
13674.190729326374,256.0
13674.190791823587,235.0
13674.1908543208,324.0
13674.190916818012,329.0
13674.190979315224,314.0
13674.191041812437,321.0
13674.19110430965,302.0
13674.191166806862,306.0
13674.191229304073,332.0
13674.191291801286,320.0
13674.191354298498,321.0
13674.191416795711,341.0
13674.191479292924,347.0
13674.191541790136,348.0
13674.191604287349,351.0
13674.191666784562,354.0
13674.191729281774,306.0
13674.191791778987,327.0
13674.1918542762,368.0
13674.19191677341,317.0
13674.191979270623,321.0
13674.192041767836,314.0
13674.192104265048,312.0
13674.192166762261,309.0
13674.192229259474,290.0
13674.192291756686,330.0
13674.192354253899,318.0
13674.192416751112,291.0
13674.192479248324,280.0
13674.192541745537,272.0
13674.192604242748,292.0
13674.19266673996,301.0
13674.192729237173,282.0
13674.192791734386,276.0
13674.192854231598,312.0
13674.19291672881,296.0
13674.192979226023,288.0
13674.193041723236,253.0
13674.193104220449,237.0
13674.193166717661,253.0
13674.193229214874,227.0
13674.193291712085,242.0
13674.193354209297,248.0
13674.19341670651,229.0
13674.193479203723,237.0
13674.193541700935,267.0
13674.193604198148,239.0
13674.19366669536,235.0
13674.193729192573,250.0
13674.193791689786,248.0
13674.193854186999,308.0
13674.193916684211,282.0
13674.193979181422,268.0
13674.194041678635,291.0
13674.194104175847,286.0
13674.19416667306,297.0
13674.194229170273,285.0
13674.194291667485,274.0
13674.194354164698,265.0
13674.19441666191,242.0
13674.194479159123,233.0
13674.194541656336,244.0
13674.194604153548,252.0
13674.19466665076,263.0
13674.194729147972,253.0
13674.194791645185,220.0
13674.194854142397,263.0
13674.19491663961,258.0
13674.194979136822,231.0
13674.195041634035,242.0
13674.195104131248,234.0
13674.19516662846,232.0
13674.195229125673,220.0
13674.195291622886,216.0
13674.195354120096,221.0
13674.19541661731,213.0
13674.195479114522,196.0
13674.195541611734,229.0
13674.195604108947,223.0
13674.19566660616,215.0
13674.195729103372,201.0
13674.195791600585,173.0
13674.195854097798,227.0
13674.19591659501,222.0
13674.195979092223,200.0
13674.196041589434,194.0
13674.196104086646,187.0
13674.196166583859,190.0
13674.196229081072,160.0
13674.196291578284,167.0
13674.196354075497,181.0
13674.19641657271,160.0
13674.196479069922,184.0
13674.196541567135,201.0
13674.196604064347,158.0
13674.19666656156,153.0
13674.19672905877,160.0
13674.196791555984,164.0
13674.196854053196,233.0
13674.196916550409,210.0
13674.196979047621,165.0
13674.197041544834,167.0
13674.197104042047,165.0
13674.19716653926,186.0
13674.197229036472,197.0
13674.197291533685,206.0
13674.197354030897,228.0
13674.197416528108,222.0
13674.19747902532,205.0
13674.197541522533,189.0
13674.197604019746,197.0
13674.197666516959,216.0
13674.197729014171,204.0
13674.197791511384,201.0
13674.197854008597,234.0
13674.19791650581,201.0
13674.197979003022,193.0
13674.198041500233,231.0
13674.198103997445,224.0
13674.198166494658,206.0
13674.19822899187,196.0
13674.198291489083,180.0
13674.198353986296,211.0
13674.198416483508,220.0
13674.198478980721,189.0
13674.198541477934,188.0
13674.198603975146,171.0
13674.198666472359,157.0
13674.198728969572,139.0
13674.198791466782,140.0
13674.198853963995,195.0
13674.198916461208,175.0
13674.19897895842,160.0
13674.199041455633,183.0
13674.199103952846,160.0
13674.199166450058,163.0
13674.199228947271,192.0
13674.199291444484,202.0
13674.199353941696,185.0
13674.199416438907,162.0
13674.19947893612,174.0
13674.199541433332,176.0
13674.199603930545,150.0
13674.199666427758,185.0
13674.19972892497,141.0
13674.199791422183,76.0
13674.199853919396,180.0
13674.199916416608,189.0
13674.19997891382,132.0
13674.200041411033,130.0
13674.200103908246,138.0
13674.200166405457,135.0
13674.20022890267,142.0
13674.200291399882,128.0
13674.200353897095,119.0
13674.200416394307,124.0
13674.20047889152,106.0
13674.200541388733,126.0
13674.200603885945,100.0
13674.200666383158,93.0
13674.20072888037,103.0
13674.200791377581,77.0
13674.200853874794,118.0
13674.200916372007,125.0
13674.20097886922,83.0
13674.201041366432,87.0
13674.201103863645,112.0
13674.201166360857,118.0
13674.20122885807,138.0
13674.201291355283,133.0
13674.201353852495,111.0
13674.201416349708,123.0
13674.201478846919,129.0
13674.201541344131,113.0
13674.201603841344,99.0
13674.201666338557,104.0
13674.20172883577,67.0
13674.201791332982,69.0
13674.201853830195,143.0
13674.201916327407,97.0
13674.20197882462,89.0
13674.202041321832,121.0
13674.202103819045,120.0
13674.202166316256,126.0
13674.202228813469,131.0
13674.202291310681,119.0
13674.202353807894,87.0
13674.202416305106,98.0
13674.20247880232,90.0
13674.202541299532,72.0
13674.202603796744,55.0
13674.202666293957,55.0
13674.20272879117,31.0
13674.202791288382,35.0
13674.202853785593,112.0
13674.202916282806,90.0
13674.202978780018,62.0
13674.203041277231,82.0
13674.203103774444,77.0
13674.203166271656,63.0
13674.203228768869,72.0
13674.203291266082,92.0
13674.203353763294,83.0
13674.203416260507,41.0
13674.20347875772,52.0
13674.20354125493,61.0
13674.203603752143,51.0
13674.203666249356,84.0
13674.203728746568,44.0
13674.20379124378,21.0
13674.203853740994,89.0
13674.203916238206,68.0
13674.203978735419,53.0
13674.204041232631,54.0
13674.204103729844,43.0
13674.204166227057,34.0
13674.204228724268,29.0
13674.20429122148,11.0
13674.204353718693,11.0
13674.204416215905,18.0
13674.204478713118,-18.0
13674.20454121033,16.0
13674.204603707543,15.0
13674.204666204756,-6.0
13674.204728701969,-14.0
13674.204791199181,-46.0
13674.204853696394,3.0
13674.204916193605,14.0
13674.204978690817,-30.0
13674.20504118803,-42.0
13674.205103685243,-21.0
13674.205166182455,-28.0
13674.205228679668,-60.0
13674.20529117688,-96.0
13674.205353674093,-10.0
13674.205416171306,60.0
13674.205478668518,-43.0
13674.205541165731,-14.0
13674.205603662942,-28.0
13674.205666160155,-47.0
13674.205728657367,6.0
13674.20579115458,-26.0
13674.205853651792,-10.0
13674.205916149005,-17.0
13674.205978646218,2.0
13674.20604114343,10.0
13674.206103640643,-18.0
13674.206166137856,-21.0
13674.206228635068,-11.0
13674.20629113228,6.0
13674.206353629492,-9.0
13674.206416126704,1.0
13674.206478623917,-8.0
13674.20654112113,-23.0
13674.206603618342,1.0
13674.206666115555,-44.0
13674.206728612768,33.0
13674.20679110998,73.0
13674.206853607193,-60.0
13674.206916104406,-9.0
13674.206978601616,12.0
13674.207041098829,-41.0
13674.207103596042,-26.0
13674.207166093254,-20.0
13674.207228590467,-28.0
13674.20729108768,-23.0
13674.207353584892,-44.0
13674.207416082105,-47.0
13674.207478579317,-6.0
13674.20754107653,-18.0
13674.207603573743,-40.0
13674.207666070954,-17.0
13674.207728568166,-38.0
13674.207791065379,20.0
13674.207853562591,36.0
13674.207916059804,-89.0
13674.207978557017,-43.0
13674.20804105423,-4.0
13674.208103551442,-37.0
13674.208166048655,-37.0
13674.208228545867,-29.0
13674.20829104308,-32.0
13674.20835354029,-35.0
13674.208416037503,-26.0
13674.208478534716,-32.0
13674.208541031929,-30.0
13674.208603529141,-43.0
13674.208666026354,-23.0
13674.208728523567,-41.0
13674.20879102078,-71.0
13674.208853517992,-24.0
13674.208916015205,-48.0
13674.208978512415,-63.0
13674.209041009628,-51.0
13674.20910350684,-45.0
13674.209166004053,4.0
13674.209228501266,-20.0
13674.209290998479,-65.0
13674.209353495691,-26.0
13674.209415992904,-39.0
13674.209478490116,-44.0
13674.20954098733,-33.0
13674.209603484542,-79.0
13674.209665981754,-39.0
13674.209728478965,-61.0
13674.209790976178,-118.0
13674.20985347339,-66.0
13674.209915970603,-67.0
13674.209978467816,-93.0
13674.210040965028,-105.0
13674.210103462241,-95.0
13674.210165959454,-85.0
13674.210228456666,-113.0
13674.210290953879,-105.0
13674.21035345109,-85.0
13674.210415948302,-93.0
13674.210478445515,-60.0
13674.210540942728,-69.0
13674.21060343994,-85.0
13674.210665937153,-58.0
13674.210728434366,-92.0
13674.210790931578,-121.0
13674.21085342879,-66.0
13674.210915926004,-56.0
13674.210978423216,-61.0
13674.211040920429,-55.0
13674.21110341764,-45.0
13674.211165914852,-41.0
13674.211228412065,-62.0
13674.211290909278,-64.0
13674.21135340649,-66.0
13674.211415903703,-60.0
13674.211478400915,-55.0
13674.211540898128,-56.0
13674.21160339534,-67.0
13674.211665892553,-80.0
13674.211728389764,-85.0
13674.211790886977,-97.0
13674.21185338419,-53.0
13674.211915881402,-44.0
13674.211978378615,-70.0
13674.212040875827,-95.0
13674.21210337304,-103.0
13674.212165870253,-85.0
13674.212228367465,-94.0
13674.212290864678,-113.0
13674.21235336189,-110.0
13674.212415859101,-116.0
13674.212478356314,-113.0
13674.212540853527,-102.0
13674.21260335074,-129.0
13674.212665847952,-127.0
13674.212728345165,-126.0
13674.212790842377,-142.0
13674.21285333959,-109.0
13674.212915836802,-126.0
13674.212978334015,-143.0
13674.213040831228,-107.0
13674.213103328439,-118.0
13674.213165825651,-165.0
13674.213228322864,-147.0
13674.213290820077,-148.0
13674.21335331729,-178.0
13674.213415814502,-156.0
13674.213478311714,-159.0
13674.213540808927,-168.0
13674.21360330614,-150.0
13674.213665803352,-148.0
13674.213728300565,-179.0
13674.213790797776,-199.0
13674.213853294988,-164.0
13674.213915792201,-161.0
13674.213978289414,-175.0
13674.214040786626,-170.0
13674.214103283839,-160.0
13674.214165781052,-164.0
13674.214228278264,-179.0
13674.214290775477,-173.0
13674.21435327269,-167.0
13674.214415769902,-181.0
13674.214478267113,-180.0
13674.214540764326,-157.0
13674.214603261538,-148.0
13674.214665758751,-158.0
13674.214728255964,-180.0
13674.214790753176,-186.0
13674.214853250389,-179.0
13674.214915747601,-233.0
13674.214978244814,-247.0
13674.215040742027,-236.0
13674.21510323924,-249.0
13674.21516573645,-224.0
13674.215228233663,-229.0
13674.215290730875,-219.0
13674.215353228088,-154.0
13674.2154157253,-164.0
13674.215478222513,-198.0
13674.215540719726,-210.0
13674.215603216939,-236.0
13674.215665714151,-214.0
13674.215728211364,-212.0
13674.215790708577,-230.0
13674.215853205787,-196.0
13674.215915703,-215.0
13674.215978200213,-253.0
13674.216040697425,-241.0
13674.216103194638,-227.0
13674.21616569185,-234.0
13674.216228189063,-260.0
13674.216290686276,-255.0
13674.216353183489,-226.0
13674.216415680701,-249.0
13674.216478177914,-266.0
13674.216540675125,-253.0
13674.216603172337,-251.0
13674.21666566955,-273.0
13674.216728166763,-301.0
13674.216790663975,-220.0
13674.216853161188,-206.0
13674.2169156584,-258.0
13674.216978155613,-246.0
13674.217040652826,-231.0
13674.217103150038,-213.0
13674.217165647251,-203.0
13674.217228144462,-243.0
13674.217290641674,-254.0
13674.217353138887,-224.0
13674.2174156361,-239.0
13674.217478133312,-248.0
13674.217540630525,-235.0
13674.217603127738,-234.0
13674.21766562495,-230.0
13674.217728122163,-231.0
13674.217790619376,-258.0
13674.217853116588,-237.0
13674.217915613799,-251.0
13674.217978111012,-269.0
13674.218040608224,-248.0
13674.218103105437,-239.0
13674.21816560265,-244.0
13674.218228099862,-263.0
13674.218290597075,-263.0
13674.218353094288,-258.0
13674.2184155915,-281.0
13674.218478088713,-297.0
13674.218540585925,-320.0
13674.218603083136,-300.0
13674.218665580349,-279.0
13674.218728077562,-311.0
13674.218790574774,-303.0
13674.218853071987,-259.0
13674.2189155692,-284.0
13674.218978066412,-279.0
13674.219040563625,-276.0
13674.219103060837,-296.0
13674.21916555805,-294.0
13674.219228055263,-271.0
13674.219290552473,-281.0
13674.219353049686,-292.0
13674.219415546899,-287.0
13674.219478044111,-285.0
13674.219540541324,-278.0
13674.219603038537,-287.0
13674.21966553575,-274.0
13674.219728032962,-290.0
13674.219790530175,-299.0
13674.219853027387,-257.0
13674.219915524598,-280.0
13674.21997802181,-276.0
13674.220040519023,-251.0
13674.220103016236,-264.0
13674.220165513449,-266.0
13674.220228010661,-252.0
13674.220290507874,-251.0
13674.220353005087,-281.0
13674.2204155023,-298.0
13674.220477999512,-268.0
13674.220540496724,-264.0
13674.220602993937,-281.0
13674.220665491148,-268.0
13674.22072798836,-290.0
13674.220790485573,-305.0
13674.220852982786,-278.0
13674.220915479998,-281.0
13674.220977977211,-290.0
13674.221040474424,-280.0
13674.221102971636,-282.0
13674.221165468849,-291.0
13674.221227966062,-301.0
13674.221290463272,-299.0
13674.221352960485,-289.0
13674.221415457698,-307.0
13674.22147795491,-309.0
13674.221540452123,-310.0
13674.221602949336,-322.0
13674.221665446548,-319.0
13674.221727943761,-315.0
13674.221790440974,-306.0
13674.221852938186,-293.0
13674.221915435399,-313.0
13674.221977932611,-314.0
13674.222040429822,-334.0
13674.222102927035,-366.0
13674.222165424248,-367.0
13674.22222792146,-364.0
13674.222290418673,-342.0
13674.222352915885,-327.0
13674.222415413098,-316.0
13674.22247791031,-304.0
13674.222540407523,-300.0
13674.222602904736,-316.0
13674.222665401947,-315.0
13674.22272789916,-318.0
13674.222790396372,-314.0
13674.222852893585,-305.0
13674.222915390797,-321.0
13674.22297788801,-303.0
13674.223040385223,-318.0
13674.223102882435,-341.0
13674.223165379648,-336.0
13674.22322787686,-335.0
13674.223290374073,-336.0
13674.223352871284,-319.0
13674.223415368497,-302.0
13674.22347786571,-324.0
13674.223540362922,-340.0
13674.223602860135,-347.0
13674.223665357347,-338.0
13674.22372785456,-353.0
13674.223790351773,-376.0
13674.223852848985,-333.0
13674.223915346198,-348.0
13674.22397784341,-376.0
13674.224040340621,-342.0
13674.224102837834,-329.0
13674.224165335047,-356.0
13674.22422783226,-362.0
13674.224290329472,-359.0
13674.224352826684,-346.0
13674.224415323897,-345.0
13674.22447782111,-341.0
13674.224540318322,-345.0
13674.224602815535,-376.0
13674.224665312748,-339.0
13674.224727809958,-332.0
13674.224790307171,-377.0
13674.224852804384,-356.0
13674.224915301596,-380.0
13674.224977798809,-385.0
13674.225040296022,-361.0
13674.225102793234,-381.0
13674.225165290447,-383.0
13674.22522778766,-383.0
13674.225290284872,-376.0
13674.225352782085,-365.0
13674.225415279296,-384.0
13674.225477776508,-369.0
13674.225540273721,-365.0
13674.225602770934,-362.0
13674.225665268146,-356.0
13674.225727765359,-398.0
13674.225790262572,-396.0
13674.225852759784,-349.0
13674.225915256997,-372.0
13674.22597775421,-385.0
13674.226040251422,-390.0
13674.226102748633,-383.0
13674.226165245846,-361.0
13674.226227743058,-390.0
13674.22629024027,-367.0
13674.226352737483,-343.0
13674.226415234696,-350.0
13674.226477731909,-369.0
13674.226540229121,-377.0
13674.226602726334,-387.0
13674.226665223547,-360.0
13674.22672772076,-356.0
13674.22679021797,-376.0
13674.226852715183,-348.0
13674.226915212395,-362.0
13674.226977709608,-362.0
13674.22704020682,-371.0
13674.227102704033,-402.0
13674.227165201246,-379.0
13674.227227698459,-370.0
13674.227290195671,-402.0
13674.227352692884,-397.0
13674.227415190097,-405.0
13674.227477687307,-423.0
13674.22754018452,-404.0
13674.227602681733,-409.0
13674.227665178945,-407.0
13674.227727676158,-423.0
13674.22779017337,-462.0
13674.227852670583,-440.0
13674.227915167796,-437.0
13674.227977665008,-442.0
13674.228040162221,-453.0
13674.228102659434,-452.0
13674.228165156645,-446.0
13674.228227653857,-446.0
13674.22829015107,-453.0
13674.228352648282,-445.0
13674.228415145495,-432.0
13674.228477642708,-452.0
13674.22854013992,-431.0
13674.228602637133,-428.0
13674.228665134346,-447.0
13674.228727631558,-448.0
13674.228790128771,-441.0
13674.228852625982,-418.0
13674.228915123194,-438.0
13674.228977620407,-450.0
13674.22904011762,-454.0
13674.229102614832,-467.0
13674.229165112045,-445.0
13674.229227609258,-474.0
13674.22929010647,-484.0
13674.229352603683,-444.0
13674.229415100895,-459.0
13674.229477598108,-460.0
13674.229540095319,-429.0
13674.229602592532,-436.0
13674.229665089744,-446.0
13674.229727586957,-462.0
13674.22979008417,-489.0
13674.229852581382,-447.0
13674.229915078595,-456.0
13674.229977575807,-486.0
13674.23004007302,-444.0
13674.230102570233,-443.0
13674.230165067445,-454.0
13674.230227564656,-451.0
13674.230290061869,-470.0
13674.230352559081,-482.0
13674.230415056294,-481.0
13674.230477553507,-465.0
13674.23054005072,-460.0
13674.230602547932,-472.0
13674.230665045145,-456.0
13674.230727542357,-490.0
13674.23079003957,-500.0
13674.23085253678,-447.0
13674.230915033993,-455.0
13674.230977531206,-437.0
13674.231040028419,-429.0
13674.231102525631,-422.0
13674.231165022844,-419.0
13674.231227520057,-422.0
13674.23129001727,-412.0
13674.231352514482,-430.0
13674.231415011694,-421.0
13674.231477508907,-424.0
13674.23154000612,-430.0
13674.23160250333,-425.0
13674.231665000543,-446.0
13674.231727497756,-453.0
13674.231789994968,-437.0
13674.231852492181,-410.0
13674.231914989394,-411.0
13674.231977486606,-433.0
13674.232039983819,-429.0
13674.232102481032,-432.0
13674.232164978244,-434.0
13674.232227475455,-419.0
13674.232289972668,-421.0
13674.23235246988,-432.0
13674.232414967093,-438.0
13674.232477464306,-442.0
13674.232539961518,-477.0
13674.232602458731,-475.0
13674.232664955944,-431.0
13674.232727453156,-452.0
13674.232789950369,-473.0
13674.232852447582,-437.0
13674.232914944794,-439.0
13674.232977442005,-436.0
13674.233039939218,-439.0
13674.23310243643,-482.0
13674.233164933643,-459.0
13674.233227430856,-443.0
13674.233289928068,-439.0
13674.23335242528,-431.0
13674.233414922493,-457.0
13674.233477419706,-455.0
13674.233539916919,-458.0
13674.23360241413,-456.0
13674.233664911342,-439.0
13674.233727408555,-457.0
13674.233789905767,-471.0
13674.23385240298,-438.0
13674.233914900193,-433.0
13674.233977397405,-452.0
13674.234039894618,-474.0
13674.23410239183,-480.0
13674.234164889043,-486.0
13674.234227386256,-497.0
13674.234289883469,-489.0
13674.23435238068,-495.0
13674.234414877892,-486.0
13674.234477375105,-499.0
13674.234539872317,-502.0
13674.23460236953,-506.0
13674.234664866743,-536.0
13674.234727363955,-543.0
13674.234789861168,-548.0
13674.23485235838,-529.0
13674.234914855593,-532.0
13674.234977352804,-527.0
13674.235039850017,-513.0
13674.23510234723,-553.0
13674.235164844442,-538.0
13674.235227341655,-498.0
13674.235289838867,-503.0
13674.23535233608,-530.0
13674.235414833292,-534.0
13674.235477330505,-524.0
13674.235539827718,-540.0
13674.23560232493,-536.0
13674.235664822141,-508.0
13674.235727319354,-545.0
13674.235789816566,-551.0
13674.23585231378,-493.0
13674.235914810992,-529.0
13674.235977308204,-556.0
13674.236039805417,-534.0
13674.23610230263,-511.0
13674.236164799842,-504.0
13674.236227297055,-483.0
13674.236289794268,-469.0
13674.236352291478,-505.0
13674.236414788691,-507.0
13674.236477285904,-487.0
13674.236539783116,-479.0
13674.236602280329,-474.0
13674.236664777542,-461.0
13674.236727274754,-487.0
13674.236789771967,-495.0
13674.23685226918,-437.0
13674.236914766392,-449.0
13674.236977263605,-481.0
13674.237039760816,-480.0
13674.237102258028,-462.0
13674.23716475524,-478.0
13674.237227252454,-477.0
13674.237289749666,-467.0
13674.237352246879,-480.0
13674.237414744091,-496.0
13674.237477241304,-485.0
13674.237539738517,-476.0
13674.23760223573,-504.0
13674.237664732942,-464.0
13674.237727230153,-464.0
13674.237789727365,-521.0
13674.237852224578,-487.0
13674.23791472179,-475.0
13674.237977219003,-484.0
13674.238039716216,-511.0
13674.238102213429,-543.0
13674.238164710641,-554.0
13674.238227207854,-547.0
13674.238289705067,-523.0
13674.23835220228,-528.0
13674.23841469949,-551.0
13674.238477196703,-537.0
13674.238539693915,-525.0
13674.238602191128,-533.0
13674.23866468834,-504.0
13674.238727185553,-526.0
13674.238789682766,-530.0
13674.238852179978,-472.0
13674.238914677191,-494.0
13674.238977174404,-517.0
13674.239039671616,-511.0
13674.239102168827,-512.0
13674.23916466604,-505.0
13674.239227163253,-517.0
13674.239289660465,-544.0
13674.239352157678,-528.0
13674.23941465489,-510.0
13674.239477152103,-516.0
13674.239539649316,-496.0
13674.239602146528,-510.0
13674.239664643741,-524.0
13674.239727140954,-565.0
13674.239789638164,-581.0
13674.239852135377,-482.0
13674.23991463259,-505.0
13674.239977129802,-535.0
13674.240039627015,-488.0
13674.240102124228,-522.0
13674.24016462144,-524.0
13674.240227118653,-508.0
13674.240289615866,-515.0
13674.240352113078,-520.0
13674.24041461029,-518.0
13674.240477107502,-500.0
13674.240539604714,-517.0
13674.240602101927,-533.0
13674.24066459914,-523.0
13674.240727096352,-553.0
13674.240789593565,-559.0
13674.240852090777,-503.0
13674.24091458799,-532.0
13674.240977085203,-533.0
13674.241039582415,-535.0
13674.241102079628,-543.0
13674.241164576839,-549.0
13674.241227074051,-583.0
13674.241289571264,-544.0
13674.241352068477,-532.0
13674.24141456569,-556.0
13674.241477062902,-537.0
13674.241539560115,-531.0
13674.241602057327,-541.0
13674.24166455454,-538.0
13674.241727051753,-568.0
13674.241789548965,-581.0
13674.241852046176,-558.0
13674.241914543389,-570.0
13674.241977040601,-568.0
13674.242039537814,-552.0
13674.242102035027,-540.0
13674.24216453224,-547.0
13674.242227029452,-554.0
13674.242289526665,-545.0
13674.242352023877,-540.0
13674.24241452109,-551.0
13674.242477018302,-557.0
13674.242539515513,-547.0
13674.242602012726,-560.0
13674.242664509939,-537.0
13674.242727007151,-539.0
13674.242789504364,-563.0
13674.242852001576,-527.0
13674.24291449879,-541.0
13674.242976996002,-543.0
13674.243039493214,-541.0
13674.243101990427,-551.0
13674.243164487638,-539.0
13674.24322698485,-529.0
13674.243289482063,-547.0
13674.243351979276,-547.0
13674.243414476488,-518.0
13674.243476973701,-512.0
13674.243539470914,-508.0
13674.243601968126,-521.0
13674.243664465339,-515.0
13674.243726962552,-508.0
13674.243789459764,-534.0
13674.243851956977,-481.0
13674.243914454188,-465.0
13674.2439769514,-503.0
13674.244039448613,-493.0
13674.244101945826,-494.0
13674.244164443038,-509.0
13674.24422694025,-492.0
13674.244289437464,-484.0
13674.244351934676,-512.0
13674.244414431889,-520.0
13674.244476929101,-523.0
13674.244539426312,-538.0
13674.244601923525,-542.0
13674.244664420738,-501.0
13674.24472691795,-516.0
13674.244789415163,-550.0
13674.244851912375,-514.0
13674.244914409588,-523.0
13674.2449769068,-532.0
13674.245039404013,-530.0
13674.245101901226,-533.0
13674.245164398439,-546.0
13674.245226895651,-553.0
13674.245289392862,-528.0
13674.245351890075,-538.0
13674.245414387287,-543.0
13674.2454768845,-525.0
13674.245539381713,-540.0
13674.245601878925,-543.0
13674.245664376138,-519.0
13674.24572687335,-558.0
13674.245789370563,-552.0
13674.245851867776,-490.0
13674.245914364987,-510.0
13674.2459768622,-516.0
13674.246039359412,-483.0
13674.246101856625,-482.0
13674.246164353837,-483.0
13674.24622685105,-467.0
13674.246289348263,-471.0
13674.246351845475,-462.0
13674.246414342688,-446.0
13674.2464768399,-463.0
13674.246539337113,-491.0
13674.246601834324,-489.0
13674.246664331537,-450.0
13674.24672682875,-463.0
13674.246789325962,-502.0
13674.246851823174,-459.0
13674.246914320387,-461.0
13674.2469768176,-499.0
13674.247039314812,-500.0
13674.247101812025,-473.0
13674.247164309238,-465.0
13674.24722680645,-464.0
13674.247289303661,-477.0
13674.247351800874,-475.0
13674.247414298086,-434.0
13674.247476795299,-449.0
13674.247539292512,-485.0
13674.247601789724,-492.0
13674.247664286937,-469.0
13674.24772678415,-488.0
13674.247789281362,-516.0
13674.247851778575,-470.0
13674.247914275787,-460.0
13674.247976772998,-473.0
13674.248039270211,-490.0
13674.248101767424,-484.0
13674.248164264636,-474.0
13674.248226761849,-488.0
13674.248289259061,-501.0
13674.248351756274,-486.0
13674.248414253487,-475.0
13674.2484767507,-492.0
13674.248539247912,-485.0
13674.248601745125,-491.0
13674.248664242336,-528.0
13674.248726739548,-517.0
13674.24878923676,-489.0
13674.248851733973,-444.0
13674.248914231186,-446.0
13674.248976728399,-467.0
13674.249039225611,-462.0
13674.249101722824,-474.0
13674.249164220037,-492.0
13674.24922671725,-504.0
13674.249289214462,-474.0
13674.249351711673,-468.0
13674.249414208885,-469.0
13674.249476706098,-484.0
13674.24953920331,-483.0
13674.249601700523,-475.0
13674.249664197736,-461.0
13674.249726694949,-476.0
13674.249789192161,-492.0
13674.249851689374,-434.0
13674.249914186586,-454.0
13674.2499766838,-475.0
13674.25003918101,-453.0
13674.250101678223,-483.0
13674.250164175435,-495.0
13674.250226672648,-473.0
13674.25028916986,-454.0
13674.250351667073,-458.0
13674.250414164286,-487.0
13674.250476661498,-482.0
13674.250539158711,-477.0
13674.250601655924,-502.0
13674.250664153136,-481.0
13674.250726650347,-486.0
13674.25078914756,-502.0
13674.250851644772,-448.0
13674.250914141985,-454.0
13674.250976639198,-473.0
13674.25103913641,-476.0
13674.251101633623,-485.0
13674.251164130836,-467.0
13674.251226628048,-460.0
13674.25128912526,-464.0
13674.251351622474,-460.0
13674.251414119684,-473.0
13674.251476616897,-474.0
13674.25153911411,-427.0
13674.251601611322,-430.0
13674.251664108535,-449.0
13674.251726605748,-449.0
13674.25178910296,-463.0
13674.251851600173,-429.0
13674.251914097385,-405.0
13674.251976594598,-434.0
13674.25203909181,-456.0
13674.252101589022,-448.0
13674.252164086234,-435.0
13674.252226583447,-435.0
13674.25228908066,-429.0
13674.252351577872,-411.0
13674.252414075085,-421.0
13674.252476572297,-445.0
13674.25253906951,-431.0
13674.252601566723,-434.0
13674.252664063935,-417.0
13674.252726561148,-416.0
13674.252789058359,-439.0
13674.252851555571,-394.0
13674.252914052784,-406.0
13674.252976549997,-394.0
13674.25303904721,-374.0
13674.253101544422,-409.0
13674.253164041635,-406.0
13674.253226538847,-421.0
13674.25328903606,-418.0
13674.253351533273,-416.0
13674.253414030485,-394.0
13674.253476527696,-372.0
13674.253539024909,-378.0
13674.253601522121,-376.0
13674.253664019334,-384.0
13674.253726516547,-422.0
13674.25378901376,-402.0
13674.253851510972,-333.0
13674.253914008184,-348.0
13674.253976505397,-348.0
13674.25403900261,-363.0
13674.25410149982,-364.0
13674.254163997033,-346.0
13674.254226494246,-365.0
13674.254288991458,-340.0
13674.254351488671,-350.0
13674.254413985884,-347.0
13674.254476483096,-355.0
13674.254538980309,-372.0
13674.254601477522,-364.0
13674.254663974734,-373.0
13674.254726471947,-395.0
13674.25478896916,-406.0
13674.25485146637,-351.0
13674.254913963583,-369.0
13674.254976460796,-385.0
13674.255038958008,-361.0
13674.255101455221,-355.0
13674.255163952434,-352.0
13674.255226449646,-341.0
13674.255288946859,-324.0
13674.255351444071,-338.0
13674.255413941284,-327.0
13674.255476438495,-308.0
13674.255538935708,-312.0
13674.25560143292,-305.0
13674.255663930133,-291.0
13674.255726427346,-326.0
13674.255788924558,-349.0
13674.25585142177,-293.0
13674.255913918983,-298.0
13674.255976416196,-325.0
13674.256038913409,-339.0
13674.256101410621,-342.0
13674.256163907834,-347.0
13674.256226405045,-354.0
13674.256288902257,-361.0
13674.25635139947,-338.0
13674.256413896683,-337.0
13674.256476393895,-384.0
13674.256538891108,-378.0
13674.25660138832,-365.0
13674.256663885533,-362.0
13674.256726382746,-372.0
13674.256788879959,-370.0
13674.25685137717,-329.0
13674.256913874382,-329.0
13674.256976371595,-333.0
13674.257038868807,-326.0
13674.25710136602,-343.0
13674.257163863233,-353.0
13674.257226360445,-343.0
13674.257288857658,-327.0
13674.25735135487,-334.0
13674.257413852083,-336.0
13674.257476349296,-306.0
13674.257538846507,-303.0
13674.25760134372,-318.0
13674.257663840932,-307.0
13674.257726338144,-301.0
13674.257788835357,-313.0
13674.25785133257,-301.0
13674.257913829782,-280.0
13674.257976326995,-304.0
13674.258038824208,-313.0
13674.25810132142,-282.0
13674.258163818633,-264.0
13674.258226315844,-272.0
13674.258288813056,-307.0
13674.258351310269,-307.0
13674.258413807482,-298.0
13674.258476304694,-285.0
13674.258538801907,-298.0
13674.25860129912,-312.0
13674.258663796332,-278.0
13674.258726293545,-292.0
13674.258788790758,-315.0
13674.25885128797,-290.0
13674.258913785181,-299.0
13674.258976282394,-291.0
13674.259038779606,-289.0
13674.259101276819,-301.0
13674.259163774032,-270.0
13674.259226271244,-274.0
13674.259288768457,-294.0
13674.25935126567,-281.0
13674.259413762882,-271.0
13674.259476260095,-278.0
13674.259538757307,-303.0
13674.259601254518,-318.0
13674.25966375173,-302.0
13674.259726248943,-275.0
13674.259788746156,-311.0
13674.259851243369,-309.0
13674.259913740581,-289.0
13674.259976237794,-312.0
13674.260038735007,-322.0
13674.26010123222,-320.0
13674.260163729432,-294.0
13674.260226226645,-296.0
13674.260288723855,-291.0
13674.260351221068,-287.0
13674.26041371828,-292.0
13674.260476215493,-268.0
13674.260538712706,-268.0
13674.260601209919,-275.0
13674.260663707131,-262.0
13674.260726204344,-282.0
13674.260788701557,-295.0
13674.26085119877,-255.0
13674.260913695982,-246.0
13674.260976193193,-262.0
13674.261038690405,-277.0
13674.261101187618,-299.0
13674.26116368483,-267.0
13674.261226182043,-266.0
13674.261288679256,-302.0
13674.261351176468,-289.0
13674.261413673681,-253.0
13674.261476170894,-248.0
13674.261538668106,-262.0
13674.261601165319,-253.0
13674.26166366253,-218.0
13674.261726159742,-242.0
13674.261788656955,-255.0
13674.261851154168,-219.0
13674.26191365138,-246.0
13674.261976148593,-252.0
13674.262038645806,-228.0
13674.262101143018,-237.0
13674.262163640231,-238.0
13674.262226137444,-213.0
13674.262288634656,-214.0
13674.262351131867,-195.0
13674.26241362908,-177.0
13674.262476126292,-202.0
13674.262538623505,-179.0
13674.262601120718,-171.0
13674.26266361793,-169.0
13674.262726115143,-193.0
13674.262788612356,-231.0
13674.262851109568,-187.0
13674.26291360678,-177.0
13674.262976103993,-204.0
13674.263038601204,-215.0
13674.263101098417,-215.0
13674.26316359563,-206.0
13674.263226092842,-219.0
13674.263288590055,-224.0
13674.263351087267,-207.0
13674.26341358448,-223.0
13674.263476081693,-252.0
13674.263538578905,-231.0
13674.263601076118,-223.0
13674.26366357333,-225.0
13674.263726070541,-214.0
13674.263788567754,-242.0
13674.263851064967,-209.0
13674.26391356218,-210.0
13674.263976059392,-211.0
13674.264038556605,-203.0
13674.264101053817,-237.0
13674.26416355103,-216.0
13674.264226048243,-202.0
13674.264288545455,-219.0
13674.264351042668,-206.0
13674.264413539879,-206.0
13674.264476037091,-194.0
13674.264538534304,-196.0
13674.264601031517,-204.0
13674.26466352873,-164.0
13674.264726025942,-200.0
13674.264788523154,-223.0
13674.264851020367,-159.0
13674.26491351758,-186.0
13674.264976014792,-193.0
13674.265038512003,-163.0
13674.265101009216,-165.0
13674.265163506429,-176.0
13674.265226003641,-169.0
13674.265288500854,-181.0
13674.265350998066,-210.0
13674.265413495279,-209.0
13674.265475992492,-212.0
13674.265538489704,-207.0
13674.265600986917,-193.0
13674.26566348413,-189.0
13674.265725981342,-210.0
13674.265788478553,-218.0
13674.265850975766,-182.0
13674.265913472978,-204.0
13674.265975970191,-207.0
13674.266038467404,-180.0
13674.266100964616,-173.0
13674.266163461829,-171.0
13674.266225959042,-188.0
13674.266288456254,-193.0
13674.266350953467,-159.0
13674.266413450678,-153.0
13674.26647594789,-163.0
13674.266538445103,-173.0
13674.266600942316,-197.0
13674.266663439528,-162.0
13674.26672593674,-140.0
13674.266788433953,-181.0
13674.266850931166,-156.0
13674.266913428379,-139.0
13674.266975925591,-144.0
13674.267038422804,-140.0
13674.267100920017,-168.0
13674.267163417227,-170.0
13674.26722591444,-141.0
13674.267288411653,-128.0
13674.267350908865,-138.0
13674.267413406078,-139.0
13674.26747590329,-107.0
13674.267538400503,-102.0
13674.267600897716,-117.0
13674.267663394929,-112.0
13674.267725892141,-134.0
13674.267788389352,-139.0
13674.267850886565,-91.0
13674.267913383777,-105.0
13674.26797588099,-112.0
13674.268038378203,-100.0
13674.268100875415,-94.0
13674.268163372628,-110.0
13674.26822586984,-151.0
13674.268288367053,-130.0
13674.268350864266,-110.0
13674.268413361478,-139.0
13674.26847585869,-148.0
13674.268538355902,-132.0
13674.268600853115,-113.0
13674.268663350327,-110.0
13674.26872584754,-137.0
13674.268788344752,-139.0
13674.268850841965,-87.0
13674.268913339178,-102.0
13674.26897583639,-138.0
13674.269038333603,-108.0
13674.269100830816,-106.0
13674.269163328026,-115.0
13674.26922582524,-108.0
13674.269288322452,-87.0
13674.269350819664,-52.0
13674.269413316877,-86.0
13674.26947581409,-88.0
13674.269538311302,-87.0
13674.269600808515,-101.0
13674.269663305728,-65.0
13674.26972580294,-70.0
13674.269788300153,-86.0
13674.269850797364,-46.0
13674.269913294576,-50.0
13674.269975791789,-49.0
13674.270038289002,-41.0
13674.270100786214,-50.0
13674.270163283427,-22.0
13674.27022578064,-41.0
13674.270288277852,-57.0
13674.270350775065,-54.0
13674.270413272277,-60.0
13674.27047576949,-73.0
13674.2705382667,-82.0
13674.270600763914,-37.0
13674.270663261126,-31.0
13674.270725758339,-47.0
13674.270788255551,-51.0
13674.270850752764,-28.0
13674.270913249977,-16.0
13674.27097574719,-35.0
13674.271038244402,-37.0
13674.271100741615,-39.0
13674.271163238827,-77.0
13674.271225736038,-76.0
13674.27128823325,-54.0
13674.271350730463,-57.0
13674.271413227676,-51.0
13674.271475724889,-55.0
13674.271538222101,-57.0
13674.271600719314,-53.0
13674.271663216527,-39.0
13674.27172571374,-46.0
13674.271788210952,-59.0
13674.271850708164,6.0
13674.271913205375,-16.0
13674.271975702588,-57.0
13674.2720381998,-18.0
13674.272100697013,-31.0
13674.272163194226,-52.0
13674.272225691439,-44.0
13674.272288188651,-55.0
13674.272350685864,-40.0
13674.272413183076,-37.0
13674.272475680289,-31.0
13674.272538177502,0.0
13674.272600674713,-3.0
13674.272663171925,-9.0
13674.272725669138,-20.0
13674.27278816635,-53.0
13674.272850663563,-27.0
13674.272913160776,6.0
13674.272975657988,-16.0
13674.273038155201,-31.0
13674.273100652414,-6.0
13674.273163149626,14.0
13674.273225646839,-5.0
13674.27328814405,24.0
13674.273350641262,23.0
13674.273413138475,15.0
13674.273475635688,36.0
13674.2735381329,31.0
13674.273600630113,14.0
13674.273663127326,7.0
13674.273725624538,-13.0
13674.27378812175,-63.0
13674.273850618963,-5.0
13674.273913116176,-9.0
13674.273975613387,-53.0
13674.2740381106,-26.0
13674.274100607812,-24.0
13674.274163105025,-52.0
13674.274225602237,-25.0
13674.27428809945,-18.0
13674.274350596663,-41.0
13674.274413093875,-27.0
13674.274475591088,-39.0
13674.2745380883,-40.0
13674.274600585513,-37.0
13674.274663082724,-28.0
13674.274725579937,-31.0
13674.27478807715,-71.0
13674.274850574362,-33.0
13674.274913071575,-16.0
13674.274975568787,-30.0
13674.275038066,-44.0
13674.275100563213,-44.0
13674.275163060425,-19.0
13674.275225557638,-25.0
13674.27528805485,-42.0
13674.275350552061,-33.0
13674.275413049274,-39.0
13674.275475546487,-37.0
13674.2755380437,-5.0
13674.275600540912,-15.0
13674.275663038125,1.0
13674.275725535337,17.0
13674.27578803255,-13.0
13674.275850529762,19.0
13674.275913026975,20.0
13674.275975524186,-19.0
13674.276038021399,-33.0
13674.276100518611,-22.0
13674.276163015824,-2.0
13674.276225513036,1.0
13674.27628801025,-7.0
13674.276350507462,-10.0
13674.276413004674,1.0
13674.276475501887,-4.0
13674.2765379991,-14.0
13674.276600496312,-11.0
13674.276662993525,16.0
13674.276725490736,19.0
13674.276787987948,-20.0
13674.276850485161,43.0
13674.276912982374,50.0
13674.276975479586,19.0
13674.277037976799,39.0
13674.277100474012,39.0
13674.277162971224,35.0
13674.277225468437,31.0
13674.27728796565,20.0
13674.27735046286,35.0
13674.277412960073,40.0
13674.277475457286,32.0
13674.277537954498,33.0
13674.27760045171,18.0
13674.277662948924,50.0
13674.277725446136,24.0
13674.277787943349,11.0
13674.277850440561,104.0
13674.277912937774,89.0
13674.277975434987,51.0
13674.2780379322,57.0
13674.27810042941,77.0
13674.278162926623,66.0
13674.278225423835,48.0
13674.278287921048,54.0
13674.27835041826,50.0
13674.278412915473,54.0
13674.278475412686,41.0
13674.278537909899,44.0
13674.278600407111,60.0
13674.278662904324,66.0
13674.278725401535,32.0
13674.278787898747,32.0
13674.27885039596,63.0
13674.278912893173,44.0
13674.278975390385,16.0
13674.279037887598,32.0
13674.27910038481,71.0
13674.279162882023,58.0
13674.279225379236,70.0
13674.279287876449,89.0
13674.279350373661,77.0
13674.279412870874,45.0
13674.279475368085,45.0
13674.279537865297,90.0
13674.27960036251,59.0
13674.279662859723,53.0
13674.279725356935,42.0
13674.279787854148,24.0
13674.27985035136,71.0
13674.279912848573,54.0
13674.279975345786,40.0
13674.280037842998,53.0
13674.28010034021,73.0
13674.280162837422,70.0
13674.280225334634,50.0
13674.280287831847,88.0
13674.28035032906,118.0
13674.280412826272,95.0
13674.280475323485,125.0
13674.280537820698,145.0
13674.28060031791,130.0
13674.280662815123,186.0
13674.280725312336,180.0
13674.280787809546,130.0
13674.280850306759,186.0
13674.280912803972,169.0
13674.280975301184,121.0
13674.281037798397,109.0
13674.28110029561,99.0
13674.281162792822,106.0
13674.281225290035,94.0
13674.281287787247,111.0
13674.28135028446,112.0
13674.281412781673,86.0
13674.281475278884,93.0
13674.281537776096,87.0
13674.281600273309,53.0
13674.281662770522,71.0
13674.281725267734,65.0
13674.281787764947,45.0
13674.28185026216,100.0
13674.281912759372,108.0
13674.281975256585,103.0
13674.282037753797,106.0
13674.28210025101,98.0
13674.28216274822,107.0
13674.282225245433,100.0
13674.282287742646,89.0
13674.282350239859,86.0
13674.282412737071,79.0
13674.282475234284,91.0
13674.282537731497,87.0
13674.28260022871,71.0
13674.282662725922,71.0
13674.282725223135,72.0
13674.282787720347,77.0
13674.282850217558,116.0
13674.28291271477,98.0
13674.282975211983,78.0
13674.283037709196,85.0
13674.283100206409,94.0
13674.283162703621,116.0
13674.283225200834,79.0
13674.283287698046,68.0
13674.28335019526,91.0
13674.283412692472,117.0
13674.283475189684,118.0
13674.283537686895,116.0
13674.283600184108,127.0
13674.28366268132,115.0
13674.283725178533,99.0
13674.283787675746,107.0
13674.283850172958,178.0
13674.283912670171,152.0
13674.283975167384,110.0
13674.284037664596,122.0
13674.284100161809,119.0
13674.284162659022,125.0
13674.284225156232,122.0
13674.284287653445,98.0
13674.284350150658,110.0
13674.28441264787,142.0
13674.284475145083,128.0
13674.284537642296,112.0
13674.284600139508,117.0
13674.28466263672,135.0
13674.284725133934,103.0
13674.284787631146,62.0
13674.284850128359,141.0
13674.28491262557,134.0
13674.284975122782,96.0
13674.285037619995,127.0
13674.285100117208,106.0
13674.28516261442,114.0
13674.285225111633,130.0
13674.285287608845,86.0
13674.285350106058,96.0
13674.28541260327,119.0
13674.285475100483,110.0
13674.285537597696,129.0
13674.285600094907,99.0
13674.28566259212,88.0
13674.285725089332,94.0
13674.285787586545,87.0
13674.285850083757,128.0
13674.28591258097,116.0
13674.285975078183,110.0
13674.286037575395,104.0
13674.286100072608,101.0
13674.28616256982,127.0
13674.286225067033,120.0
13674.286287564244,133.0
13674.286350061457,141.0
13674.28641255867,131.0
13674.286475055882,111.0
13674.286537553095,111.0
13674.286600050307,119.0
13674.28666254752,129.0
13674.286725044733,106.0
13674.286787541945,90.0
13674.286850039158,159.0
13674.286912536369,112.0
13674.286975033581,86.0
13674.287037530794,111.0
13674.287100028007,81.0
13674.28716252522,95.0
13674.287225022432,110.0
13674.287287519644,99.0
13674.287350016857,100.0
13674.28741251407,116.0
13674.287475011282,135.0
13674.287537508495,138.0
13674.287600005708,149.0
13674.287662502918,164.0
13674.287725000131,141.0
13674.287787497344,127.0
13674.287849994556,189.0
13674.287912491769,169.0
13674.287974988982,152.0
13674.288037486194,138.0
13674.288099983407,123.0
13674.28816248062,151.0
13674.288224977832,165.0
13674.288287475043,167.0
13674.288349972256,179.0
13674.288412469468,183.0
13674.288474966681,166.0
13674.288537463894,161.0
13674.288599961106,179.0
13674.288662458319,178.0
13674.288724955532,145.0
13674.288787452744,158.0
13674.288849949957,206.0
13674.28891244717,189.0
13674.288974944382,161.0
13674.289037441593,158.0
13674.289099938806,183.0
13674.289162436018,177.0
13674.28922493323,189.0
13674.289287430443,210.0
13674.289349927656,170.0
13674.289412424869,151.0
13674.289474922081,168.0
13674.289537419294,163.0
13674.289599916507,161.0
13674.289662413717,182.0
13674.28972491093,176.0
13674.289787408143,167.0
13674.289849905355,215.0
13674.289912402568,190.0
13674.28997489978,158.0
13674.290037396993,178.0
13674.290099894206,174.0
13674.290162391419,201.0
13674.290224888631,202.0
13674.290287385844,179.0
13674.290349883056,190.0
13674.290412380267,180.0
13674.29047487748,170.0
13674.290537374693,183.0
13674.290599871905,190.0
13674.290662369118,200.0
13674.29072486633,195.0
13674.290787363543,173.0
13674.290849860756,229.0
13674.290912357968,209.0
13674.290974855181,189.0
13674.291037352392,225.0
13674.291099849605,227.0
13674.291162346817,245.0
13674.29122484403,237.0
13674.291287341242,236.0
13674.291349838455,256.0
13674.291412335668,230.0
13674.29147483288,218.0
13674.291537330093,196.0
13674.291599827306,205.0
13674.291662324518,233.0
13674.291724821729,184.0
13674.291787318942,202.0
13674.291849816154,258.0
13674.291912313367,226.0
13674.29197481058,216.0
13674.292037307792,229.0
13674.292099805005,248.0
13674.292162302218,263.0
13674.29222479943,262.0
13674.292287296643,240.0
13674.292349793855,221.0
13674.292412291066,229.0
13674.292474788279,256.0
13674.292537285492,252.0
13674.292599782704,242.0
13674.292662279917,267.0
13674.29272477713,241.0
13674.292787274342,244.0
13674.292849771555,302.0
13674.292912268767,269.0
13674.29297476598,252.0
13674.293037263193,268.0
13674.293099760403,251.0
13674.293162257616,241.0
13674.293224754829,239.0
13674.293287252041,210.0
13674.293349749254,230.0
13674.293412246467,253.0
13674.29347474368,232.0
13674.293537240892,243.0
13674.293599738105,234.0
13674.293662235317,263.0
13674.29372473253,247.0
13674.29378722974,209.0
13674.293849726953,271.0
13674.293912224166,270.0
13674.293974721379,250.0
13674.294037218591,255.0
13674.294099715804,246.0
13674.294162213017,251.0
13674.29422471023,253.0
13674.294287207442,245.0
13674.294349704654,243.0
13674.294412201867,248.0
13674.294474699078,261.0
13674.29453719629,240.0
13674.294599693503,240.0
13674.294662190716,240.0
13674.294724687928,224.0
13674.294787185141,234.0
13674.294849682354,282.0
13674.294912179566,258.0
13674.294974676779,219.0
13674.295037173992,215.0
13674.295099671204,230.0
13674.295162168415,239.0
13674.295224665628,215.0
13674.29528716284,230.0
13674.295349660053,250.0
13674.295412157266,252.0
13674.295474654478,234.0
13674.295537151691,206.0
13674.295599648904,213.0
13674.295662146116,238.0
13674.295724643329,225.0
13674.295787140542,234.0
13674.295849637752,273.0
13674.295912134965,244.0
13674.295974632178,238.0
13674.29603712939,255.0
13674.296099626603,243.0
13674.296162123816,249.0
13674.296224621028,277.0
13674.29628711824,277.0
13674.296349615453,278.0
13674.296412112666,307.0
13674.296474609879,283.0
13674.29653710709,262.0
13674.296599604302,244.0
13674.296662101515,248.0
13674.296724598727,273.0
13674.29678709594,257.0
13674.296849593153,291.0
13674.296912090365,283.0
13674.296974587578,258.0
13674.29703708479,261.0
13674.297099582003,251.0
13674.297162079216,260.0
13674.297224576427,256.0
13674.29728707364,247.0
13674.297349570852,246.0
13674.297412068065,248.0
13674.297474565277,250.0
13674.29753706249,256.0
13674.297599559703,262.0
13674.297662056915,267.0
13674.297724554128,260.0
13674.29778705134,252.0
13674.297849548553,301.0
13674.297912045764,283.0
13674.297974542977,265.0
13674.29803704019,285.0
13674.298099537402,279.0
13674.298162034615,238.0
13674.298224531827,235.0
13674.29828702904,232.0
13674.298349526252,226.0
13674.298412023465,223.0
13674.298474520678,212.0
13674.29853701789,208.0
13674.298599515101,219.0
13674.298662012314,257.0
13674.298724509526,220.0
13674.298787006739,205.0
13674.298849503952,261.0
13674.298912001164,254.0
13674.298974498377,256.0
13674.29903699559,239.0
13674.299099492802,237.0
13674.299161990015,235.0
13674.299224487226,241.0
13674.299286984438,258.0
13674.299349481651,253.0
13674.299411978864,270.0
13674.299474476076,268.0
13674.299536973289,245.0
13674.299599470502,225.0
13674.299661967714,230.0
13674.299724464927,216.0
13674.29978696214,197.0
13674.299849459352,235.0
13674.299911956565,206.0
13674.299974453776,179.0
13674.300036950988,193.0
13674.3000994482,198.0
13674.300161945413,191.0
13674.300224442626,197.0
13674.300286939839,199.0
13674.300349437051,218.0
13674.300411934264,255.0
13674.300474431477,242.0
13674.30053692869,238.0
13674.3005994259,237.0
13674.300661923113,249.0
13674.300724420325,244.0
13674.300786917538,234.0
13674.30084941475,275.0
13674.300911911963,258.0
13674.300974409176,262.0
13674.301036906389,271.0
13674.301099403601,255.0
13674.301161900814,229.0
13674.301224398027,226.0
13674.30128689524,232.0
13674.30134939245,232.0
13674.301411889663,246.0
13674.301474386875,242.0
13674.301536884088,219.0
13674.3015993813,209.0
13674.301661878513,229.0
13674.301724375726,221.0
13674.301786872938,205.0
13674.301849370151,258.0
13674.301911867364,234.0
13674.301974364575,231.0
13674.302036861787,244.0
13674.302099359,235.0
13674.302161856212,245.0
13674.302224353425,229.0
13674.302286850638,225.0
13674.30234934785,243.0
13674.302411845063,243.0
13674.302474342276,230.0
13674.302536839488,226.0
13674.302599336701,218.0
13674.302661833912,245.0
13674.302724331124,209.0
13674.302786828337,167.0
13674.30284932555,219.0
13674.302911822762,193.0
13674.302974319975,180.0
13674.303036817188,216.0
13674.3030993144,214.0
13674.303161811613,216.0
13674.303224308826,208.0
13674.303286806038,183.0
13674.303349303249,186.0
13674.303411800462,188.0
13674.303474297674,196.0
13674.303536794887,196.0
13674.3035992921,191.0
13674.303661789312,230.0
13674.303724286525,196.0
13674.303786783737,171.0
13674.30384928095,225.0
13674.303911778163,188.0
13674.303974275375,145.0
13674.304036772586,148.0
13674.304099269799,155.0
13674.304161767011,157.0
13674.304224264224,153.0
13674.304286761437,152.0
13674.30434925865,165.0
13674.304411755862,198.0
13674.304474253075,209.0
13674.304536750287,202.0
13674.3045992475,199.0
13674.304661744713,205.0
13674.304724241923,187.0
13674.304786739136,177.0
13674.304849236349,262.0
13674.304911733561,243.0
13674.304974230774,200.0
13674.305036727987,232.0
13674.3050992252,226.0
13674.305161722412,207.0
13674.305224219625,190.0
13674.305286716837,199.0
13674.30534921405,203.0
13674.30541171126,205.0
13674.305474208473,220.0
13674.305536705686,222.0
13674.305599202899,213.0
13674.305661700111,211.0
13674.305724197324,179.0
13674.305786694536,161.0
13674.305849191749,199.0
13674.305911688962,209.0
13674.305974186174,176.0
13674.306036683387,157.0
13674.306099180598,175.0
13674.30616167781,176.0
13674.306224175023,179.0
13674.306286672236,177.0
13674.306349169448,169.0
13674.306411666661,182.0
13674.306474163874,165.0
13674.306536661086,165.0
13674.306599158299,182.0
13674.306661655512,184.0
13674.306724152724,159.0
13674.306786649935,147.0
13674.306849147148,202.0
13674.30691164436,160.0
13674.306974141573,142.0
13674.307036638786,148.0
13674.307099135998,133.0
13674.30716163321,159.0
13674.307224130423,153.0
13674.307286627636,124.0
13674.307349124849,129.0
13674.307411622061,134.0
13674.307474119272,137.0
13674.307536616485,142.0
13674.307599113698,149.0
13674.30766161091,127.0
13674.307724108123,88.0
13674.307786605335,101.0
13674.307849102548,158.0
13674.30791159976,118.0
13674.307974096973,83.0
13674.308036594186,103.0
13674.308099091399,98.0
13674.30816158861,112.0
13674.308224085822,100.0
13674.308286583035,114.0
13674.308349080247,127.0
13674.30841157746,108.0
13674.308474074673,111.0
13674.308536571885,120.0
13674.308599069098,122.0
13674.30866156631,127.0
13674.308724063523,102.0
13674.308786560736,84.0
13674.308849057947,153.0
13674.30891155516,111.0
13674.308974052372,75.0
13674.309036549585,95.0
13674.309099046797,85.0
13674.30916154401,97.0
13674.309224041222,101.0
13674.309286538435,80.0
13674.309349035648,88.0
13674.30941153286,111.0
13674.309474030073,101.0
13674.309536527284,98.0
13674.309599024496,97.0
13674.30966152171,101.0
13674.309724018922,81.0
13674.309786516134,67.0
13674.309849013347,107.0
13674.30991151056,104.0
13674.309974007772,114.0
13674.310036504985,100.0
13674.310099002198,89.0
13674.310161499408,116.0
13674.310223996621,89.0
13674.310286493834,107.0
13674.310348991046,110.0
13674.310411488259,72.0
13674.310473985472,81.0
13674.310536482684,88.0
13674.310598979897,86.0
13674.31066147711,79.0
13674.310723974322,62.0
13674.310786471535,30.0
13674.310848968747,61.0
13674.310911465958,68.0
13674.31097396317,43.0
13674.311036460384,46.0
13674.311098957596,61.0
13674.311161454809,35.0
13674.311223952021,16.0
13674.311286449234,42.0
13674.311348946447,29.0
13674.31141144366,33.0
13674.311473940872,29.0
13674.311536438083,24.0
13674.311598935295,28.0
13674.311661432508,22.0
13674.31172392972,36.0
13674.311786426933,24.0
13674.311848924146,46.0
13674.311911421359,35.0
13674.311973918571,18.0
13674.312036415784,30.0
13674.312098912997,26.0
13674.31216141021,22.0
13674.312223907422,10.0
13674.312286404633,14.0
13674.312348901845,25.0
13674.312411399058,22.0
13674.31247389627,1.0
13674.312536393483,9.0
13674.312598890696,10.0
13674.312661387909,-5.0
13674.312723885121,-4.0
13674.312786382334,-26.0
13674.312848879546,10.0
13674.312911376757,-5.0
13674.31297387397,-14.0
13674.313036371183,24.0
13674.313098868395,3.0
13674.313161365608,-25.0
13674.31322386282,-18.0
13674.313286360033,10.0
13674.313348857246,23.0
13674.313411354458,0.0
13674.313473851671,19.0
13674.313536348884,22.0
13674.313598846094,-6.0
13674.313661343307,4.0
13674.31372384052,1.0
13674.313786337732,10.0
13674.313848834945,54.0
13674.313911332158,31.0
13674.31397382937,-2.0
13674.314036326583,10.0
13674.314098823796,13.0
13674.314161321008,-15.0
13674.31422381822,-9.0
13674.314286315432,10.0
13674.314348812644,8.0
13674.314411309857,-7.0
13674.31447380707,-12.0
13674.314536304282,-2.0
13674.314598801495,-17.0
13674.314661298708,-19.0
13674.31472379592,-34.0
13674.314786293133,-64.0
13674.314848790345,-25.0
13674.314911287558,-20.0
13674.314973784769,-1.0
13674.315036281982,20.0
13674.315098779194,-16.0
13674.315161276407,-5.0
13674.31522377362,-25.0
13674.315286270832,-29.0
13674.315348768045,-9.0
13674.315411265257,-32.0
13674.31547376247,-40.0
13674.315536259683,-29.0
13674.315598756895,-36.0
13674.315661254106,-21.0
13674.315723751319,-31.0
13674.315786248531,-24.0
13674.315848745744,2.0
13674.315911242957,-26.0
13674.31597374017,-1.0
13674.316036237382,-7.0
13674.316098734595,-33.0
13674.316161231807,-19.0
13674.31622372902,-35.0
13674.316286226232,-44.0
13674.316348723443,-21.0
13674.316411220656,-27.0
13674.316473717869,-19.0
13674.316536215081,-4.0
13674.316598712294,-25.0
13674.316661209506,-16.0
13674.31672370672,-5.0
13674.316786203932,-26.0
13674.316848701144,16.0
13674.316911198357,-6.0
13674.31697369557,-36.0
13674.31703619278,-23.0
13674.317098689993,-47.0
13674.317161187206,-68.0
13674.317223684418,-66.0
13674.317286181631,-37.0
13674.317348678844,-72.0
13674.317411176056,-72.0
13674.317473673269,-54.0
13674.317536170482,-65.0
13674.317598667694,-65.0
13674.317661164907,-51.0
13674.317723662118,-69.0
13674.31778615933,-92.0
13674.317848656543,-32.0
13674.317911153756,-42.0
13674.317973650968,-69.0
13674.31803614818,-68.0
13674.318098645394,-71.0
13674.318161142606,-89.0
13674.318223639819,-112.0
13674.318286137031,-86.0
13674.318348634244,-102.0
13674.318411131455,-129.0
13674.318473628668,-120.0
13674.31853612588,-138.0
13674.318598623093,-145.0
13674.318661120305,-107.0
13674.318723617518,-118.0
13674.31878611473,-123.0
13674.318848611943,-71.0
13674.318911109156,-87.0
13674.318973606369,-105.0
13674.319036103581,-93.0
13674.319098600792,-108.0
13674.319161098005,-106.0
13674.319223595217,-97.0
13674.31928609243,-109.0
13674.319348589643,-116.0
13674.319411086855,-84.0
13674.319473584068,-50.0
13674.31953608128,-78.0
13674.319598578493,-78.0
13674.319661075706,-60.0
13674.319723572919,-99.0
13674.31978607013,-106.0
13674.319848567342,-46.0
13674.319911064555,-75.0
13674.319973561767,-121.0
13674.32003605898,-104.0
13674.320098556193,-78.0
13674.320161053405,-91.0
13674.320223550618,-122.0
13674.32028604783,-111.0
13674.320348545043,-129.0
13674.320411042256,-139.0
13674.320473539467,-115.0
13674.32053603668,-113.0
13674.320598533892,-88.0
13674.320661031104,-90.0
13674.320723528317,-115.0
13674.32078602553,-125.0
13674.320848522742,-96.0
13674.320911019955,-81.0
13674.320973517168,-105.0
13674.32103601438,-134.0
13674.321098511591,-135.0
13674.321161008804,-96.0
13674.321223506016,-101.0
13674.321286003229,-142.0
13674.321348500442,-136.0
13674.321410997654,-105.0
13674.321473494867,-105.0
13674.32153599208,-95.0
13674.321598489292,-78.0
13674.321660986505,-96.0
13674.321723483718,-117.0
13674.32178598093,-116.0
13674.321848478141,-94.0
13674.321910975354,-96.0
13674.321973472566,-115.0
13674.322035969779,-104.0
13674.322098466992,-84.0
13674.322160964204,-84.0
13674.322223461417,-78.0
13674.32228595863,-90.0
13674.322348455842,-116.0
13674.322410953055,-108.0
13674.322473450266,-95.0
13674.322535947478,-110.0
13674.32259844469,-120.0
13674.322660941903,-130.0
13674.322723439116,-166.0
13674.322785936329,-155.0
13674.322848433541,-102.0
13674.322910930754,-106.0
13674.322973427967,-119.0
13674.32303592518,-129.0
13674.323098422392,-147.0
13674.323160919605,-123.0
13674.323223416815,-116.0
13674.323285914028,-142.0
13674.32334841124,-114.0
13674.323410908453,-126.0
13674.323473405666,-122.0
13674.323535902879,-92.0
13674.323598400091,-135.0
13674.323660897304,-172.0
13674.323723394516,-178.0
13674.32378589173,-177.0
13674.32384838894,-146.0
13674.323910886153,-150.0
13674.323973383365,-165.0
13674.324035880578,-150.0
13674.32409837779,-175.0
13674.324160875003,-179.0
13674.324223372216,-175.0
13674.324285869428,-180.0
13674.324348366641,-139.0
13674.324410863854,-143.0
13674.324473361066,-169.0
13674.324535858277,-159.0
13674.32459835549,-145.0
13674.324660852702,-143.0
13674.324723349915,-165.0
13674.324785847128,-171.0
13674.32484834434,-155.0
13674.324910841553,-155.0
13674.324973338766,-185.0
13674.325035835978,-212.0
13674.32509833319,-181.0
13674.325160830404,-176.0
13674.325223327614,-195.0
13674.325285824827,-172.0
13674.32534832204,-149.0
13674.325410819252,-168.0
13674.325473316465,-185.0
13674.325535813678,-171.0
13674.32559831089,-168.0
13674.325660808103,-172.0
13674.325723305315,-192.0
13674.325785802528,-200.0
13674.32584829974,-137.0
13674.325910796952,-142.0
13674.325973294164,-168.0
13674.326035791377,-150.0
13674.32609828859,-167.0
13674.326160785802,-173.0
13674.326223283015,-169.0
13674.326285780227,-192.0
13674.32634827744,-187.0
13674.326410774653,-176.0
13674.326473271865,-186.0
13674.326535769078,-176.0
13674.326598266289,-173.0
13674.326660763501,-180.0
13674.326723260714,-195.0
13674.326785757927,-191.0
13674.32684825514,-177.0
13674.326910752352,-206.0
13674.326973249565,-203.0
13674.327035746777,-188.0
13674.32709824399,-206.0
