0,1,2,3,4
14936.310016900128,0.899272084236145,1.0725198984146118,1.177601933479309,1.4109199047088623
14936.312016960188,0.8984625339508057,1.0723578929901123,1.1769542694091797,1.4104341268539429
14936.31401702025,0.9008912444114685,1.0721960067749023,1.1769542694091797,1.4107580184936523
14936.31601708031,0.9015388488769531,1.0726817846298218,1.1772781610488892,1.4105961322784424
14936.31801714037,0.9008912444114685,1.0728436708450317,1.1774400472640991,1.4105961322784424
14936.32001720043,0.9010531306266785,1.0717103481292725,1.1766304969787598,1.4107580184936523
14936.32201726049,0.9013769626617432,1.071062684059143,1.1766304969787598,1.4112436771392822
14936.324017320552,0.9007292985916138,1.0723578929901123,1.1767923831939697,1.4107580184936523
14936.326017380612,0.9012150168418884,1.0720341205596924,1.177601933479309,1.4109199047088623
14936.328017440672,0.9020246267318726,1.071386456489563,1.1771161556243896,1.4115675687789917
14936.330017500733,0.9021865129470825,1.071548342704773,1.1769542694091797,1.4115675687789917
14936.332017560793,0.9025103449821472,1.071062684059143,1.1769542694091797,1.4120533466339111
14936.334017620855,0.9036437273025513,1.0709006786346436,1.1766304969787598,1.4118913412094116
14936.336017680915,0.903967559337616,1.0707387924194336,1.1764686107635498,1.4114056825637817
14936.338017740974,0.9041295051574707,1.0704150199890137,1.1766304969787598,1.4117294549942017
14936.340017801036,0.903967559337616,1.0697673559188843,1.1771161556243896,1.4114056825637817
14936.342017861096,0.9054247736930847,1.0699292421340942,1.1767923831939697,1.4115675687789917
14936.344017921156,0.9033198952674866,1.0700911283493042,1.1763066053390503,1.412377119064331
14936.346017981217,0.9033198952674866,1.0702530145645142,1.1766304969787598,1.412215232849121
14936.348018041277,0.903805673122406,1.0705769062042236,1.1763066053390503,1.412539005279541
14936.350018101337,0.9044533371925354,1.0704150199890137,1.1763066053390503,1.4112436771392822
14936.352018161399,0.9033198952674866,1.0692815780639648,1.1769542694091797,1.4112436771392822
14936.354018221458,0.9055867195129395,1.0686339139938354,1.1769542694091797,1.4115675687789917
14936.35601828152,0.9055867195129395,1.067986249923706,1.175497055053711,1.4115675687789917
14936.35801834158,0.9054247736930847,1.0675004720687866,1.175173282623291,1.4120533466339111
14936.36001840164,0.9070439338684082,1.0676624774932861,1.175658941268921,1.4130247831344604
14936.362018461701,0.9080154299736023,1.067824363708496,1.175173282623291,1.4135105609893799
14936.364018521761,0.9068820476531982,1.067824363708496,1.175335168838501,1.4130247831344604
14936.36601858182,0.9063962697982788,1.0676624774932861,1.1750112771987915,1.4141582250595093
14936.368018641882,0.9063962697982788,1.0665290355682373,1.1746875047683716,1.4128628969192505
14936.370018701942,0.9062343835830688,1.0668529272079468,1.1742017269134521,1.4110817909240723
14936.372018762002,0.9054247736930847,1.065557599067688,1.1746875047683716,1.4112436771392822
14936.374018822064,0.9080154299736023,1.0652337074279785,1.175173282623291,1.412539005279541
14936.376018882123,0.9102821946144104,1.0652337074279785,1.1740398406982422,1.4130247831344604
14936.378018942185,0.909472644329071,1.0662052631378174,1.1737160682678223,1.4133485555648804
14936.380019002245,0.9091488122940063,1.0653955936431885,1.1743637323379517,1.4135105609893799
14936.382019062305,0.9099583625793457,1.0652337074279785,1.1735540628433228,1.4136724472045898
14936.384019122366,0.9088249802589417,1.0647480487823486,1.1737160682678223,1.4127010107040405
14936.386019182426,0.9102821946144104,1.0645860433578491,1.1740398406982422,1.4127010107040405
14936.388019242486,0.9107679724693298,1.0632907152175903,1.1738779544830322,1.4135105609893799
14936.390019302547,0.9110918045043945,1.0636146068572998,1.1737160682678223,1.4138343334197998
14936.392019362607,0.9104441404342651,1.0639383792877197,1.1733921766281128,1.4139962196350098
14936.394019422667,0.9133585691452026,1.0634527206420898,1.1738779544830322,1.4141582250595093
14936.396019482729,0.9133585691452026,1.0631288290023804,1.1730684041976929,1.4151296615600586
14936.398019542788,0.914006233215332,1.0629669427871704,1.1740398406982422,1.4152915477752686
14936.40001960285,0.9156253933906555,1.0628050565719604,1.1742017269134521,1.4146438837051392
14936.40201966291,0.9170826077461243,1.0613478422164917,1.1748493909835815,1.4154534339904785
14936.40401972297,0.9157872796058655,1.062157392501831,1.1746875047683716,1.415615439414978
14936.406019783031,0.9165968298912048,1.062319278717041,1.175335168838501,1.4164249897003174
14936.408019843091,0.9169206619262695,1.061995506286621,1.1746875047683716,1.4169107675552368
14936.410019903153,0.9172444939613342,1.061995506286621,1.1745256185531616,1.4164249897003174
14936.412019963213,0.9165968298912048,1.062157392501831,1.1748493909835815,1.4164249897003174
14936.414020023272,0.9195113182067871,1.0631288290023804,1.1750112771987915,1.4170726537704468
14936.416020083334,0.9198351502418518,1.0631288290023804,1.175335168838501,1.4172345399856567
14936.418020143394,0.9198351502418518,1.0628050565719604,1.1758209466934204,1.4177203178405762
14936.420020203454,0.9201589822769165,1.062481164932251,1.175335168838501,1.418044090270996
14936.422020263515,0.92194002866745,1.062481164932251,1.1761447191238403,1.419015645980835
14936.424020323575,0.9208065867424011,1.0616716146469116,1.1763066053390503,1.4188536405563354
14936.426020383635,0.9212923645973206,1.0618335008621216,1.1766304969787598,1.4193394184112549
14936.428020443696,0.9212923645973206,1.0610239505767822,1.1769542694091797,1.4195013046264648
14936.430020503756,0.9216161966323853,1.0613478422164917,1.1767923831939697,1.4195013046264648
14936.432020563818,0.92194002866745,1.0618335008621216,1.175335168838501,1.4195013046264648
14936.434020623878,0.9235591292381287,1.0611858367919922,1.175497055053711,1.4198251962661743
14936.436020683937,0.9240449070930481,1.060052514076233,1.175173282623291,1.4195013046264648
14936.438020743999,0.9240449070930481,1.0595667362213135,1.175658941268921,1.4193394184112549
14936.440020804059,0.9245306253433228,1.059080958366394,1.1759828329086304,1.4207966327667236
14936.442020864119,0.9261497855186462,1.0602144002914429,1.1763066053390503,1.4206347465515137
14936.44402092418,0.9242067933082581,1.0602144002914429,1.175497055053711,1.4206347465515137
14936.44602098424,0.9238829612731934,1.0585952997207642,1.1761447191238403,1.4209585189819336
14936.4480210443,0.9251782894134521,1.0577857494354248,1.1758209466934204,1.4207966327667236
14936.450021104361,0.9259878396987915,1.0594048500061035,1.175173282623291,1.4204728603363037
14936.452021164421,0.9251782894134521,1.0592429637908936,1.1750112771987915,1.4206347465515137
14936.454021224483,0.9269593358039856,1.0581095218658447,1.175173282623291,1.4225777387619019
14936.456021284543,0.9272831678390503,1.0581095218658447,1.175497055053711,1.4227396249771118
14936.458021344602,0.9274450540542603,1.056976079940796,1.175173282623291,1.4222538471221924
14936.460021404664,0.9280927181243896,1.056490421295166,1.1733921766281128,1.4220919609069824
14936.462021464724,0.9289023280143738,1.0571380853652954,1.1729063987731934,1.4227396249771118
14936.464021524785,0.9279308319091797,1.0577857494354248,1.1727445125579834,1.422415852546692
14936.466021584845,0.9279308319091797,1.0581095218658447,1.1722588539123535,1.4232254028320312
14936.468021644905,0.9272831678390503,1.0572999715805054,1.1727445125579834,1.4222538471221924
14936.470021704965,0.9280927181243896,1.056328535079956,1.1729063987731934,1.4217681884765625
14936.472021765027,0.927606999874115,1.056328535079956,1.1733921766281128,1.4225777387619019
14936.474021825086,0.9297118782997131,1.0551950931549072,1.1722588539123535,1.4229015111923218
14936.476021885148,0.928740382194519,1.0545474290847778,1.171934962272644,1.4232254028320312
14936.478021945208,0.9284165501594543,1.0550332069396973,1.1711254119873047,1.4222538471221924
14936.480022005268,0.9282546639442444,1.0555188655853271,1.1716111898422241,1.4222538471221924
14936.48202206533,0.9292261004447937,1.0553569793701172,1.1712872982025146,1.4222538471221924
14936.484022125389,0.927606999874115,1.0550332069396973,1.1704777479171753,1.4220919609069824
14936.48602218545,0.9279308319091797,1.0540616512298584,1.1701538562774658,1.4225777387619019
14936.48802224551,0.927768886089325,1.0537378787994385,1.1699919700622559,1.4225777387619019
14936.49002230557,0.9280927181243896,1.0538997650146484,1.1691824197769165,1.4232254028320312
14936.492022365632,0.9280927181243896,1.0529283285140991,1.1688586473464966,1.4235491752624512
14936.494022425692,0.9297118782997131,1.0527663230895996,1.168534755706787,1.4232254028320312
14936.496022485751,0.928740382194519,1.053413987159729,1.168696641921997,1.4233872890472412
14936.498022545813,0.9284165501594543,1.053090214729309,1.1693443059921265,1.422415852546692
14936.500022605873,0.928740382194519,1.0522806644439697,1.169668197631836,1.4222538471221924
14936.502022665933,0.9300357103347778,1.0519567728042603,1.1688586473464966,1.4227396249771118
14936.504022725994,0.928740382194519,1.0521186590194702,1.1683728694915771,1.4227396249771118
14936.506022786054,0.928740382194519,1.0521186590194702,1.1678870916366577,1.4229015111923218
14936.508022846116,0.9292261004447937,1.0516330003738403,1.1674014329910278,1.4229015111923218
14936.510022906175,0.9297118782997131,1.0516330003738403,1.1672394275665283,1.4225777387619019
14936.512022966235,0.9284165501594543,1.050985336303711,1.1672394275665283,1.4233872890472412
14936.514023026297,0.9301975965499878,1.0503376722335815,1.1670775413513184,1.4235491752624512
14936.516023086357,0.9301975965499878,1.0501757860183716,1.1672394275665283,1.4232254028320312
14936.518023146416,0.9305214285850525,1.050013780593872,1.1682109832763672,1.4232254028320312
14936.520023206478,0.9308452606201172,1.0503376722335815,1.1674014329910278,1.4235491752624512
14936.522023266538,0.9316548109054565,1.050823450088501,1.1678870916366577,1.4246826171875
14936.524023326598,0.9305214285850525,1.0506614446640015,1.1667537689208984,1.4254921674728394
14936.52602338666,0.9303595423698425,1.0496900081634521,1.1659440994262695,1.4243587255477905
14936.528023446719,0.9306833744049072,1.0495281219482422,1.166591763496399,1.4241968393325806
14936.53002350678,0.9311690926551819,1.049851894378662,1.166591763496399,1.42500638961792
14936.53202356684,0.9301975965499878,1.0496900081634521,1.166267991065979,1.4246826171875
14936.5340236269,0.9324644207954407,1.0493662357330322,1.166429877281189,1.4246826171875
14936.536023686962,0.9324644207954407,1.0493662357330322,1.1667537689208984,1.42452073097229
14936.538023747022,0.9319786429405212,1.049851894378662,1.166591763496399,1.4251682758331299
14936.540023807083,0.9323024749755859,1.0493662357330322,1.166591763496399,1.4251682758331299
14936.542023867143,0.9337596893310547,1.0490423440933228,1.1669156551361084,1.42500638961792
14936.544023927203,0.9326263070106506,1.0488804578781128,1.1682109832763672,1.42484450340271
14936.546023987265,0.9329501390457153,1.0488804578781128,1.1683728694915771,1.4256540536880493
14936.548024047324,0.9337596893310547,1.0487185716629028,1.1682109832763672,1.4256540536880493
14936.550024107384,0.9331120848655701,1.0488804578781128,1.1677252054214478,1.4258159399032593
14936.552024167446,0.9327882528305054,1.0492042303085327,1.1675633192062378,1.4253302812576294
14936.554024227506,0.9348931312561035,1.0493662357330322,1.1675633192062378,1.4253302812576294
14936.556024287565,0.9352169632911682,1.0493662357330322,1.1683728694915771,1.4256540536880493
14936.558024347627,0.9350550174713135,1.0485565662384033,1.1680489778518677,1.4258159399032593
14936.560024407687,0.9358645677566528,1.0490423440933228,1.1683728694915771,1.4264636039733887
14936.562024467748,0.9371598958969116,1.0487185716629028,1.1682109832763672,1.4264636039733887
14936.564024527808,0.9355407953262329,1.0483946800231934,1.1693443059921265,1.4259779453277588
14936.566024587868,0.9350550174713135,1.0485565662384033,1.168696641921997,1.4266256093978882
14936.56802464793,0.9348931312561035,1.0485565662384033,1.1682109832763672,1.427273154258728
14936.57002470799,0.9355407953262329,1.0485565662384033,1.1680489778518677,1.4266256093978882
14936.57202476805,0.9355407953262329,1.047747015953064,1.1683728694915771,1.427111268043518
14936.57402482811,0.9373218417167664,1.0483946800231934,1.1674014329910278,1.4284065961837769
14936.57602488817,0.9373218417167664,1.0485565662384033,1.168534755706787,1.4284065961837769
14936.57802494823,0.9363503456115723,1.0482327938079834,1.168696641921997,1.4277589321136475
14936.580025008292,0.9374837279319763,1.047747015953064,1.1701538562774658,1.4284065961837769
14936.582025068352,0.9381313920021057,1.047747015953064,1.1706396341323853,1.4292161464691162
14936.584025128413,0.9368360638618469,1.047747015953064,1.1703158617019653,1.428244709968567
14936.586025188473,0.9371598958969116,1.047908902168274,1.168696641921997,1.4279208183288574
14936.588025248533,0.9363503456115723,1.0469374656677246,1.1680489778518677,1.428244709968567
14936.590025308595,0.937645673751831,1.0469374656677246,1.1678870916366577,1.4290542602539062
14936.592025368655,0.9373218417167664,1.0462898015975952,1.1680489778518677,1.4284065961837769
14936.594025428716,0.9386171102523804,1.0467755794525146,1.168696641921997,1.4284065961837769
14936.596025488776,0.9386171102523804,1.047261357307434,1.169830083847046,1.428244709968567
14936.598025548836,0.9386171102523804,1.0459660291671753,1.1691824197769165,1.4285684823989868
14936.600025608896,0.9387790560722351,1.0462898015975952,1.168534755706787,1.4293781518936157
14936.602025668957,0.9391028881072998,1.0458040237426758,1.1674014329910278,1.4287304878234863
14936.604025729017,0.937645673751831,1.0462898015975952,1.1682109832763672,1.4274351596832275
14936.606025789079,0.9373218417167664,1.0462898015975952,1.1683728694915771,1.4275970458984375
14936.608025849138,0.937807559967041,1.0456421375274658,1.1683728694915771,1.4284065961837769
14936.610025909198,0.9381313920021057,1.0446707010269165,1.1683728694915771,1.4285684823989868
14936.61202596926,0.937969446182251,1.044346809387207,1.1683728694915771,1.428244709968567
14936.61402602932,0.9402362704277039,1.0449944734573364,1.1677252054214478,1.428082823753357
14936.616026089381,0.9399124383926392,1.0449944734573364,1.1672394275665283,1.4284065961837769
14936.618026149441,0.9386171102523804,1.045318365097046,1.1678870916366577,1.4285684823989868
14936.6200262095,0.9387790560722351,1.0456421375274658,1.1683728694915771,1.4288923740386963
14936.622026269562,0.9407219886779785,1.0459660291671753,1.1680489778518677,1.4293781518936157
14936.624026329622,0.9386171102523804,1.0446707010269165,1.1674014329910278,1.4288923740386963
14936.626026389682,0.9387790560722351,1.044184923171997,1.1669156551361084,1.4285684823989868
14936.628026449744,0.9389409422874451,1.044346809387207,1.166591763496399,1.4292161464691162
14936.630026509803,0.9387790560722351,1.044346809387207,1.1672394275665283,1.4300256967544556
14936.632026569863,0.937807559967041,1.0448325872421265,1.1675633192062378,1.4300256967544556
14936.634026629925,0.9399124383926392,1.044346809387207,1.1674014329910278,1.430187702178955
14936.636026689985,0.9399124383926392,1.044346809387207,1.1672394275665283,1.4298638105392456
14936.638026750046,0.9400743842124939,1.0445088148117065,1.1672394275665283,1.4295400381088257
14936.640026810106,0.9407219886779785,1.0449944734573364,1.1670775413513184,1.4292161464691162
14936.642026870166,0.9410458207130432,1.045318365097046,1.1669156551361084,1.4298638105392456
14936.644026930227,0.9397505521774292,1.044346809387207,1.166106104850769,1.4300256967544556
14936.646026990287,0.9403981566429138,1.0435372591018677,1.166591763496399,1.4293781518936157
14936.648027050347,0.941207766532898,1.044023036956787,1.1670775413513184,1.4290542602539062
14936.650027110409,0.9408839344978333,1.0436991453170776,1.1659440994262695,1.4292161464691162
14936.652027170469,0.9395886063575745,1.0432134866714478,1.166429877281189,1.4293781518936157
14936.654027230528,0.9413696527481079,1.044023036956787,1.166591763496399,1.4295400381088257
14936.65602729059,0.941207766532898,1.0438611507415771,1.1667537689208984,1.4297019243240356
14936.65802735065,0.9410458207130432,1.0436991453170776,1.166591763496399,1.4300256967544556
14936.660027410711,0.9420173168182373,1.0438611507415771,1.1670775413513184,1.4309972524642944
14936.662027470771,0.9433126449584961,1.0438611507415771,1.1674014329910278,1.4309972524642944
14936.664027530831,0.941207766532898,1.0433753728866577,1.1672394275665283,1.430187702178955
14936.666027590893,0.9402362704277039,1.0432134866714478,1.166429877281189,1.4293781518936157
14936.668027650952,0.9400743842124939,1.0430516004562378,1.1659440994262695,1.430511474609375
14936.670027711014,0.9400743842124939,1.0422419309616089,1.1654584407806396,1.430673360824585
14936.672027771074,0.9394267201423645,1.0422419309616089,1.1656203269958496,1.430511474609375
14936.674027831134,0.9408839344978333,1.042080044746399,1.1657822132110596,1.4300256967544556
14936.676027891195,0.9415315985679626,1.0427277088165283,1.1657822132110596,1.430349588394165
14936.678027951255,0.9413696527481079,1.0425658226013184,1.166267991065979,1.4313210248947144
14936.680028011315,0.9418554306030273,1.0435372591018677,1.1657822132110596,1.4314830303192139
14936.682028071376,0.9429888129234314,1.0425658226013184,1.1656203269958496,1.4318068027496338
14936.684028131436,0.9410458207130432,1.0424039363861084,1.1652965545654297,1.4311591386795044
14936.686028191496,0.9402362704277039,1.0427277088165283,1.166106104850769,1.430673360824585
14936.688028251558,0.9416934847831726,1.0424039363861084,1.166429877281189,1.4309972524642944
14936.690028311617,0.941207766532898,1.0424039363861084,1.1659440994262695,1.4311591386795044
14936.692028371679,0.9405601024627686,1.0414323806762695,1.1652965545654297,1.430673360824585
14936.694028431739,0.942341148853302,1.0412704944610596,1.1656203269958496,1.4313210248947144
14936.696028491799,0.942503035068512,1.0406228303909302,1.1657822132110596,1.4308353662490845
14936.69802855186,0.942341148853302,1.0407847166061401,1.1652965545654297,1.4309972524642944
14936.70002861192,0.9428268671035767,1.0407847166061401,1.1644868850708008,1.4321305751800537
14936.70202867198,0.9441221952438354,1.0425658226013184,1.1649726629257202,1.4318068027496338
14936.704028732041,0.942341148853302,1.0427277088165283,1.1652965545654297,1.4316449165344238
14936.706028792101,0.942341148853302,1.0424039363861084,1.1651345491409302,1.4322925806045532
14936.708028852161,0.9426649808883667,1.0428895950317383,1.1646488904953003,1.4324544668197632
14936.710028912223,0.942179262638092,1.0424039363861084,1.1654584407806396,1.4324544668197632
14936.712028972282,0.942179262638092,1.041918158531189,1.1649726629257202,1.4331021308898926
14936.714029032344,0.9439603090286255,1.0424039363861084,1.1648107767105103,1.433587908744812
14936.716029092404,0.9437983632087708,1.0428895950317383,1.1641631126403809,1.4334259033203125
14936.718029152464,0.9441221952438354,1.0422419309616089,1.1649726629257202,1.434073567390442
14936.720029212525,0.9442841410636902,1.041756272315979,1.1652965545654297,1.4343974590301514
14936.722029272585,0.9455794095993042,1.0414323806762695,1.1657822132110596,1.4343974590301514
14936.724029332645,0.9439603090286255,1.0407847166061401,1.166106104850769,1.4347212314605713
14936.726029392707,0.943474531173706,1.0406228303909302,1.1646488904953003,1.4342354536056519
14936.728029452766,0.9429888129234314,1.0404609441757202,1.1646488904953003,1.4347212314605713
14936.730029512826,0.9436364769935608,1.0406228303909302,1.1643249988555908,1.4347212314605713
14936.732029572888,0.942179262638092,1.0406228303909302,1.1635154485702515,1.4345593452453613
14936.734029632948,0.9444460272789001,1.0412704944610596,1.164001226425171,1.4350451231002808
14936.73602969301,0.9447698593139648,1.04094660282135,1.1644868850708008,1.4350451231002808
14936.738029753069,0.9447698593139648,1.0406228303909302,1.1631916761398315,1.4350451231002808
14936.740029813129,0.9449317455291748,1.0396513938903809,1.163029670715332,1.43601655960083
14936.74202987319,0.9454175233840942,1.0402990579605103,1.1638392210006714,1.4358546733856201
14936.74402993325,0.9439603090286255,1.0399751663208008,1.1638392210006714,1.4352070093154907
14936.746029993312,0.9437983632087708,1.0398132801055908,1.1631916761398315,1.4353688955307007
14936.748030053372,0.9441221952438354,1.0399751663208008,1.162705898284912,1.43601655960083
14936.750030113431,0.9441221952438354,1.0401370525360107,1.1622201204299927,1.4356927871704102
14936.752030173493,0.9436364769935608,1.0399751663208008,1.1615724563598633,1.4358546733856201
14936.754030233553,0.9446079134941101,1.0391656160354614,1.1618963479995728,1.43601655960083
14936.756030293613,0.9441221952438354,1.038841724395752,1.1620582342147827,1.43617844581604
14936.758030353674,0.9441221952438354,1.0398132801055908,1.1620582342147827,1.4356927871704102
14936.760030413734,0.9446079134941101,1.0399751663208008,1.1620582342147827,1.4363404512405396
14936.762030473794,0.9452555775642395,1.0396513938903809,1.1625440120697021,1.43617844581604
14936.764030533855,0.9439603090286255,1.0393275022506714,1.1620582342147827,1.4358546733856201
14936.766030593915,0.9439603090286255,1.0394893884658813,1.1609247922897339,1.4356927871704102
14936.768030653977,0.9446079134941101,1.0391656160354614,1.160601019859314,1.4352070093154907
14936.770030714037,0.9442841410636902,1.038356065750122,1.160601019859314,1.4352070093154907
14936.772030774096,0.9437983632087708,1.0372226238250732,1.1615724563598633,1.4356927871704102
14936.774030834158,0.9447698593139648,1.0372226238250732,1.1612486839294434,1.4365023374557495
14936.776030894218,0.9455794095993042,1.038194179534912,1.1610867977142334,1.4366642236709595
14936.778030954278,0.9455794095993042,1.0380321741104126,1.160762906074524,1.4377976655960083
14936.78003101434,0.9467127919197083,1.0378702878952026,1.160762906074524,1.4377976655960083
14936.7820310744,0.9471985697746277,1.0372226238250732,1.1612486839294434,1.4377976655960083
14936.784031134459,0.9449317455291748,1.0380321741104126,1.160762906074524,1.4368261098861694
14936.78603119452,0.9441221952438354,1.038194179534912,1.160601019859314,1.4366642236709595
14936.78803125458,0.9446079134941101,1.038517951965332,1.1615724563598633,1.4366642236709595
14936.790031314642,0.9444460272789001,1.038841724395752,1.1617343425750732,1.43617844581604
14936.792031374702,0.9442841410636902,1.0375465154647827,1.1609247922897339,1.4368261098861694
14936.794031434762,0.9459032416343689,1.0370607376098633,1.1612486839294434,1.4376356601715088
14936.796031494823,0.9459032416343689,1.0367368459701538,1.1609247922897339,1.4369879961013794
14936.798031554883,0.9462270736694336,1.0367368459701538,1.1599533557891846,1.4376356601715088
14936.800031614945,0.946874737739563,1.0368988513946533,1.1599533557891846,1.4379595518112183
14936.802031675004,0.9471985697746277,1.0377084016799927,1.160439133644104,1.4379595518112183
14936.804031735064,0.9452555775642395,1.0373845100402832,1.1597914695739746,1.4366642236709595
14936.806031795124,0.9449317455291748,1.0373845100402832,1.1597914695739746,1.4377976655960083
14936.808031855186,0.9449317455291748,1.0365749597549438,1.160601019859314,1.4384453296661377
14936.810031915245,0.9454175233840942,1.0368988513946533,1.1602771282196045,1.4386072158813477
14936.812031975307,0.9450936913490295,1.0365749597549438,1.159629464149475,1.4386072158813477
14936.814032035367,0.9462270736694336,1.036089301109314,1.1597914695739746,1.439254879951477
14936.816032095427,0.946874737739563,1.0357654094696045,1.1593056917190552,1.4386072158813477
14936.818032155488,0.9462270736694336,1.036251187324524,1.1591438055038452,1.4387691020965576
14936.820032215548,0.9471985697746277,1.0367368459701538,1.1593056917190552,1.4390928745269775
14936.82203227561,0.9483319520950317,1.0365749597549438,1.1589818000793457,1.4387691020965576
14936.82403233567,0.946874737739563,1.0364130735397339,1.1581722497940063,1.4377976655960083
14936.82603239573,0.9475224018096924,1.036089301109314,1.1584961414337158,1.4382833242416382
14936.82803245579,0.9473604559898376,1.0347939729690552,1.1584961414337158,1.4387691020965576
14936.83003251585,0.9471985697746277,1.0344700813293457,1.1593056917190552,1.4379595518112183
14936.83203257591,0.9455794095993042,1.0354416370391846,1.1591438055038452,1.4389309883117676
14936.834032635972,0.9473604559898376,1.036089301109314,1.1580103635787964,1.439416766166687
14936.836032696032,0.948008120059967,1.035279631614685,1.1576865911483765,1.4390928745269775
14936.838032756092,0.9475224018096924,1.035279631614685,1.157524585723877,1.439254879951477
14936.840032816153,0.9478462338447571,1.035117745399475,1.1578484773635864,1.4403882026672363
14936.842032876213,0.9481700658798218,1.0359272956848145,1.1580103635787964,1.4405502080917358
14936.844032936275,0.947036623954773,1.0349558591842651,1.1578484773635864,1.439578652381897
14936.846032996335,0.9471985697746277,1.0344700813293457,1.1581722497940063,1.439416766166687
14936.848033056394,0.9471985697746277,1.0334986448287964,1.1583342552185059,1.4390928745269775
14936.850033116456,0.9471985697746277,1.033174753189087,1.1580103635787964,1.4386072158813477
14936.852033176516,0.9463890194892883,1.0344700813293457,1.1568769216537476,1.4384453296661377
14936.854033236576,0.9481700658798218,1.0343081951141357,1.1567150354385376,1.439578652381897
14936.856033296637,0.9478462338447571,1.0344700813293457,1.157200813293457,1.4390928745269775
14936.858033356697,0.9481700658798218,1.0347939729690552,1.1576865911483765,1.439416766166687
14936.860033416757,0.9486557841300964,1.0338224172592163,1.157524585723877,1.439416766166687
14936.862033476818,0.9491415023803711,1.0339844226837158,1.157200813293457,1.4403882026672363
14936.864033536878,0.9475224018096924,1.0334986448287964,1.1568769216537476,1.4407120943069458
14936.86603359694,0.9476842880249023,1.0336605310440063,1.1568769216537476,1.4405502080917358
14936.868033657,0.9478462338447571,1.0334986448287964,1.1563912630081177,1.4402263164520264
14936.87003371706,0.9475224018096924,1.0333367586135864,1.1568769216537476,1.4400644302368164
14936.872033777121,0.9476842880249023,1.0333367586135864,1.1567150354385376,1.4403882026672363
14936.87403383718,0.9493034482002258,1.0334986448287964,1.1565531492233276,1.439416766166687
14936.876033897242,0.9497891664505005,1.0336605310440063,1.1559054851531982,1.4400644302368164
14936.878033957302,0.9497891664505005,1.0336605310440063,1.1555817127227783,1.4402263164520264
14936.880034017362,0.9488176703453064,1.033174753189087,1.1559054851531982,1.4407120943069458
14936.882034077424,0.9497891664505005,1.033012866973877,1.1554197072982788,1.4402263164520264
14936.884034137483,0.9488176703453064,1.033012866973877,1.1554197072982788,1.4403882026672363
14936.886034197543,0.9489796161651611,1.0336605310440063,1.1552578210830688,1.4407120943069458
14936.888034257605,0.9496272802352905,1.033174753189087,1.1552578210830688,1.4403882026672363
14936.890034317665,0.9491415023803711,1.0334986448287964,1.1557435989379883,1.4410358667373657
14936.892034377724,0.9483319520950317,1.0334986448287964,1.1557435989379883,1.4410358667373657
14936.894034437786,0.9501129984855652,1.033012866973877,1.1555817127227783,1.4413597583770752
14936.896034497846,0.9494653344154358,1.0333367586135864,1.1559054851531982,1.4411978721618652
14936.898034557908,0.9494653344154358,1.0334986448287964,1.1557435989379883,1.4415216445922852
14936.900034617967,0.9501129984855652,1.0333367586135864,1.1546101570129395,1.4416835308074951
14936.902034678027,0.9512463808059692,1.0338224172592163,1.154934048652649,1.4423311948776245
14936.904034738089,0.9494653344154358,1.0336605310440063,1.1542863845825195,1.4423311948776245
14936.906034798149,0.9494653344154358,1.0333367586135864,1.1542863845825195,1.4433027505874634
14936.908034858208,0.9488176703453064,1.033174753189087,1.1547720432281494,1.4441123008728027
14936.91003491827,0.9494653344154358,1.033174753189087,1.1552578210830688,1.4436265230178833
14936.91203497833,0.9488176703453064,1.032850980758667,1.1546101570129395,1.442816972732544
14936.91403503839,0.9493034482002258,1.0325270891189575,1.1529910564422607,1.4436265230178833
14936.916035098451,0.9494653344154358,1.032689094543457,1.1525052785873413,1.442655086517334
14936.918035158511,0.9494653344154358,1.032850980758667,1.1523433923721313,1.4423311948776245
14936.920035218573,0.9501129984855652,1.032689094543457,1.1520196199417114,1.4433027505874634
14936.922035278632,0.9499511122703552,1.0323652029037476,1.1525052785873413,1.4431407451629639
14936.924035338692,0.9486557841300964,1.032689094543457,1.1525052785873413,1.442816972732544
14936.926035398754,0.9484938979148865,1.032850980758667,1.151695728302002,1.4431407451629639
14936.928035458814,0.9486557841300964,1.0323652029037476,1.1508861780166626,1.442978858947754
14936.930035518875,0.9489796161651611,1.0315556526184082,1.151371955871582,1.4424930810928345
14936.932035578935,0.9483319520950317,1.0318795442581177,1.151695728302002,1.442655086517334
14936.934035638995,0.9494653344154358,1.0323652029037476,1.151371955871582,1.442978858947754
14936.936035699055,0.9484938979148865,1.032689094543457,1.1505622863769531,1.4437884092330933
14936.938035759116,0.9483319520950317,1.0320414304733276,1.1505622863769531,1.4436265230178833
14936.940035819176,0.9486557841300964,1.0325270891189575,1.1500766277313232,1.442978858947754
14936.942035879238,0.9496272802352905,1.033174753189087,1.1508861780166626,1.4431407451629639
14936.944035939297,0.9494653344154358,1.033174753189087,1.151371955871582,1.442978858947754
14936.946035999357,0.9491415023803711,1.0323652029037476,1.1510480642318726,1.4433027505874634
14936.948036059419,0.9488176703453064,1.032850980758667,1.1500766277313232,1.4431407451629639
14936.950036119479,0.9489796161651611,1.0338224172592163,1.1508861780166626,1.4439502954483032
14936.95203617954,0.9484938979148865,1.032689094543457,1.151371955871582,1.4442741870880127
14936.9540362396,0.9504368305206299,1.0325270891189575,1.151371955871582,1.445245623588562
14936.95603629966,0.9512463808059692,1.032689094543457,1.151695728302002,1.4455695152282715
14936.958036359722,0.9501129984855652,1.0323652029037476,1.1523433923721313,1.4462171792984009
14936.960036419781,0.951408326625824,1.0323652029037476,1.151695728302002,1.4454076290130615
14936.962036479841,0.9517321586608887,1.033012866973877,1.1510480642318726,1.445245623588562
14936.964036539903,0.9493034482002258,1.0325270891189575,1.1505622863769531,1.4462171792984009
14936.966036599963,0.9499511122703552,1.0325270891189575,1.1507242918014526,1.4470267295837402
14936.968036660022,0.9496272802352905,1.0323652029037476,1.1504004001617432,1.4470267295837402
14936.970036720084,0.9497891664505005,1.033012866973877,1.1507242918014526,1.4457314014434814
14936.972036780144,0.9491415023803711,1.0334986448287964,1.1508861780166626,1.4455695152282715
14936.974036840205,0.9502749443054199,1.0339844226837158,1.1507242918014526,1.4463790655136108
14936.976036900265,0.9509226083755493,1.0341463088989258,1.151857614517212,1.4470267295837402
14936.978036960325,0.9512463808059692,1.0346319675445557,1.151695728302002,1.4471886157989502
14936.980037020387,0.9517321586608887,1.0354416370391846,1.1520196199417114,1.4476743936538696
14936.982037080446,0.9522178769111633,1.0349558591842651,1.151695728302002,1.4492934942245483
14936.984037140506,0.9507606625556946,1.0346319675445557,1.1523433923721313,1.4471886157989502
14936.986037200568,0.9515702128410339,1.0347939729690552,1.1520196199417114,1.448160171508789
14936.988037260628,0.9517321586608887,1.0341463088989258,1.1528291702270508,1.4489697217941284
14936.990037320687,0.951408326625824,1.0343081951141357,1.1526671648025513,1.448322057723999
14936.992037380749,0.9510844945907593,1.0339844226837158,1.151371955871582,1.448322057723999
14936.994037440809,0.9527036547660828,1.0347939729690552,1.1504004001617432,1.4491316080093384
14936.99603750087,0.9522178769111633,1.0354416370391846,1.1502385139465332,1.448807716369629
14936.99803756093,0.9517321586608887,1.0354416370391846,1.1512099504470825,1.4496173858642578
14937.00003762099,0.9527036547660828,1.0354416370391846,1.151857614517212,1.4497792720794678
14937.002037681052,0.9533512592315674,1.0347939729690552,1.1523433923721313,1.4492934942245483
14937.004037741111,0.9509226083755493,1.0354416370391846,1.151533842086792,1.4496173858642578
14937.006037801173,0.9509226083755493,1.035117745399475,1.1512099504470825,1.4502650499343872
14937.008037861233,0.9507606625556946,1.0354416370391846,1.1507242918014526,1.4496173858642578
14937.010037921293,0.9501129984855652,1.0357654094696045,1.1505622863769531,1.4497792720794678
14937.012037981354,0.9494653344154358,1.0357654094696045,1.1512099504470825,1.4494553804397583
14937.014038041414,0.9515702128410339,1.0349558591842651,1.1508861780166626,1.4497792720794678
14937.016038101474,0.9522178769111633,1.0347939729690552,1.1508861780166626,1.4494553804397583
14937.018038161536,0.9517321586608887,1.0339844226837158,1.1507242918014526,1.4489697217941284
14937.020038221595,0.9518940448760986,1.0339844226837158,1.1495908498764038,1.4499411582946777
14937.022038281655,0.9517321586608887,1.035117745399475,1.1487812995910645,1.4496173858642578
14937.024038341717,0.9501129984855652,1.0346319675445557,1.1492670774459839,1.448645830154419
14937.026038401777,0.9499511122703552,1.0338224172592163,1.1486194133758545,1.448645830154419
14937.028038461838,0.9505987763404846,1.0338224172592163,1.148133635520935,1.4479981660842896
14937.030038521898,0.9504368305206299,1.0339844226837158,1.1478097438812256,1.448483943939209
14937.032038581958,0.9499511122703552,1.0341463088989258,1.1476478576660156,1.448807716369629
14937.03403864202,0.9510844945907593,1.0339844226837158,1.148457407951355,1.4491316080093384
14937.03603870208,0.9509226083755493,1.0339844226837158,1.1486194133758545,1.4489697217941284
14937.038038762139,0.9507606625556946,1.0336605310440063,1.148457407951355,1.4491316080093384
14937.0400388222,0.9510844945907593,1.0346319675445557,1.147971749305725,1.4499411582946777
14937.04203888226,0.9515702128410339,1.0338224172592163,1.148133635520935,1.4501030445098877
14937.04403894232,0.9493034482002258,1.0333367586135864,1.1478097438812256,1.4501030445098877
14937.046039002382,0.9486557841300964,1.0336605310440063,1.147971749305725,1.4497792720794678
14937.048039062442,0.9484938979148865,1.0338224172592163,1.147971749305725,1.4492934942245483
14937.050039122503,0.9488176703453064,1.0333367586135864,1.147971749305725,1.448483943939209
14937.052039182563,0.9486557841300964,1.032689094543457,1.147971749305725,1.4475125074386597
14937.054039242623,0.9504368305206299,1.0318795442581177,1.1471621990203857,1.448483943939209
14937.056039302684,0.9493034482002258,1.0325270891189575,1.1470001935958862,1.448322057723999
14937.058039362744,0.9488176703453064,1.0333367586135864,1.1465145349502563,1.448645830154419
14937.060039422804,0.9494653344154358,1.033174753189087,1.1466764211654663,1.4492934942245483
14937.062039482866,0.9497891664505005,1.0338224172592163,1.1473240852355957,1.4496173858642578
14937.064039542925,0.9471985697746277,1.0336605310440063,1.1478097438812256,1.448322057723999
14937.066039602985,0.9481700658798218,1.033012866973877,1.148133635520935,1.448483943939209
14937.068039663047,0.9483319520950317,1.032689094543457,1.1468383073806763,1.448807716369629
14937.070039723107,0.9481700658798218,1.0323652029037476,1.1466764211654663,1.4476743936538696
14937.072039783168,0.9483319520950317,1.0320414304733276,1.1466764211654663,1.4492934942245483
14937.074039843228,0.9496272802352905,1.032689094543457,1.1461906433105469,1.4496173858642578
14937.076039903288,0.9491415023803711,1.0320414304733276,1.1463525295257568,1.448807716369629
14937.07803996335,0.9496272802352905,1.032850980758667,1.1461906433105469,1.448645830154419
14937.08004002341,0.9501129984855652,1.033012866973877,1.1453810930252075,1.448645830154419
14937.082040083471,0.9509226083755493,1.0323652029037476,1.1455429792404175,1.4478362798690796
14937.08404014353,0.948008120059967,1.032689094543457,1.1455429792404175,1.4468648433685303
14937.08604020359,0.948008120059967,1.0323652029037476,1.144895315170288,1.4471886157989502
14937.088040263652,0.9489796161651611,1.0322033166885376,1.1445715427398682,1.4471886157989502
14937.090040323712,0.9481700658798218,1.0317175388336182,1.1445715427398682,1.4468648433685303
14937.092040383772,0.9471985697746277,1.0315556526184082,1.1452192068099976,1.4467028379440308
14937.094040443833,0.9484938979148865,1.0313937664031982,1.1453810930252075,1.4473505020141602
14937.096040503893,0.9496272802352905,1.0317175388336182,1.1457048654556274,1.4465409517288208
14937.098040563953,0.9499511122703552,1.0315556526184082,1.145866870880127,1.4463790655136108
14937.100040624015,0.9488176703453064,1.0313937664031982,1.1457048654556274,1.448160171508789
14937.102040684074,0.9489796161651611,1.0310698747634888,1.1450573205947876,1.448322057723999
14937.104040744136,0.948008120059967,1.0307461023330688,1.1445715427398682,1.4479981660842896
14937.106040804196,0.9475224018096924,1.0317175388336182,1.1447334289550781,1.4479981660842896
14937.108040864256,0.948008120059967,1.0322033166885376,1.1452192068099976,1.4479981660842896
14937.110040924317,0.9476842880249023,1.0312318801879883,1.146028757095337,1.4470267295837402
14937.112040984377,0.9475224018096924,1.0302603244781494,1.1452192068099976,1.4471886157989502
14937.114041044437,0.9491415023803711,1.0309079885482788,1.1445715427398682,1.4479981660842896
14937.116041104498,0.9491415023803711,1.0310698747634888,1.1453810930252075,1.4475125074386597
14937.118041164558,0.9497891664505005,1.0312318801879883,1.1461906433105469,1.4473505020141602
14937.120041224618,0.9494653344154358,1.0309079885482788,1.144895315170288,1.4473505020141602
14937.12204128468,0.9496272802352905,1.0312318801879883,1.1440857648849487,1.4462171792984009
14937.12404134474,0.9481700658798218,1.0310698747634888,1.1437619924545288,1.4454076290130615
14937.126041404801,0.9467127919197083,1.0310698747634888,1.1437619924545288,1.4463790655136108
14937.12804146486,0.9473604559898376,1.0305842161178589,1.1445715427398682,1.4457314014434814
14937.13004152492,0.9473604559898376,1.0309079885482788,1.1447334289550781,1.4455695152282715
14937.132041584982,0.9463890194892883,1.0304222106933594,1.1450573205947876,1.4457314014434814
14937.134041645042,0.9473604559898376,1.0307461023330688,1.1452192068099976,1.4467028379440308
14937.136041705104,0.9475224018096924,1.0312318801879883,1.1445715427398682,1.4468648433685303
14937.138041765164,0.9481700658798218,1.0312318801879883,1.1442476511001587,1.4465409517288208
14937.140041825223,0.9486557841300964,1.0309079885482788,1.1439238786697388,1.4462171792984009
14937.142041885285,0.9488176703453064,1.0305842161178589,1.1439238786697388,1.4463790655136108
14937.144041945345,0.946874737739563,1.0304222106933594,1.1435999870300293,1.4463790655136108
14937.146042005405,0.9471985697746277,1.0304222106933594,1.1435999870300293,1.4462171792984009
14937.148042065466,0.9473604559898376,1.0297746658325195,1.1444096565246582,1.4462171792984009
14937.150042125526,0.9473604559898376,1.0297746658325195,1.1440857648849487,1.4470267295837402
14937.152042185586,0.946874737739563,1.0299365520477295,1.1437619924545288,1.4467028379440308
14937.154042245647,0.9481700658798218,1.0304222106933594,1.1447334289550781,1.4467028379440308
14937.156042305707,0.9483319520950317,1.0305842161178589,1.1452192068099976,1.4462171792984009
14937.158042365769,0.948008120059967,1.0302603244781494,1.1445715427398682,1.4465409517288208
14937.160042425829,0.9486557841300964,1.0305842161178589,1.1450573205947876,1.4465409517288208
14937.162042485888,0.9496272802352905,1.0307461023330688,1.146028757095337,1.4463790655136108
14937.16404254595,0.9478462338447571,1.0305842161178589,1.1461906433105469,1.4467028379440308
14937.16604260601,0.9478462338447571,1.0300984382629395,1.1457048654556274,1.4471886157989502
14937.16804266607,0.9476842880249023,1.0307461023330688,1.146028757095337,1.4467028379440308
14937.170042726131,0.948008120059967,1.0313937664031982,1.1468383073806763,1.4462171792984009
14937.172042786191,0.9484938979148865,1.0318795442581177,1.1466764211654663,1.4470267295837402
14937.17404284625,0.9505987763404846,1.0310698747634888,1.1463525295257568,1.4479981660842896
14937.176042906312,0.9505987763404846,1.0304222106933594,1.1465145349502563,1.4478362798690796
14937.178042966372,0.9496272802352905,1.0302603244781494,1.1471621990203857,1.4476743936538696
14937.180043026434,0.9504368305206299,1.0307461023330688,1.1478097438812256,1.4478362798690796
14937.182043086494,0.9504368305206299,1.0312318801879883,1.147971749305725,1.4476743936538696
14937.184043146553,0.9491415023803711,1.0309079885482788,1.1478097438812256,1.4473505020141602
14937.186043206615,0.9488176703453064,1.0317175388336182,1.148133635520935,1.4475125074386597
14937.188043266675,0.9496272802352905,1.0312318801879883,1.147971749305725,1.4473505020141602
14937.190043326735,0.9491415023803711,1.0304222106933594,1.1478097438812256,1.4478362798690796
14937.192043386796,0.9496272802352905,1.0305842161178589,1.148295521736145,1.4473505020141602
14937.194043446856,0.9512463808059692,1.0307461023330688,1.148457407951355,1.4476743936538696
14937.196043506916,0.9505987763404846,1.0312318801879883,1.148295521736145,1.4476743936538696
14937.198043566978,0.9505987763404846,1.0312318801879883,1.148133635520935,1.448322057723999
14937.200043627037,0.9507606625556946,1.0315556526184082,1.147971749305725,1.4491316080093384
14937.202043687099,0.9518940448760986,1.0322033166885376,1.148295521736145,1.448807716369629
14937.204043747159,0.9499511122703552,1.0325270891189575,1.1476478576660156,1.4476743936538696
14937.206043807219,0.9504368305206299,1.032850980758667,1.148133635520935,1.4476743936538696
14937.20804386728,0.9496272802352905,1.0315556526184082,1.1478097438812256,1.448483943939209
14937.21004392734,0.9493034482002258,1.0313937664031982,1.148457407951355,1.448160171508789
14937.212043987402,0.9489796161651611,1.0315556526184082,1.1492670774459839,1.4478362798690796
14937.214044047461,0.9504368305206299,1.0309079885482788,1.148295521736145,1.4479981660842896
14937.216044107521,0.9502749443054199,1.0317175388336182,1.148295521736145,1.448160171508789
14937.218044167583,0.9497891664505005,1.0317175388336182,1.1473240852355957,1.4479981660842896
14937.220044227643,0.9504368305206299,1.0317175388336182,1.1474859714508057,1.4494553804397583
14937.222044287702,0.9512463808059692,1.0318795442581177,1.147971749305725,1.4496173858642578
14937.224044347764,0.9497891664505005,1.0313937664031982,1.1478097438812256,1.448807716369629
14937.226044407824,0.9491415023803711,1.0325270891189575,1.1465145349502563,1.448807716369629
14937.228044467884,0.9499511122703552,1.032689094543457,1.1463525295257568,1.448322057723999
14937.230044527945,0.9496272802352905,1.032850980758667,1.145866870880127,1.4470267295837402
14937.232044588005,0.9491415023803711,1.0322033166885376,1.1465145349502563,1.4476743936538696
14937.234044648067,0.9497891664505005,1.0323652029037476,1.1470001935958862,1.4492934942245483
14937.236044708126,0.9488176703453064,1.0323652029037476,1.1461906433105469,1.448645830154419
14937.238044768186,0.9491415023803711,1.0313937664031982,1.1465145349502563,1.4476743936538696
14937.240044828248,0.9494653344154358,1.0317175388336182,1.1470001935958862,1.448807716369629
14937.242044888308,0.9501129984855652,1.0325270891189575,1.1471621990203857,1.448645830154419
14937.244044948367,0.9486557841300964,1.033174753189087,1.146028757095337,1.448645830154419
14937.246045008429,0.948008120059967,1.032689094543457,1.1450573205947876,1.448322057723999
14937.248045068489,0.9486557841300964,1.033174753189087,1.1457048654556274,1.4476743936538696
14937.250045128549,0.9476842880249023,1.032850980758667,1.146028757095337,1.4478362798690796
14937.25204518861,0.9471985697746277,1.032850980758667,1.1457048654556274,1.448645830154419
14937.25404524867,0.9486557841300964,1.032850980758667,1.1455429792404175,1.448483943939209
14937.256045308732,0.9493034482002258,1.0323652029037476,1.145866870880127,1.4489697217941284
14937.258045368791,0.9493034482002258,1.0325270891189575,1.1455429792404175,1.448322057723999
14937.260045428851,0.9494653344154358,1.032689094543457,1.1453810930252075,1.4491316080093384
14937.262045488913,0.9497891664505005,1.032850980758667,1.1450573205947876,1.448807716369629
14937.264045548973,0.9483319520950317,1.032689094543457,1.1444096565246582,1.4491316080093384
14937.266045609034,0.9481700658798218,1.0320414304733276,1.1452192068099976,1.4501030445098877
14937.268045669094,0.9488176703453064,1.032850980758667,1.146028757095337,1.4492934942245483
14937.270045729154,0.9484938979148865,1.0325270891189575,1.1453810930252075,1.448322057723999
14937.272045789214,0.9478462338447571,1.0325270891189575,1.1455429792404175,1.448160171508789
14937.274045849275,0.9483319520950317,1.032689094543457,1.1457048654556274,1.4491316080093384
14937.276045909335,0.9483319520950317,1.0333367586135864,1.1455429792404175,1.4504269361495972
14937.278045969397,0.9491415023803711,1.0323652029037476,1.145866870880127,1.4502650499343872
14937.280046029457,0.9497891664505005,1.0323652029037476,1.1455429792404175,1.4497792720794678
14937.282046089516,0.9491415023803711,1.0323652029037476,1.1455429792404175,1.4491316080093384
14937.284046149578,0.9478462338447571,1.0323652029037476,1.1453810930252075,1.4494553804397583
14937.286046209638,0.9475224018096924,1.0323652029037476,1.146028757095337,1.4494553804397583
14937.2880462697,0.9475224018096924,1.032850980758667,1.1453810930252075,1.4489697217941284
14937.29004632976,0.9476842880249023,1.032689094543457,1.1447334289550781,1.448645830154419
14937.292046389819,0.9471985697746277,1.0334986448287964,1.1445715427398682,1.4496173858642578
14937.29404644988,0.9478462338447571,1.0336605310440063,1.1444096565246582,1.4505888223648071
14937.29604650994,0.9473604559898376,1.033174753189087,1.1440857648849487,1.4501030445098877
14937.29804657,0.9471985697746277,1.032850980758667,1.1434381008148193,1.4501030445098877
14937.300046630062,0.9476842880249023,1.032850980758667,1.1434381008148193,1.4504269361495972
14937.302046690122,0.9478462338447571,1.0323652029037476,1.1434381008148193,1.4505888223648071
14937.304046750181,0.9457413554191589,1.032850980758667,1.1434381008148193,1.4496173858642578
14937.306046810243,0.9459032416343689,1.032689094543457,1.1434381008148193,1.4496173858642578
14937.308046870303,0.947036623954773,1.0322033166885376,1.1437619924545288,1.4501030445098877
14937.310046930364,0.9467127919197083,1.032850980758667,1.1434381008148193,1.4496173858642578
14937.312046990424,0.947036623954773,1.0333367586135864,1.1432762145996094,1.4499411582946777
14937.314047050484,0.947036623954773,1.033174753189087,1.1431143283843994,1.4502650499343872
14937.316047110546,0.9467127919197083,1.0333367586135864,1.1429524421691895,1.4501030445098877
14937.318047170605,0.9462270736694336,1.033012866973877,1.14279043674469,1.4502650499343872
14937.320047230665,0.947036623954773,1.032689094543457,1.14262855052948,1.4501030445098877
14937.322047290727,0.9476842880249023,1.033174753189087,1.1432762145996094,1.4499411582946777
14937.324047350787,0.9467127919197083,1.032850980758667,1.1434381008148193,1.4494553804397583
14937.326047410847,0.9465509057044983,1.033012866973877,1.1440857648849487,1.4504269361495972
14937.328047470908,0.9463890194892883,1.032850980758667,1.1432762145996094,1.4510746002197266
14937.330047530968,0.9452555775642395,1.0334986448287964,1.1429524421691895,1.4505888223648071
14937.33204759103,0.9450936913490295,1.0338224172592163,1.14262855052948,1.4504269361495972
14937.33404765109,0.9465509057044983,1.0339844226837158,1.1429524421691895,1.4504269361495972
14937.33604771115,0.9467127919197083,1.0339844226837158,1.1434381008148193,1.4502650499343872
14937.33804777121,0.9462270736694336,1.0341463088989258,1.1435999870300293,1.450912594795227
14937.34004783127,0.9465509057044983,1.0344700813293457,1.14279043674469,1.450750708580017
14937.342047891332,0.946874737739563,1.0346319675445557,1.1429524421691895,1.4510746002197266
14937.344047951392,0.9447698593139648,1.0343081951141357,1.14246666431427,1.451884150505066
14937.346048011452,0.9452555775642395,1.0347939729690552,1.14230477809906,1.451722264289856
14937.348048071513,0.9455794095993042,1.0347939729690552,1.1421427726745605,1.4515602588653564
14937.350048131573,0.9446079134941101,1.0347939729690552,1.1418190002441406,1.4520460367202759
14937.352048191633,0.9437983632087708,1.035117745399475,1.1416571140289307,1.4515602588653564
14937.354048251695,0.9450936913490295,1.035117745399475,1.1416571140289307,1.451722264289856
14937.356048311754,0.9460651874542236,1.0347939729690552,1.1419808864593506,1.4513983726501465
14937.358048371814,0.9450936913490295,1.035279631614685,1.1419808864593506,1.4520460367202759
14937.360048431876,0.9455794095993042,1.0349558591842651,1.1416571140289307,1.4522079229354858
14937.362048491936,0.9462270736694336,1.0349558591842651,1.1413332223892212,1.4520460367202759
14937.364048551997,0.9447698593139648,1.0349558591842651,1.1413332223892212,1.451884150505066
14937.366048612057,0.9442841410636902,1.035279631614685,1.1403617858886719,1.4515602588653564
14937.368048672117,0.943474531173706,1.0356035232543945,1.1408475637435913,1.451884150505066
14937.370048732178,0.9433126449584961,1.0356035232543945,1.1403617858886719,1.4513983726501465
14937.372048792238,0.9429888129234314,1.0354416370391846,1.1403617858886719,1.4515602588653564
14937.374048852298,0.9444460272789001,1.0357654094696045,1.1406855583190918,1.4520460367202759
14937.37604891236,0.9437983632087708,1.0357654094696045,1.1400378942489624,1.4528555870056152
14937.37804897242,0.9433126449584961,1.0365749597549438,1.1403617858886719,1.4536651372909546
14937.38004903248,0.9442841410636902,1.0359272956848145,1.140199899673462,1.454312801361084
14937.382049092541,0.9446079134941101,1.0349558591842651,1.1406855583190918,1.4531794786453247
14937.3840491526,0.9437983632087708,1.035117745399475,1.1406855583190918,1.4528555870056152
14937.386049212662,0.9431506991386414,1.0356035232543945,1.1408475637435913,1.4522079229354858
14937.388049272722,0.9426649808883667,1.036089301109314,1.1403617858886719,1.4510746002197266
14937.390049332782,0.942503035068512,1.036251187324524,1.1408475637435913,1.451722264289856
14937.392049392844,0.942341148853302,1.0359272956848145,1.1410094499588013,1.4525318145751953
14937.394049452903,0.9437983632087708,1.0354416370391846,1.1403617858886719,1.4528555870056152
14937.396049512963,0.9436364769935608,1.0364130735397339,1.1400378942489624,1.4531794786453247
14937.398049573025,0.9431506991386414,1.0368988513946533,1.1398760080337524,1.4528555870056152
14937.400049633085,0.9442841410636902,1.0359272956848145,1.139390230178833,1.4535032510757446
14937.402049693144,0.9441221952438354,1.036089301109314,1.139228343963623,1.4533413648605347
14937.404049753206,0.9431506991386414,1.0359272956848145,1.139228343963623,1.4535032510757446
14937.406049813266,0.942179262638092,1.0359272956848145,1.139066457748413,1.4535032510757446
14937.408049873327,0.9415315985679626,1.036251187324524,1.1382569074630737,1.4536651372909546
14937.410049933387,0.9415315985679626,1.036251187324524,1.1389045715332031,1.4535032510757446
14937.412049993447,0.941207766532898,1.036251187324524,1.139228343963623,1.453827142715454
14937.414050053509,0.942341148853302,1.035117745399475,1.139228343963623,1.4531794786453247
14937.416050113568,0.942341148853302,1.035279631614685,1.139066457748413,1.4535032510757446
14937.41805017363,0.9418554306030273,1.0365749597549438,1.139228343963623,1.4536651372909546
14937.42005023369,0.9429888129234314,1.0370607376098633,1.139390230178833,1.454312801361084
14937.42205029375,0.9426649808883667,1.0375465154647827,1.1387425661087036,1.453827142715454
14937.424050353811,0.9407219886779785,1.0372226238250732,1.1384187936782837,1.4533413648605347
14937.426050413871,0.9403981566429138,1.0373845100402832,1.1384187936782837,1.453989028930664
14937.42805047393,0.9402362704277039,1.0367368459701538,1.1380950212478638,1.454312801361084
14937.430050533992,0.9400743842124939,1.0370607376098633,1.1376092433929443,1.4536651372909546
14937.432050594052,0.9407219886779785,1.0365749597549438,1.1372853517532349,1.454312801361084
14937.434050654112,0.9418554306030273,1.0359272956848145,1.136961579322815,1.454312801361084
14937.436050714174,0.942179262638092,1.0367368459701538,1.1376092433929443,1.454312801361084
14937.438050774233,0.9413696527481079,1.0368988513946533,1.137123465538025,1.4536651372909546
14937.440050834295,0.941207766532898,1.0373845100402832,1.1374473571777344,1.454150915145874
14937.442050894355,0.9413696527481079,1.0365749597549438,1.1379330158233643,1.453827142715454
14937.444050954415,0.9387790560722351,1.035279631614685,1.1372853517532349,1.4528555870056152
14937.446051014476,0.9387790560722351,1.0354416370391846,1.1359901428222656,1.4526937007904053
14937.448051074536,0.9387790560722351,1.0365749597549438,1.1359901428222656,1.4533413648605347
14937.450051134596,0.9391028881072998,1.036089301109314,1.1361520290374756,1.4530174732208252
14937.452051194658,0.9386171102523804,1.036251187324524,1.1364758014678955,1.454312801361084
14937.454051254717,0.9391028881072998,1.036089301109314,1.1366376876831055,1.455122470855713
14937.456051314777,0.9387790560722351,1.036089301109314,1.1364758014678955,1.453827142715454
14937.458051374839,0.9392647743225098,1.0365749597549438,1.1366376876831055,1.4528555870056152
14937.460051434899,0.9395886063575745,1.0365749597549438,1.1361520290374756,1.454150915145874
14937.46205149496,0.9395886063575745,1.036251187324524,1.1355043649673462,1.4536651372909546
14937.46405155502,0.9384552240371704,1.036089301109314,1.1353424787521362,1.4531794786453247
14937.46605161508,0.9392647743225098,1.0364130735397339,1.1359901428222656,1.4531794786453247
14937.468051675141,0.9397505521774292,1.036251187324524,1.1359901428222656,1.4535032510757446
14937.470051735201,0.9392647743225098,1.036251187324524,1.1361520290374756,1.4531794786453247
14937.472051795263,0.9387790560722351,1.036089301109314,1.1361520290374756,1.4528555870056152
14937.474051855323,0.9399124383926392,1.0359272956848145,1.1366376876831055,1.4526937007904053
14937.476051915382,0.9395886063575745,1.036089301109314,1.1364758014678955,1.4535032510757446
14937.478051975444,0.9382932782173157,1.036089301109314,1.136799693107605,1.454150915145874
14937.480052035504,0.9386171102523804,1.036251187324524,1.1363139152526855,1.4544748067855835
14937.482052095564,0.9394267201423645,1.0367368459701538,1.1361520290374756,1.4546366930007935
14937.484052155625,0.9382932782173157,1.0368988513946533,1.1353424787521362,1.4533413648605347
14937.486052215685,0.9384552240371704,1.036251187324524,1.1351804733276367,1.4523699283599854
14937.488052275745,0.9386171102523804,1.0365749597549438,1.1355043649673462,1.4528555870056152
14937.490052335806,0.9382932782173157,1.0365749597549438,1.1361520290374756,1.4528555870056152
14937.492052395866,0.9381313920021057,1.0365749597549438,1.1353424787521362,1.4533413648605347
14937.494052455928,0.9394267201423645,1.036251187324524,1.1363139152526855,1.4530174732208252
14937.496052515988,0.9392647743225098,1.036089301109314,1.1355043649673462,1.4526937007904053
14937.498052576047,0.9392647743225098,1.0364130735397339,1.1356662511825562,1.4533413648605347
14937.50005263611,0.9395886063575745,1.0368988513946533,1.1364758014678955,1.453827142715454
14937.502052696169,0.9402362704277039,1.0372226238250732,1.1363139152526855,1.4533413648605347
14937.504052756229,0.9384552240371704,1.0368988513946533,1.1353424787521362,1.453989028930664
14937.50605281629,0.937807559967041,1.0368988513946533,1.1350185871124268,1.4546366930007935
14937.50805287635,0.9386171102523804,1.0372226238250732,1.1353424787521362,1.454312801361084
14937.51005293641,0.9384552240371704,1.0372226238250732,1.1363139152526855,1.453827142715454
14937.512052996472,0.9387790560722351,1.0377084016799927,1.1366376876831055,1.454150915145874
14937.514053056531,0.9391028881072998,1.0380321741104126,1.1372853517532349,1.454150915145874
14937.516053116593,0.9392647743225098,1.0373845100402832,1.1372853517532349,1.4546366930007935
14937.518053176653,0.9389409422874451,1.0372226238250732,1.136961579322815,1.454312801361084
14937.520053236713,0.9399124383926392,1.0377084016799927,1.1366376876831055,1.4552843570709229
14937.522053296774,0.9400743842124939,1.0378702878952026,1.136961579322815,1.4544748067855835
14937.524053356834,0.9387790560722351,1.0373845100402832,1.136961579322815,1.453827142715454
14937.526053416894,0.9389409422874451,1.0377084016799927,1.1363139152526855,1.453989028930664
14937.528053476955,0.9395886063575745,1.0370607376098633,1.136799693107605,1.4544748067855835
14937.530053537015,0.9392647743225098,1.0370607376098633,1.1379330158233643,1.454150915145874
14937.532053597075,0.9395886063575745,1.0375465154647827,1.1376092433929443,1.4536651372909546
14937.534053657137,0.9400743842124939,1.038194179534912,1.1376092433929443,1.454312801361084
14937.536053717196,0.9400743842124939,1.038841724395752,1.1372853517532349,1.4544748067855835
14937.538053777258,0.9400743842124939,1.0390037298202515,1.137123465538025,1.453827142715454
14937.540053837318,0.9413696527481079,1.0391656160354614,1.136961579322815,1.4554462432861328
14937.542053897378,0.9415315985679626,1.0390037298202515,1.1376092433929443,1.4557700157165527
14937.54405395744,0.9389409422874451,1.0390037298202515,1.1387425661087036,1.4547985792160034
14937.546054017499,0.9395886063575745,1.0394893884658813,1.1377711296081543,1.454312801361084
14937.54805407756,0.9405601024627686,1.0393275022506714,1.1376092433929443,1.4544748067855835
14937.55005413762,0.9397505521774292,1.038194179534912,1.1377711296081543,1.454312801361084
14937.55205419768,0.9392647743225098,1.038194179534912,1.1374473571777344,1.4549604654312134
14937.554054257742,0.9403981566429138,1.038841724395752,1.136961579322815,1.4549604654312134
14937.556054317802,0.9392647743225098,1.0390037298202515,1.136799693107605,1.454150915145874
14937.558054377861,0.9382932782173157,1.038194179534912,1.1372853517532349,1.454150915145874
14937.560054437923,0.9389409422874451,1.0372226238250732,1.1372853517532349,1.4554462432861328
14937.562054497983,0.9391028881072998,1.0373845100402832,1.1377711296081543,1.4557700157165527
14937.564054558043,0.9381313920021057,1.0378702878952026,1.1374473571777344,1.4546366930007935
14937.566054618104,0.9384552240371704,1.038679838180542,1.1366376876831055,1.4533413648605347
14937.568054678164,0.9387790560722351,1.038517951965332,1.1364758014678955,1.454150915145874
14937.570054738226,0.937645673751831,1.0378702878952026,1.137123465538025,1.453989028930664
14937.572054798286,0.9386171102523804,1.038194179534912,1.137123465538025,1.454312801361084
14937.574054858345,0.9391028881072998,1.0377084016799927,1.1364758014678955,1.454150915145874
14937.576054918407,0.9386171102523804,1.0373845100402832,1.1361520290374756,1.4530174732208252
14937.578054978467,0.9381313920021057,1.0372226238250732,1.1355043649673462,1.4531794786453247
14937.580055038527,0.9387790560722351,1.0375465154647827,1.1355043649673462,1.4533413648605347
14937.582055098588,0.9381313920021057,1.0380321741104126,1.1361520290374756,1.4530174732208252
14937.584055158648,0.9371598958969116,1.0378702878952026,1.1358281373977661,1.4526937007904053
14937.586055218708,0.937969446182251,1.0373845100402832,1.1353424787521362,1.4523699283599854
14937.58805527877,0.9373218417167664,1.0370607376098633,1.1355043649673462,1.4531794786453247
14937.59005533883,0.9353788495063782,1.0372226238250732,1.1346948146820068,1.4525318145751953
14937.59205539889,0.9360265135765076,1.0373845100402832,1.1342090368270874,1.4525318145751953
14937.59405545895,0.937645673751831,1.0373845100402832,1.1342090368270874,1.4526937007904053
14937.59605551901,0.9369980096817017,1.0373845100402832,1.1345328092575073,1.4522079229354858
14937.598055579072,0.9368360638618469,1.0372226238250732,1.1348567008972168,1.4520460367202759
14937.600055639132,0.9374837279319763,1.038194179534912,1.1345328092575073,1.4530174732208252
14937.602055699193,0.9369980096817017,1.0380321741104126,1.1348567008972168,1.4525318145751953
14937.604055759253,0.9355407953262329,1.0375465154647827,1.1346948146820068,1.4525318145751953
14937.606055819313,0.9360265135765076,1.0372226238250732,1.1355043649673462,1.4531794786453247
14937.608055879373,0.9357026815414429,1.0370607376098633,1.1348567008972168,1.4528555870056152
14937.610055939434,0.9347311854362488,1.0373845100402832,1.1343709230422974,1.451884150505066
14937.612055999494,0.9350550174713135,1.0373845100402832,1.1342090368270874,1.451884150505066
14937.614056059556,0.9368360638618469,1.0377084016799927,1.1343709230422974,1.4525318145751953
14937.616056119616,0.936674177646637,1.0375465154647827,1.1340471506118774,1.451884150505066
14937.618056179675,0.936674177646637,1.0377084016799927,1.1345328092575073,1.4515602588653564
14937.620056239737,0.9384552240371704,1.038194179534912,1.1358281373977661,1.4522079229354858
14937.622056299797,0.9384552240371704,1.038517951965332,1.1363139152526855,1.450912594795227
14937.624056359859,0.9365122318267822,1.038194179534912,1.1358281373977661,1.450750708580017
14937.626056419918,0.9365122318267822,1.038194179534912,1.1351804733276367,1.450912594795227
14937.628056479978,0.9360265135765076,1.038841724395752,1.1348567008972168,1.451722264289856
14937.63005654004,0.9357026815414429,1.0391656160354614,1.1353424787521362,1.451722264289856
14937.6320566001,0.9363503456115723,1.038841724395752,1.1356662511825562,1.451722264289856
14937.63405666016,0.937807559967041,1.0393275022506714,1.1361520290374756,1.451884150505066
14937.636056720221,0.9363503456115723,1.0391656160354614,1.1356662511825562,1.4513983726501465
14937.63805678028,0.9357026815414429,1.038356065750122,1.1361520290374756,1.450912594795227
14937.64005684034,0.936674177646637,1.0380321741104126,1.1363139152526855,1.451722264289856
14937.642056900402,0.9371598958969116,1.038679838180542,1.1364758014678955,1.4510746002197266
14937.644056960462,0.9360265135765076,1.0393275022506714,1.1356662511825562,1.450750708580017
14937.646057020524,0.9365122318267822,1.0396513938903809,1.1359901428222656,1.450750708580017
14937.648057080583,0.9363503456115723,1.0391656160354614,1.136961579322815,1.4510746002197266
14937.650057140643,0.9355407953262329,1.0391656160354614,1.1377711296081543,1.451884150505066
14937.652057200705,0.9353788495063782,1.0393275022506714,1.1379330158233643,1.4520460367202759
14937.654057260765,0.9371598958969116,1.0391656160354614,1.137123465538025,1.4513983726501465
14937.656057320824,0.9368360638618469,1.038679838180542,1.137123465538025,1.451722264289856
14937.658057380886,0.937969446182251,1.0390037298202515,1.1379330158233643,1.4526937007904053
14937.660057440946,0.9384552240371704,1.0396513938903809,1.1380950212478638,1.4523699283599854
14937.662057501006,0.9382932782173157,1.0401370525360107,1.1385806798934937,1.4513983726501465
14937.664057561067,0.9371598958969116,1.0401370525360107,1.139228343963623,1.4512364864349365
14937.666057621127,0.9371598958969116,1.0402990579605103,1.1397141218185425,1.451884150505066
14937.668057681189,0.9371598958969116,1.0406228303909302,1.1385806798934937,1.451722264289856
14937.670057741248,0.9371598958969116,1.0396513938903809,1.1389045715332031,1.4504269361495972
14937.672057801308,0.9371598958969116,1.0390037298202515,1.139066457748413,1.450750708580017
14937.67405786137,0.9389409422874451,1.0394893884658813,1.139390230178833,1.4510746002197266
14937.67605792143,0.9384552240371704,1.0391656160354614,1.1395522356033325,1.4510746002197266
14937.678057981491,0.9381313920021057,1.0393275022506714,1.1397141218185425,1.450912594795227
14937.680058041551,0.9389409422874451,1.0401370525360107,1.1398760080337524,1.451884150505066
14937.68205810161,0.9389409422874451,1.0401370525360107,1.140199899673462,1.451884150505066
14937.684058161673,0.937807559967041,1.0401370525360107,1.139228343963623,1.4510746002197266
14937.686058221732,0.937645673751831,1.0399751663208008,1.1397141218185425,1.4512364864349365
14937.688058281792,0.9373218417167664,1.0402990579605103,1.1400378942489624,1.450912594795227
14937.690058341854,0.9358645677566528,1.0396513938903809,1.140199899673462,1.450750708580017
14937.692058401914,0.9358645677566528,1.0394893884658813,1.140199899673462,1.450912594795227
14937.694058461973,0.937645673751831,1.0399751663208008,1.1398760080337524,1.450750708580017
14937.696058522035,0.9384552240371704,1.0402990579605103,1.139228343963623,1.4504269361495972
14937.698058582095,0.9382932782173157,1.0401370525360107,1.1397141218185425,1.4504269361495972
14937.700058642156,0.9389409422874451,1.0398132801055908,1.1400378942489624,1.4502650499343872
14937.702058702216,0.9374837279319763,1.0396513938903809,1.139066457748413,1.4499411582946777
14937.704058762276,0.9360265135765076,1.038841724395752,1.1387425661087036,1.448807716369629
14937.706058822338,0.9363503456115723,1.0399751663208008,1.1382569074630737,1.4492934942245483
14937.708058882397,0.936674177646637,1.0394893884658813,1.139228343963623,1.4497792720794678
14937.710058942457,0.9353788495063782,1.0393275022506714,1.140199899673462,1.448483943939209
14937.712059002519,0.9357026815414429,1.0398132801055908,1.1397141218185425,1.448807716369629
14937.714059062579,0.9371598958969116,1.0401370525360107,1.139390230178833,1.4491316080093384
14937.716059122638,0.936674177646637,1.0399751663208008,1.1397141218185425,1.4492934942245483
14937.7180591827,0.9355407953262329,1.0394893884658813,1.139228343963623,1.448645830154419
14937.72005924276,0.9365122318267822,1.0394893884658813,1.1385806798934937,1.4489697217941284
14937.722059302821,0.9360265135765076,1.0396513938903809,1.139066457748413,1.4479981660842896
14937.724059362881,0.9345692992210388,1.0391656160354614,1.1395522356033325,1.4471886157989502
14937.726059422941,0.9352169632911682,1.038679838180542,1.139228343963623,1.448160171508789
14937.728059483003,0.9355407953262329,1.0390037298202515,1.139066457748413,1.448483943939209
14937.730059543062,0.9348931312561035,1.0390037298202515,1.1384187936782837,1.4475125074386597
14937.732059603122,0.9345692992210388,1.038679838180542,1.139066457748413,1.4478362798690796
14937.734059663184,0.9355407953262329,1.0394893884658813,1.1403617858886719,1.448160171508789
14937.736059723244,0.9350550174713135,1.0391656160354614,1.1410094499588013,1.4478362798690796
14937.738059783303,0.9360265135765076,1.038841724395752,1.1408475637435913,1.4475125074386597
14937.740059843365,0.9369980096817017,1.0398132801055908,1.1413332223892212,1.448160171508789
14937.742059903425,0.9368360638618469,1.0399751663208008,1.1410094499588013,1.4473505020141602
14937.744059963487,0.9352169632911682,1.0391656160354614,1.140199899673462,1.4470267295837402
14937.746060023546,0.9353788495063782,1.0394893884658813,1.1397141218185425,1.4471886157989502
14937.748060083606,0.9360265135765076,1.0393275022506714,1.140199899673462,1.4471886157989502
14937.750060143668,0.9357026815414429,1.0394893884658813,1.1410094499588013,1.4467028379440308
14937.752060203728,0.9358645677566528,1.0396513938903809,1.1408475637435913,1.4470267295837402
14937.75406026379,0.936674177646637,1.0398132801055908,1.1408475637435913,1.4478362798690796
14937.756060323849,0.9361883997917175,1.0401370525360107,1.1416571140289307,1.4476743936538696
14937.758060383909,0.9352169632911682,1.0404609441757202,1.1408475637435913,1.4473505020141602
14937.76006044397,0.9365122318267822,1.0402990579605103,1.1410094499588013,1.4475125074386597
14937.76206050403,0.936674177646637,1.0398132801055908,1.1416571140289307,1.4471886157989502
14937.76406056409,0.9353788495063782,1.0398132801055908,1.14230477809906,1.4473505020141602
14937.766060624152,0.9358645677566528,1.0393275022506714,1.1432762145996094,1.4479981660842896
14937.768060684211,0.9368360638618469,1.0399751663208008,1.1429524421691895,1.448160171508789
14937.770060744271,0.936674177646637,1.0406228303909302,1.1435999870300293,1.4470267295837402
14937.772060804333,0.9365122318267822,1.0412704944610596,1.1432762145996094,1.4463790655136108
14937.774060864393,0.9374837279319763,1.0411086082458496,1.1431143283843994,1.4470267295837402
14937.776060924454,0.937645673751831,1.0407847166061401,1.1432762145996094,1.4471886157989502
14937.778060984514,0.9371598958969116,1.0406228303909302,1.1435999870300293,1.4470267295837402
14937.780061044574,0.9382932782173157,1.0401370525360107,1.1445715427398682,1.4473505020141602
14937.782061104635,0.9374837279319763,1.0401370525360107,1.1450573205947876,1.4462171792984009
14937.784061164695,0.936674177646637,1.0399751663208008,1.1444096565246582,1.4460551738739014
14937.786061224755,0.936674177646637,1.0404609441757202,1.1457048654556274,1.4462171792984009
14937.788061284817,0.9371598958969116,1.0415942668914795,1.145866870880127,1.4468648433685303
14937.790061344876,0.9365122318267822,1.0427277088165283,1.1452192068099976,1.4462171792984009
14937.792061404936,0.9363503456115723,1.0424039363861084,1.1452192068099976,1.4467028379440308
14937.794061464998,0.937807559967041,1.0428895950317383,1.1461906433105469,1.4471886157989502
14937.796061525058,0.937807559967041,1.041918158531189,1.1461906433105469,1.4476743936538696
14937.79806158512,0.937807559967041,1.041918158531189,1.1465145349502563,1.4479981660842896
14937.800061645179,0.9386171102523804,1.042080044746399,1.1452192068099976,1.4478362798690796
14937.802061705239,0.9381313920021057,1.0424039363861084,1.146028757095337,1.4473505020141602
14937.8040617653,0.936674177646637,1.0428895950317383,1.146028757095337,1.4473505020141602
14937.80606182536,0.9373218417167664,1.0425658226013184,1.1465145349502563,1.4467028379440308
14937.808061885422,0.937807559967041,1.0433753728866577,1.1461906433105469,1.4465409517288208
14937.810061945482,0.9373218417167664,1.0435372591018677,1.1465145349502563,1.4470267295837402
14937.812062005542,0.9363503456115723,1.041918158531189,1.1468383073806763,1.4467028379440308
14937.814062065603,0.9374837279319763,1.0422419309616089,1.1473240852355957,1.4463790655136108
14937.816062125663,0.937807559967041,1.0424039363861084,1.1468383073806763,1.4457314014434814
14937.818062185723,0.9382932782173157,1.0430516004562378,1.1468383073806763,1.4460551738739014
14937.820062245784,0.9386171102523804,1.0432134866714478,1.1476478576660156,1.4470267295837402
14937.822062305844,0.937807559967041,1.0433753728866577,1.1486194133758545,1.4478362798690796
14937.824062365904,0.9363503456115723,1.0432134866714478,1.148295521736145,1.4473505020141602
14937.826062425966,0.9368360638618469,1.0438611507415771,1.148295521736145,1.4478362798690796
14937.828062486025,0.937645673751831,1.0436991453170776,1.1487812995910645,1.4467028379440308
14937.830062546087,0.9371598958969116,1.0433753728866577,1.148295521736145,1.4460551738739014
14937.832062606147,0.936674177646637,1.0436991453170776,1.148295521736145,1.4467028379440308
14937.834062666207,0.9382932782173157,1.0435372591018677,1.148295521736145,1.4468648433685303
14937.836062726268,0.9387790560722351,1.0432134866714478,1.1487812995910645,1.4468648433685303
14937.838062786328,0.937645673751831,1.0432134866714478,1.148457407951355,1.4467028379440308
14937.840062846388,0.9391028881072998,1.0432134866714478,1.148457407951355,1.4475125074386597
14937.84206290645,0.9397505521774292,1.0430516004562378,1.1489431858062744,1.4473505020141602
14937.84406296651,0.9384552240371704,1.0433753728866577,1.1489431858062744,1.4475125074386597
14937.846063026569,0.9371598958969116,1.0427277088165283,1.1487812995910645,1.4476743936538696
14937.84806308663,0.9374837279319763,1.0428895950317383,1.1489431858062744,1.4478362798690796
14937.85006314669,0.9363503456115723,1.044023036956787,1.1491050720214844,1.4467028379440308
14937.852063206752,0.9368360638618469,1.045318365097046,1.1489431858062744,1.4468648433685303
14937.854063266812,0.937807559967041,1.0445088148117065,1.148295521736145,1.4478362798690796
14937.856063326872,0.937645673751831,1.0436991453170776,1.1489431858062744,1.4473505020141602
14937.858063386933,0.937969446182251,1.0436991453170776,1.1491050720214844,1.4473505020141602
14937.860063446993,0.937807559967041,1.0445088148117065,1.1497527360916138,1.448160171508789
14937.862063507053,0.937969446182251,1.0448325872421265,1.1492670774459839,1.4467028379440308
14937.864063567114,0.9371598958969116,1.0445088148117065,1.1492670774459839,1.4462171792984009
14937.866063627174,0.9363503456115723,1.044023036956787,1.1487812995910645,1.4462171792984009
14937.868063687234,0.9369980096817017,1.0448325872421265,1.1478097438812256,1.4462171792984009
14937.870063747296,0.9363503456115723,1.044184923171997,1.148133635520935,1.4454076290130615
14937.872063807356,0.9363503456115723,1.0438611507415771,1.1476478576660156,1.4458932876586914
14937.874063867417,0.937807559967041,1.044346809387207,1.148295521736145,1.4462171792984009
14937.876063927477,0.937645673751831,1.044346809387207,1.148457407951355,1.4460551738739014
14937.878063987537,0.9373218417167664,1.044184923171997,1.148133635520935,1.4468648433685303
14937.880064047598,0.937645673751831,1.0438611507415771,1.1478097438812256,1.4463790655136108
14937.882064107658,0.9381313920021057,1.044184923171997,1.147971749305725,1.4455695152282715
14937.88406416772,0.936674177646637,1.0445088148117065,1.1478097438812256,1.445245623588562
14937.88606422778,0.9363503456115723,1.0449944734573364,1.1487812995910645,1.4458932876586914
14937.88806428784,0.9358645677566528,1.0449944734573364,1.1486194133758545,1.4463790655136108
14937.890064347901,0.9345692992210388,1.044184923171997,1.1486194133758545,1.445083737373352
14937.89206440796,0.9345692992210388,1.044346809387207,1.148295521736145,1.4455695152282715
14937.89406446802,0.9361883997917175,1.0446707010269165,1.1486194133758545,1.4458932876586914
14937.896064528082,0.9365122318267822,1.0445088148117065,1.1478097438812256,1.4463790655136108
14937.898064588142,0.9371598958969116,1.0435372591018677,1.147971749305725,1.4458932876586914
14937.900064648202,0.937807559967041,1.044023036956787,1.148457407951355,1.4458932876586914
14937.902064708263,0.9369980096817017,1.0448325872421265,1.1487812995910645,1.444921851158142
14937.904064768323,0.9358645677566528,1.0448325872421265,1.148295521736145,1.4441123008728027
14937.906064828385,0.9358645677566528,1.044184923171997,1.148295521736145,1.444921851158142
14937.908064888445,0.936674177646637,1.0436991453170776,1.1487812995910645,1.444921851158142
14937.910064948504,0.9365122318267822,1.0425658226013184,1.148133635520935,1.4439502954483032
14937.912065008566,0.9363503456115723,1.0427277088165283,1.1474859714508057,1.445083737373352
14937.914065068626,0.9371598958969116,1.0432134866714478,1.148133635520935,1.4454076290130615
14937.916065128686,0.9365122318267822,1.0432134866714478,1.148457407951355,1.444921851158142
14937.918065188747,0.9355407953262329,1.0438611507415771,1.1486194133758545,1.445245623588562
14937.920065248807,0.9361883997917175,1.044023036956787,1.1495908498764038,1.4447599649429321
14937.922065308867,0.9358645677566528,1.044184923171997,1.1495908498764038,1.4437884092330933
14937.924065368928,0.9345692992210388,1.0445088148117065,1.1495908498764038,1.4437884092330933
14937.926065428988,0.9357026815414429,1.0438611507415771,1.1492670774459839,1.4437884092330933
14937.92806548905,0.9369980096817017,1.0438611507415771,1.1492670774459839,1.4445979595184326
14937.93006554911,0.9360265135765076,1.0436991453170776,1.1491050720214844,1.4441123008728027
14937.93206560917,0.9355407953262329,1.0445088148117065,1.1492670774459839,1.445083737373352
14937.934065669231,0.9365122318267822,1.0445088148117065,1.1497527360916138,1.4445979595184326
14937.936065729291,0.9360265135765076,1.0446707010269165,1.1499146223068237,1.4441123008728027
14937.938065789353,0.9361883997917175,1.0449944734573364,1.1505622863769531,1.4441123008728027
14937.940065849412,0.9368360638618469,1.0448325872421265,1.1497527360916138,1.4444360733032227
14937.942065909472,0.9368360638618469,1.0448325872421265,1.1492670774459839,1.4444360733032227
14937.944065969532,0.9348931312561035,1.0449944734573364,1.1486194133758545,1.4441123008728027
14937.946066029594,0.9348931312561035,1.045318365097046,1.1494289636611938,1.442978858947754
14937.948066089653,0.9353788495063782,1.045318365097046,1.1492670774459839,1.442655086517334
14937.950066149715,0.9340835213661194,1.045156478881836,1.1502385139465332,1.442978858947754
14937.952066209775,0.9345692992210388,1.0446707010269165,1.1500766277313232,1.4436265230178833
14937.954066269835,0.9361883997917175,1.044346809387207,1.1491050720214844,1.4434646368026733
14937.956066329896,0.9361883997917175,1.0438611507415771,1.1495908498764038,1.4444360733032227
14937.958066389956,0.9352169632911682,1.044184923171997,1.1491050720214844,1.4445979595184326
14937.960066450018,0.9352169632911682,1.045156478881836,1.148295521736145,1.4444360733032227
14937.962066510077,0.9342454671859741,1.0446707010269165,1.147971749305725,1.4434646368026733
14937.964066570137,0.9335978031158447,1.0445088148117065,1.148133635520935,1.442978858947754
14937.966066630199,0.9339216351509094,1.0445088148117065,1.1486194133758545,1.442816972732544
14937.968066690259,0.9339216351509094,1.0446707010269165,1.148295521736145,1.4436265230178833
14937.970066750318,0.9331120848655701,1.045318365097046,1.1487812995910645,1.4431407451629639
14937.97206681038,0.93327397108078,1.0445088148117065,1.1486194133758545,1.4431407451629639
14937.97406687044,0.9340835213661194,1.044346809387207,1.1486194133758545,1.4431407451629639
14937.9760669305,0.9340835213661194,1.045156478881836,1.148295521736145,1.442816972732544
14937.978066990561,0.9339216351509094,1.045318365097046,1.1478097438812256,1.441845417022705
14937.980067050621,0.9345692992210388,1.0448325872421265,1.1486194133758545,1.442816972732544
14937.982067110683,0.9342454671859741,1.0436991453170776,1.148295521736145,1.4424930810928345
14937.984067170742,0.9339216351509094,1.0435372591018677,1.1487812995910645,1.4421693086624146
14937.986067230802,0.9331120848655701,1.0435372591018677,1.1491050720214844,1.4423311948776245
14937.988067290864,0.9339216351509094,1.044023036956787,1.1489431858062744,1.4433027505874634
14937.990067350924,0.9329501390457153,1.0448325872421265,1.1491050720214844,1.4431407451629639
14937.992067410984,0.9335978031158447,1.0454802513122559,1.1494289636611938,1.442816972732544
14937.994067471045,0.9345692992210388,1.0448325872421265,1.1486194133758545,1.4433027505874634
14937.996067531105,0.9345692992210388,1.044023036956787,1.148295521736145,1.4431407451629639
14937.998067591165,0.9340835213661194,1.0448325872421265,1.1487812995910645,1.4424930810928345
14938.000067651226,0.9355407953262329,1.0459660291671753,1.1489431858062744,1.442655086517334
14938.002067711286,0.9358645677566528,1.0461279153823853,1.1487812995910645,1.4421693086624146
14938.004067771348,0.9350550174713135,1.0464516878128052,1.1494289636611938,1.4421693086624146
14938.006067831408,0.9350550174713135,1.0461279153823853,1.1491050720214844,1.4423311948776245
14938.008067891467,0.9345692992210388,1.0461279153823853,1.1495908498764038,1.442816972732544
14938.010067951529,0.9345692992210388,1.0462898015975952,1.1507242918014526,1.441845417022705
14938.012068011589,0.9345692992210388,1.0456421375274658,1.151533842086792,1.4421693086624146
14938.01406807165,0.9358645677566528,1.0456421375274658,1.1508861780166626,1.4423311948776245
14938.01606813171,0.9352169632911682,1.0459660291671753,1.1500766277313232,1.442655086517334
14938.01806819177,0.9350550174713135,1.0462898015975952,1.1494289636611938,1.4434646368026733
14938.020068251832,0.9347311854362488,1.0462898015975952,1.1494289636611938,1.4436265230178833
14938.022068311891,0.9339216351509094,1.045318365097046,1.1502385139465332,1.4434646368026733
14938.024068371951,0.9331120848655701,1.0456421375274658,1.1507242918014526,1.4424930810928345
14938.026068432013,0.9334359169006348,1.0467755794525146,1.1505622863769531,1.442816972732544
14938.028068492073,0.9345692992210388,1.0470993518829346,1.1497527360916138,1.442655086517334
14938.030068552132,0.9342454671859741,1.0469374656677246,1.1495908498764038,1.441845417022705
14938.032068612194,0.9345692992210388,1.0467755794525146,1.1495908498764038,1.441845417022705
14938.034068672254,0.9355407953262329,1.0459660291671753,1.1494289636611938,1.4424930810928345
14938.036068732315,0.9345692992210388,1.0464516878128052,1.1499146223068237,1.4424930810928345
14938.038068792375,0.9345692992210388,1.0461279153823853,1.1507242918014526,1.4423311948776245
14938.040068852435,0.9348931312561035,1.0462898015975952,1.1507242918014526,1.4424930810928345
14938.042068912497,0.9347311854362488,1.0469374656677246,1.1508861780166626,1.4431407451629639
14938.044068972556,0.9337596893310547,1.0470993518829346,1.1502385139465332,1.4431407451629639
14938.046069032616,0.9347311854362488,1.0464516878128052,1.1500766277313232,1.4424930810928345
14938.048069092678,0.9345692992210388,1.0459660291671753,1.1507242918014526,1.4424930810928345
14938.050069152738,0.9334359169006348,1.0464516878128052,1.1512099504470825,1.4423311948776245
14938.052069212798,0.9348931312561035,1.0464516878128052,1.1510480642318726,1.4420074224472046
14938.05406927286,0.9357026815414429,1.0458040237426758,1.1520196199417114,1.4420074224472046
14938.056069332919,0.9353788495063782,1.0456421375274658,1.151533842086792,1.4415216445922852
14938.05806939298,0.9347311854362488,1.0454802513122559,1.1508861780166626,1.4415216445922852
14938.06006945304,0.9357026815414429,1.045318365097046,1.1505622863769531,1.4415216445922852
14938.0620695131,0.9358645677566528,1.0466136932373047,1.151533842086792,1.4420074224472046
14938.064069573162,0.9340835213661194,1.0464516878128052,1.151371955871582,1.4424930810928345
14938.066069633222,0.9339216351509094,1.0466136932373047,1.1510480642318726,1.4424930810928345
14938.068069693283,0.9344073534011841,1.0464516878128052,1.1505622863769531,1.4420074224472046
14938.070069753343,0.9335978031158447,1.0469374656677246,1.1502385139465332,1.4413597583770752
14938.072069813403,0.9335978031158447,1.0470993518829346,1.1505622863769531,1.441845417022705
14938.074069873463,0.9344073534011841,1.0469374656677246,1.1507242918014526,1.442816972732544
14938.076069933524,0.9350550174713135,1.0467755794525146,1.1508861780166626,1.4420074224472046
14938.078069993584,0.9353788495063782,1.0458040237426758,1.1507242918014526,1.4421693086624146
14938.080070053646,0.9353788495063782,1.0462898015975952,1.1504004001617432,1.442816972732544
14938.082070113705,0.9348931312561035,1.0464516878128052,1.151533842086792,1.4413597583770752
14938.084070173765,0.9342454671859741,1.0462898015975952,1.1508861780166626,1.4407120943069458
14938.086070233827,0.9337596893310547,1.0462898015975952,1.1497527360916138,1.4416835308074951
14938.088070293887,0.9335978031158447,1.0458040237426758,1.1507242918014526,1.4415216445922852
14938.090070353948,0.9329501390457153,1.045156478881836,1.1512099504470825,1.4413597583770752
14938.092070414008,0.9339216351509094,1.0449944734573364,1.1510480642318726,1.4416835308074951
14938.094070474068,0.9345692992210388,1.0446707010269165,1.1507242918014526,1.4416835308074951
14938.09607053413,0.9339216351509094,1.045318365097046,1.151371955871582,1.4423311948776245
14938.09807059419,0.9337596893310547,1.0456421375274658,1.1508861780166626,1.4408739805221558
14938.100070654249,0.9339216351509094,1.0445088148117065,1.1505622863769531,1.4411978721618652
14938.10207071431,0.9340835213661194,1.0448325872421265,1.1500766277313232,1.4407120943069458
14938.10407077437,0.93327397108078,1.0449944734573364,1.1494289636611938,1.4407120943069458
14938.10607083443,0.9337596893310547,1.0448325872421265,1.1495908498764038,1.4403882026672363
14938.108070894492,0.9337596893310547,1.045318365097046,1.1499146223068237,1.439416766166687
14938.110070954552,0.9324644207954407,1.0458040237426758,1.1504004001617432,1.4400644302368164
14938.112071014613,0.9329501390457153,1.045318365097046,1.1507242918014526,1.4411978721618652
14938.114071074673,0.9347311854362488,1.044346809387207,1.1507242918014526,1.4411978721618652
14938.116071134733,0.9340835213661194,1.0448325872421265,1.1497527360916138,1.4403882026672363
14938.118071194795,0.9329501390457153,1.0449944734573364,1.1500766277313232,1.4399025440216064
14938.120071254854,0.9344073534011841,1.045156478881836,1.1499146223068237,1.4400644302368164
14938.122071314914,0.9337596893310547,1.0448325872421265,1.1500766277313232,1.4399025440216064
14938.124071374976,0.9331120848655701,1.0446707010269165,1.1505622863769531,1.439416766166687
14938.126071435036,0.9342454671859741,1.045156478881836,1.151371955871582,1.439416766166687
14938.128071495095,0.9335978031158447,1.0448325872421265,1.1507242918014526,1.4382833242416382
14938.130071555157,0.9334359169006348,1.0449944734573364,1.1504004001617432,1.4390928745269775
14938.132071615217,0.9342454671859741,1.0449944734573364,1.1500766277313232,1.439416766166687
14938.134071675278,0.9347311854362488,1.0449944734573364,1.1510480642318726,1.4389309883117676
14938.136071735338,0.9342454671859741,1.045156478881836,1.1523433923721313,1.4386072158813477
14938.138071795398,0.9339216351509094,1.0454802513122559,1.1523433923721313,1.439416766166687
14938.14007185546,0.9348931312561035,1.045156478881836,1.1526671648025513,1.439740538597107
14938.14207191552,0.9350550174713135,1.0446707010269165,1.1526671648025513,1.4399025440216064
14938.144071975581,0.9331120848655701,1.0454802513122559,1.1520196199417114,1.439740538597107
14938.14607203564,0.9342454671859741,1.0449944734573364,1.151533842086792,1.4387691020965576
14938.1480720957,0.9344073534011841,1.045156478881836,1.1523433923721313,1.4400644302368164
14938.150072155762,0.9344073534011841,1.045318365097046,1.1526671648025513,1.4402263164520264
14938.152072215822,0.9340835213661194,1.0449944734573364,1.151857614517212,1.439740538597107
14938.154072275882,0.9347311854362488,1.0449944734573364,1.1525052785873413,1.4400644302368164
14938.156072335943,0.9342454671859741,1.0449944734573364,1.1536387205123901,1.439416766166687
14938.158072396003,0.9352169632911682,1.0454802513122559,1.1529910564422607,1.4389309883117676
14938.160072456063,0.9357026815414429,1.0456421375274658,1.1533148288726807,1.439740538597107
14938.162072516125,0.9358645677566528,1.045156478881836,1.1534768342971802,1.439254879951477
14938.164072576184,0.9347311854362488,1.0449944734573364,1.1529910564422607,1.439254879951477
14938.166072636246,0.9347311854362488,1.0456421375274658,1.1542863845825195,1.439578652381897
14938.168072696306,0.9357026815414429,1.0454802513122559,1.1534768342971802,1.439416766166687
14938.170072756366,0.9350550174713135,1.045318365097046,1.1538006067276,1.4384453296661377
14938.172072816427,0.9355407953262329,1.0461279153823853,1.15396249294281,1.4382833242416382
14938.174072876487,0.9363503456115723,1.0462898015975952,1.1544482707977295,1.4389309883117676
14938.176072936547,0.9363503456115723,1.045318365097046,1.1547720432281494,1.439416766166687
14938.178072996609,0.9368360638618469,1.045156478881836,1.1546101570129395,1.439740538597107
14938.180073056668,0.9373218417167664,1.0454802513122559,1.1544482707977295,1.4403882026672363
14938.182073116728,0.9363503456115723,1.045156478881836,1.1547720432281494,1.439578652381897
14938.18407317679,0.9353788495063782,1.045318365097046,1.1546101570129395,1.4390928745269775
14938.18607323685,0.9352169632911682,1.0449944734573364,1.1542863845825195,1.439254879951477
14938.188073296911,0.9358645677566528,1.0456421375274658,1.1546101570129395,1.4390928745269775
14938.190073356971,0.9350550174713135,1.0456421375274658,1.1547720432281494,1.4382833242416382
14938.19207341703,0.9358645677566528,1.0459660291671753,1.1544482707977295,1.439254879951477
14938.194073477092,0.9360265135765076,1.0461279153823853,1.15396249294281,1.4389309883117676
14938.196073537152,0.9357026815414429,1.045318365097046,1.1542863845825195,1.439416766166687
14938.198073597212,0.9355407953262329,1.0449944734573364,1.1547720432281494,1.439254879951477
14938.200073657274,0.9365122318267822,1.044023036956787,1.1550959348678589,1.439416766166687
14938.202073717333,0.9363503456115723,1.0445088148117065,1.1546101570129395,1.4389309883117676
14938.204073777393,0.936674177646637,1.0446707010269165,1.1541244983673096,1.4379595518112183
14938.206073837455,0.936674177646637,1.0449944734573364,1.1546101570129395,1.4381214380264282
14938.208073897515,0.9361883997917175,1.0446707010269165,1.1550959348678589,1.439416766166687
14938.210073957576,0.9352169632911682,1.044023036956787,1.1560673713684082,1.4387691020965576
14938.212074017636,0.9363503456115723,1.044346809387207,1.1555817127227783,1.4389309883117676
14938.214074077696,0.9368360638618469,1.0454802513122559,1.1559054851531982,1.4382833242416382
14938.216074137757,0.9368360638618469,1.045318365097046,1.157362699508667,1.4379595518112183
14938.218074197817,0.9374837279319763,1.0449944734573364,1.1559054851531982,1.4386072158813477
14938.220074257879,0.9374837279319763,1.0449944734573364,1.1560673713684082,1.4384453296661377
14938.222074317939,0.9365122318267822,1.045156478881836,1.1560673713684082,1.4382833242416382
14938.224074377998,0.9358645677566528,1.0448325872421265,1.1554197072982788,1.4377976655960083
14938.22607443806,0.9361883997917175,1.045156478881836,1.154934048652649,1.4377976655960083
14938.22807449812,0.9363503456115723,1.0449944734573364,1.1547720432281494,1.439254879951477
14938.23007455818,0.9347311854362488,1.045156478881836,1.1552578210830688,1.4384453296661377
14938.232074618241,0.9361883997917175,1.0456421375274658,1.1552578210830688,1.4389309883117676
14938.234074678301,0.9374837279319763,1.0458040237426758,1.1555817127227783,1.4389309883117676
14938.236074738361,0.9361883997917175,1.0448325872421265,1.1560673713684082,1.4387691020965576
14938.238074798423,0.9357026815414429,1.0446707010269165,1.1559054851531982,1.4376356601715088
14938.240074858482,0.9368360638618469,1.0445088148117065,1.1557435989379883,1.4381214380264282
14938.242074918544,0.9361883997917175,1.044184923171997,1.1552578210830688,1.4376356601715088
14938.244074978604,0.9357026815414429,1.0445088148117065,1.1550959348678589,1.4373118877410889
14938.246075038664,0.9361883997917175,1.0449944734573364,1.1550959348678589,1.4386072158813477
14938.248075098725,0.9365122318267822,1.045318365097046,1.1550959348678589,1.4379595518112183
14938.250075158785,0.9345692992210388,1.0458040237426758,1.1557435989379883,1.4376356601715088
14938.252075218845,0.9361883997917175,1.0454802513122559,1.1557435989379883,1.4390928745269775
14938.254075278906,0.9374837279319763,1.0448325872421265,1.1559054851531982,1.439416766166687
14938.256075338966,0.9373218417167664,1.0445088148117065,1.1550959348678589,1.4382833242416382
14938.258075399026,0.9361883997917175,1.0448325872421265,1.1542863845825195,1.4377976655960083
14938.260075459088,0.9357026815414429,1.0449944734573364,1.1546101570129395,1.4374737739562988
14938.262075519147,0.9357026815414429,1.0438611507415771,1.1552578210830688,1.4373118877410889
14938.264075579209,0.9350550174713135,1.0435372591018677,1.1554197072982788,1.4376356601715088
14938.266075639269,0.9361883997917175,1.0446707010269165,1.1552578210830688,1.4377976655960083
14938.268075699329,0.9358645677566528,1.044346809387207,1.1554197072982788,1.4373118877410889
14938.27007575939,0.9347311854362488,1.045156478881836,1.1555817127227783,1.4373118877410889
14938.27207581945,0.9355407953262329,1.0446707010269165,1.1554197072982788,1.4379595518112183
14938.274075879512,0.936674177646637,1.045156478881836,1.1560673713684082,1.4382833242416382
14938.276075939571,0.9369980096817017,1.0458040237426758,1.1562293767929077,1.4389309883117676
14938.278075999631,0.9374837279319763,1.0446707010269165,1.1560673713684082,1.4389309883117676
14938.280076059691,0.937969446182251,1.0446707010269165,1.1555817127227783,1.4389309883117676
14938.282076119753,0.9365122318267822,1.044184923171997,1.1554197072982788,1.437150001525879
14938.284076179812,0.9355407953262329,1.0445088148117065,1.1552578210830688,1.4369879961013794
14938.286076239874,0.9360265135765076,1.044346809387207,1.1559054851531982,1.4365023374557495
14938.288076299934,0.9365122318267822,1.044023036956787,1.1563912630081177,1.4369879961013794
14938.290076359994,0.9352169632911682,1.0445088148117065,1.1568769216537476,1.4369879961013794
14938.292076420055,0.936674177646637,1.044346809387207,1.1557435989379883,1.4369879961013794
14938.294076480115,0.9373218417167664,1.044346809387207,1.1555817127227783,1.4369879961013794
14938.296076540177,0.9373218417167664,1.0445088148117065,1.1547720432281494,1.4374737739562988
14938.298076600237,0.937969446182251,1.0435372591018677,1.1546101570129395,1.4373118877410889
14938.300076660296,0.9382932782173157,1.044023036956787,1.1554197072982788,1.4374737739562988
14938.302076720358,0.9369980096817017,1.0446707010269165,1.1560673713684082,1.4369879961013794
14938.304076780418,0.9368360638618469,1.0448325872421265,1.1567150354385376,1.4381214380264282
14938.306076840478,0.9369980096817017,1.0446707010269165,1.1562293767929077,1.4373118877410889
14938.30807690054,0.9361883997917175,1.0445088148117065,1.1557435989379883,1.43617844581604
14938.310076960599,0.9358645677566528,1.0446707010269165,1.1557435989379883,1.4365023374557495
14938.312077020659,0.9365122318267822,1.0449944734573364,1.1550959348678589,1.4369879961013794
14938.31407708072,0.9371598958969116,1.044346809387207,1.1557435989379883,1.4373118877410889
14938.31607714078,0.9369980096817017,1.0436991453170776,1.157038927078247,1.4374737739562988
14938.318077200842,0.9373218417167664,1.044023036956787,1.1565531492233276,1.4374737739562988
14938.320077260902,0.9374837279319763,1.0446707010269165,1.1563912630081177,1.4368261098861694
14938.322077320961,0.9368360638618469,1.044184923171997,1.1562293767929077,1.4365023374557495
14938.324077381023,0.9361883997917175,1.0432134866714478,1.1560673713684082,1.43617844581604
14938.326077441083,0.9360265135765076,1.0436991453170776,1.1559054851531982,1.4374737739562988
14938.328077501143,0.9358645677566528,1.0438611507415771,1.1559054851531982,1.4374737739562988
14938.330077561204,0.9353788495063782,1.044184923171997,1.1563912630081177,1.43601655960083
14938.332077621264,0.9361883997917175,1.0435372591018677,1.1567150354385376,1.4369879961013794
14938.334077681324,0.9373218417167664,1.0432134866714478,1.1567150354385376,1.4373118877410889
14938.336077741385,0.9368360638618469,1.0433753728866577,1.1563912630081177,1.4376356601715088
14938.338077801445,0.9365122318267822,1.044023036956787,1.1557435989379883,1.4379595518112183
14938.340077861507,0.937969446182251,1.044023036956787,1.1557435989379883,1.439254879951477
14938.342077921567,0.9369980096817017,1.0445088148117065,1.1562293767929077,1.4376356601715088
14938.344077981626,0.9363503456115723,1.0446707010269165,1.1562293767929077,1.4382833242416382
14938.346078041688,0.9369980096817017,1.0449944734573364,1.1552578210830688,1.4373118877410889
14938.348078101748,0.9365122318267822,1.0438611507415771,1.1557435989379883,1.4358546733856201
14938.35007816181,0.9355407953262329,1.0425658226013184,1.1560673713684082,1.437150001525879
14938.35207822187,0.9373218417167664,1.0427277088165283,1.1565531492233276,1.4379595518112183
14938.35407828193,0.9389409422874451,1.0435372591018677,1.1559054851531982,1.4379595518112183
14938.35607834199,0.9391028881072998,1.0445088148117065,1.1565531492233276,1.4379595518112183
14938.35807840205,0.9382932782173157,1.0438611507415771,1.1568769216537476,1.4376356601715088
14938.36007846211,0.9382932782173157,1.0435372591018677,1.1563912630081177,1.4379595518112183
14938.362078522172,0.9386171102523804,1.0435372591018677,1.1563912630081177,1.4381214380264282
14938.364078582232,0.937645673751831,1.0432134866714478,1.1555817127227783,1.4382833242416382
14938.366078642292,0.936674177646637,1.0438611507415771,1.1560673713684082,1.4387691020965576
14938.368078702353,0.9369980096817017,1.0438611507415771,1.1562293767929077,1.4381214380264282
14938.370078762413,0.9357026815414429,1.0433753728866577,1.1560673713684082,1.4373118877410889
14938.372078822475,0.9363503456115723,1.0433753728866577,1.1560673713684082,1.4366642236709595
14938.374078882534,0.9381313920021057,1.0446707010269165,1.1555817127227783,1.4366642236709595
14938.376078942594,0.9386171102523804,1.0449944734573364,1.1563912630081177,1.4381214380264282
14938.378079002656,0.937969446182251,1.044184923171997,1.1560673713684082,1.4381214380264282
14938.380079062716,0.9391028881072998,1.044346809387207,1.1557435989379883,1.4387691020965576
14938.382079122775,0.9386171102523804,1.044346809387207,1.1563912630081177,1.4376356601715088
14938.384079182837,0.937645673751831,1.0445088148117065,1.1563912630081177,1.4369879961013794
14938.386079242897,0.9369980096817017,1.0445088148117065,1.1565531492233276,1.4374737739562988
14938.388079302957,0.9373218417167664,1.0448325872421265,1.1567150354385376,1.4374737739562988
14938.390079363018,0.9371598958969116,1.044023036956787,1.1565531492233276,1.4368261098861694
14938.392079423078,0.9374837279319763,1.0438611507415771,1.1565531492233276,1.4381214380264282
14938.39407948314,0.9382932782173157,1.0436991453170776,1.1567150354385376,1.4381214380264282
14938.3960795432,0.9382932782173157,1.0435372591018677,1.1568769216537476,1.4376356601715088
14938.39807960326,0.937807559967041,1.044184923171997,1.1562293767929077,1.4381214380264282
14938.40007966332,0.9395886063575745,1.0430516004562378,1.1568769216537476,1.4382833242416382
14938.40207972338,0.9387790560722351,1.0435372591018677,1.1562293767929077,1.4384453296661377
14938.404079783442,0.937969446182251,1.0433753728866577,1.1560673713684082,1.4381214380264282
14938.406079843502,0.9381313920021057,1.0425658226013184,1.1567150354385376,1.4379595518112183
14938.408079903562,0.937645673751831,1.0427277088165283,1.1568769216537476,1.4377976655960083
14938.410079963622,0.9373218417167664,1.0422419309616089,1.1560673713684082,1.4384453296661377
14938.412080023683,0.9369980096817017,1.0422419309616089,1.1547720432281494,1.4390928745269775
14938.414080083743,0.9373218417167664,1.042080044746399,1.1550959348678589,1.4386072158813477
14938.416080143805,0.9381313920021057,1.0425658226013184,1.1557435989379883,1.4382833242416382
14938.418080203865,0.9374837279319763,1.0424039363861084,1.1562293767929077,1.4382833242416382
14938.420080263924,0.9386171102523804,1.0438611507415771,1.1563912630081177,1.4389309883117676
14938.422080323986,0.9382932782173157,1.0435372591018677,1.1568769216537476,1.4382833242416382
14938.424080384046,0.9374837279319763,1.0424039363861084,1.157362699508667,1.4374737739562988
14938.426080444107,0.9381313920021057,1.0427277088165283,1.1563912630081177,1.4374737739562988
14938.428080504167,0.9381313920021057,1.0427277088165283,1.1562293767929077,1.4382833242416382
14938.430080564227,0.9368360638618469,1.0424039363861084,1.1562293767929077,1.4376356601715088
14938.432080624289,0.937645673751831,1.042080044746399,1.1562293767929077,1.4369879961013794
14938.434080684348,0.9382932782173157,1.0422419309616089,1.1563912630081177,1.4373118877410889
14938.436080744408,0.9389409422874451,1.0427277088165283,1.1567150354385376,1.4390928745269775
14938.43808080447,0.9392647743225098,1.0425658226013184,1.1560673713684082,1.4384453296661377
14938.44008086453,0.9395886063575745,1.0424039363861084,1.1559054851531982,1.4384453296661377
14938.44208092459,0.9391028881072998,1.0427277088165283,1.1557435989379883,1.4379595518112183
14938.444080984651,0.9381313920021057,1.0428895950317383,1.1563912630081177,1.4379595518112183
14938.44608104471,0.9381313920021057,1.0425658226013184,1.1563912630081177,1.4379595518112183
14938.448081104772,0.9382932782173157,1.041918158531189,1.1567150354385376,1.4379595518112183
14938.450081164832,0.937807559967041,1.042080044746399,1.1565531492233276,1.4376356601715088
14938.452081224892,0.9386171102523804,1.0430516004562378,1.1562293767929077,1.4386072158813477
14938.454081284954,0.9392647743225098,1.044023036956787,1.1567150354385376,1.4382833242416382
14938.456081345013,0.9397505521774292,1.0438611507415771,1.1568769216537476,1.4384453296661377
14938.458081405073,0.9392647743225098,1.0436991453170776,1.157362699508667,1.4384453296661377
14938.460081465135,0.9397505521774292,1.0433753728866577,1.1568769216537476,1.439416766166687
14938.462081525195,0.9397505521774292,1.044023036956787,1.1568769216537476,1.4386072158813477
14938.464081585254,0.9391028881072998,1.0436991453170776,1.157038927078247,1.4384453296661377
14938.466081645316,0.9392647743225098,1.0432134866714478,1.1567150354385376,1.4389309883117676
14938.468081705376,0.9391028881072998,1.0435372591018677,1.1568769216537476,1.439254879951477
14938.470081765437,0.9382932782173157,1.0436991453170776,1.1578484773635864,1.4387691020965576
14938.472081825497,0.9397505521774292,1.0435372591018677,1.157524585723877,1.4390928745269775
14938.474081885557,0.9405601024627686,1.0435372591018677,1.157038927078247,1.439740538597107
14938.476081945619,0.9402362704277039,1.0445088148117065,1.1576865911483765,1.439254879951477
14938.478082005679,0.9392647743225098,1.0436991453170776,1.157524585723877,1.439254879951477
14938.48008206574,0.9399124383926392,1.0433753728866577,1.157362699508667,1.4389309883117676
14938.4820821258,0.9400743842124939,1.0433753728866577,1.157200813293457,1.4384453296661377
14938.48408218586,0.9392647743225098,1.0432134866714478,1.1560673713684082,1.439416766166687
14938.486082245921,0.9394267201423645,1.0430516004562378,1.1562293767929077,1.439254879951477
14938.488082305981,0.9394267201423645,1.0436991453170776,1.1565531492233276,1.439416766166687
14938.490082366041,0.9387790560722351,1.0427277088165283,1.1565531492233276,1.4387691020965576
14938.492082426103,0.9400743842124939,1.0432134866714478,1.1562293767929077,1.439740538597107
14938.494082486162,0.9408839344978333,1.0428895950317383,1.1568769216537476,1.4389309883117676
14938.496082546222,0.9403981566429138,1.0433753728866577,1.1568769216537476,1.4389309883117676
14938.498082606284,0.9399124383926392,1.0436991453170776,1.1563912630081177,1.439254879951477
14938.500082666344,0.9405601024627686,1.0428895950317383,1.1567150354385376,1.4402263164520264
14938.502082726405,0.9395886063575745,1.0424039363861084,1.1568769216537476,1.4402263164520264
14938.504082786465,0.9389409422874451,1.0427277088165283,1.1568769216537476,1.439578652381897
14938.506082846525,0.9397505521774292,1.0428895950317383,1.1560673713684082,1.4389309883117676
14938.508082906586,0.9392647743225098,1.0428895950317383,1.1563912630081177,1.4382833242416382
14938.510082966646,0.937645673751831,1.0425658226013184,1.1565531492233276,1.4382833242416382
14938.512083026706,0.9386171102523804,1.0428895950317383,1.1568769216537476,1.4387691020965576
14938.514083086768,0.9394267201423645,1.0436991453170776,1.1565531492233276,1.4390928745269775
14938.516083146827,0.9389409422874451,1.0433753728866577,1.1567150354385376,1.4381214380264282
14938.518083206887,0.9392647743225098,1.0430516004562378,1.157038927078247,1.4381214380264282
14938.520083266949,0.9405601024627686,1.0430516004562378,1.1568769216537476,1.4390928745269775
14938.522083327009,0.9395886063575745,1.0435372591018677,1.1565531492233276,1.4384453296661377
14938.52408338707,0.9392647743225098,1.0435372591018677,1.1560673713684082,1.4381214380264282
14938.52608344713,0.9389409422874451,1.0424039363861084,1.1559054851531982,1.4381214380264282
14938.52808350719,0.9395886063575745,1.0422419309616089,1.1560673713684082,1.4381214380264282
14938.530083567251,0.9381313920021057,1.0430516004562378,1.1560673713684082,1.4386072158813477
14938.532083627311,0.9399124383926392,1.0428895950317383,1.1560673713684082,1.4384453296661377
14938.534083687371,0.9407219886779785,1.0425658226013184,1.1559054851531982,1.4382833242416382
14938.536083747433,0.9400743842124939,1.0427277088165283,1.1559054851531982,1.4381214380264282
14938.538083807493,0.9394267201423645,1.0425658226013184,1.1554197072982788,1.4379595518112183
14938.540083867552,0.9397505521774292,1.0424039363861084,1.1560673713684082,1.4386072158813477
14938.542083927614,0.9397505521774292,1.0425658226013184,1.1557435989379883,1.4381214380264282
14938.544083987674,0.9394267201423645,1.0424039363861084,1.1559054851531982,1.4381214380264282
14938.546084047735,0.9394267201423645,1.0433753728866577,1.1559054851531982,1.4379595518112183
14938.548084107795,0.9389409422874451,1.0430516004562378,1.1555817127227783,1.4379595518112183
14938.550084167855,0.937645673751831,1.0427277088165283,1.1563912630081177,1.4373118877410889
14938.552084227917,0.9384552240371704,1.0424039363861084,1.157038927078247,1.4368261098861694
14938.554084287976,0.9395886063575745,1.0422419309616089,1.1568769216537476,1.4381214380264282
14938.556084348038,0.9395886063575745,1.0422419309616089,1.1563912630081177,1.4384453296661377
14938.558084408098,0.9399124383926392,1.0428895950317383,1.1557435989379883,1.4389309883117676
14938.560084468158,0.9408839344978333,1.0425658226013184,1.1560673713684082,1.439740538597107
14938.56208452822,0.9399124383926392,1.0430516004562378,1.1568769216537476,1.4390928745269775
14938.564084588279,0.9389409422874451,1.0427277088165283,1.157200813293457,1.4379595518112183
14938.566084648339,0.9386171102523804,1.0422419309616089,1.1568769216537476,1.4374737739562988
14938.5680847084,0.9382932782173157,1.042080044746399,1.1567150354385376,1.4390928745269775
14938.57008476846,0.9384552240371704,1.0412704944610596,1.1563912630081177,1.439254879951477
14938.57208482852,0.9395886063575745,1.0415942668914795,1.1562293767929077,1.439254879951477
14938.574084888582,0.9400743842124939,1.042080044746399,1.1567150354385376,1.4389309883117676
14938.576084948641,0.9400743842124939,1.0422419309616089,1.1565531492233276,1.4381214380264282
14938.578085008703,0.9399124383926392,1.0422419309616089,1.1563912630081177,1.4384453296661377
14938.580085068763,0.9402362704277039,1.042080044746399,1.157200813293457,1.439416766166687
14938.582085128823,0.9389409422874451,1.0422419309616089,1.157038927078247,1.4386072158813477
14938.584085188884,0.9386171102523804,1.0424039363861084,1.1565531492233276,1.439254879951477
14938.586085248944,0.9391028881072998,1.0424039363861084,1.1560673713684082,1.4382833242416382
14938.588085309004,0.9395886063575745,1.0425658226013184,1.1557435989379883,1.4377976655960083
14938.590085369065,0.9389409422874451,1.0425658226013184,1.1559054851531982,1.4377976655960083
14938.592085429125,0.9410458207130432,1.042080044746399,1.1557435989379883,1.4389309883117676
14938.594085489185,0.9408839344978333,1.042080044746399,1.157200813293457,1.4389309883117676
14938.596085549247,0.9400743842124939,1.0415942668914795,1.1583342552185059,1.4389309883117676
14938.598085609307,0.9407219886779785,1.041918158531189,1.1578484773635864,1.4389309883117676
14938.600085669368,0.9420173168182373,1.0414323806762695,1.157038927078247,1.4390928745269775
14938.602085729428,0.9403981566429138,1.041918158531189,1.157200813293457,1.4384453296661377
14938.604085789488,0.9392647743225098,1.0425658226013184,1.1567150354385376,1.4382833242416382
14938.60608584955,0.9395886063575745,1.0427277088165283,1.157362699508667,1.4382833242416382
14938.60808590961,0.9402362704277039,1.0412704944610596,1.157362699508667,1.4381214380264282
14938.61008596967,0.9397505521774292,1.0411086082458496,1.1567150354385376,1.4384453296661377
14938.61208602973,0.9403981566429138,1.041918158531189,1.157200813293457,1.4390928745269775
14938.61408608979,0.9415315985679626,1.0424039363861084,1.157200813293457,1.4384453296661377
14938.61608614985,0.9413696527481079,1.0432134866714478,1.1565531492233276,1.4384453296661377
14938.618086209912,0.9408839344978333,1.0422419309616089,1.1562293767929077,1.4384453296661377
14938.620086269972,0.941207766532898,1.0424039363861084,1.1563912630081177,1.439254879951477
14938.622086330033,0.9394267201423645,1.0433753728866577,1.1578484773635864,1.4379595518112183
14938.624086390093,0.9397505521774292,1.0424039363861084,1.157200813293457,1.4374737739562988
14938.626086450153,0.9407219886779785,1.0424039363861084,1.157038927078247,1.4373118877410889
14938.628086510214,0.9403981566429138,1.042080044746399,1.157362699508667,1.4379595518112183
14938.630086570274,0.9392647743225098,1.0428895950317383,1.1563912630081177,1.4376356601715088
14938.632086630336,0.9403981566429138,1.0424039363861084,1.1565531492233276,1.4387691020965576
14938.634086690396,0.9405601024627686,1.041918158531189,1.1563912630081177,1.4390928745269775
14938.636086750455,0.9408839344978333,1.0411086082458496,1.1562293767929077,1.4384453296661377
14938.638086810517,0.9407219886779785,1.0415942668914795,1.1562293767929077,1.4384453296661377
14938.640086870577,0.942341148853302,1.041756272315979,1.1567150354385376,1.4381214380264282
14938.642086930637,0.9418554306030273,1.0428895950317383,1.1576865911483765,1.4386072158813477
14938.644086990698,0.9405601024627686,1.0422419309616089,1.1568769216537476,1.4387691020965576
14938.646087050758,0.9399124383926392,1.0415942668914795,1.1563912630081177,1.4382833242416382
14938.648087110818,0.9399124383926392,1.042080044746399,1.1563912630081177,1.4384453296661377
14938.65008717088,0.9391028881072998,1.042080044746399,1.1567150354385376,1.4379595518112183
14938.65208723094,0.9402362704277039,1.0415942668914795,1.1568769216537476,1.4381214380264282
14938.654087291,0.941207766532898,1.041918158531189,1.1576865911483765,1.4389309883117676
14938.65608735106,0.941207766532898,1.0430516004562378,1.1576865911483765,1.4386072158813477
14938.65808741112,0.9407219886779785,1.0427277088165283,1.1567150354385376,1.4387691020965576
14938.660087471182,0.9413696527481079,1.0427277088165283,1.1562293767929077,1.4390928745269775
14938.662087531242,0.9407219886779785,1.041918158531189,1.157038927078247,1.4389309883117676
14938.664087591302,0.9395886063575745,1.0414323806762695,1.157038927078247,1.4386072158813477
14938.666087651363,0.9405601024627686,1.0414323806762695,1.157200813293457,1.4390928745269775
14938.668087711423,0.9407219886779785,1.0412704944610596,1.157524585723877,1.4384453296661377
14938.670087771483,0.9387790560722351,1.04094660282135,1.1576865911483765,1.4374737739562988
14938.672087831545,0.9402362704277039,1.0406228303909302,1.157362699508667,1.4382833242416382
14938.674087891604,0.9415315985679626,1.041756272315979,1.1580103635787964,1.4382833242416382
14938.676087951666,0.9415315985679626,1.042080044746399,1.1576865911483765,1.4389309883117676
14938.678088011726,0.9416934847831726,1.0415942668914795,1.157038927078247,1.4387691020965576
14938.680088071786,0.9416934847831726,1.041918158531189,1.1576865911483765,1.4390928745269775
14938.682088131847,0.9410458207130432,1.0414323806762695,1.157038927078247,1.4384453296661377
14938.684088191907,0.9397505521774292,1.0406228303909302,1.157362699508667,1.4381214380264282
14938.686088251969,0.9403981566429138,1.04094660282135,1.157038927078247,1.4386072158813477
14938.688088312028,0.9405601024627686,1.0402990579605103,1.157200813293457,1.4382833242416382
14938.690088372088,0.9394267201423645,1.0407847166061401,1.157362699508667,1.4376356601715088
14938.69208843215,0.9402362704277039,1.0415942668914795,1.157038927078247,1.439416766166687
14938.69408849221,0.9413696527481079,1.0415942668914795,1.1576865911483765,1.439578652381897
14938.69608855227,0.9408839344978333,1.0412704944610596,1.1581722497940063,1.4387691020965576
14938.698088612331,0.9413696527481079,1.0412704944610596,1.1580103635787964,1.4386072158813477
14938.70008867239,0.9420173168182373,1.0412704944610596,1.1576865911483765,1.4390928745269775
14938.70208873245,0.9410458207130432,1.0407847166061401,1.157362699508667,1.4384453296661377
14938.704088792512,0.9403981566429138,1.0406228303909302,1.1568769216537476,1.4386072158813477
14938.706088852572,0.9395886063575745,1.0406228303909302,1.1568769216537476,1.4387691020965576
14938.708088912634,0.9397505521774292,1.0412704944610596,1.157038927078247,1.4382833242416382
14938.710088972693,0.9392647743225098,1.0412704944610596,1.157200813293457,1.4369879961013794
14938.712089032753,0.9400743842124939,1.041918158531189,1.1565531492233276,1.4376356601715088
14938.714089092815,0.9408839344978333,1.041756272315979,1.157038927078247,1.4377976655960083
14938.716089152875,0.9416934847831726,1.041918158531189,1.157038927078247,1.4382833242416382
14938.718089212935,0.9415315985679626,1.0415942668914795,1.1576865911483765,1.4387691020965576
14938.720089272996,0.942341148853302,1.0412704944610596,1.157038927078247,1.4389309883117676
14938.722089333056,0.9408839344978333,1.0412704944610596,1.1563912630081177,1.4382833242416382
14938.724089393116,0.9399124383926392,1.0415942668914795,1.1559054851531982,1.4374737739562988
14938.726089453177,0.9399124383926392,1.04094660282135,1.1563912630081177,1.4368261098861694
14938.728089513237,0.9405601024627686,1.0415942668914795,1.1565531492233276,1.4374737739562988
14938.730089573299,0.9395886063575745,1.0414323806762695,1.157038927078247,1.4377976655960083
14938.732089633359,0.9407219886779785,1.0415942668914795,1.1565531492233276,1.4384453296661377
14938.734089693418,0.9416934847831726,1.0411086082458496,1.1563912630081177,1.4376356601715088
14938.73608975348,0.942341148853302,1.0411086082458496,1.1563912630081177,1.4381214380264282
14938.73808981354,0.942179262638092,1.0412704944610596,1.1562293767929077,1.4386072158813477
14938.740089873601,0.9429888129234314,1.041756272315979,1.1568769216537476,1.439416766166687
14938.742089933661,0.9418554306030273,1.041918158531189,1.1568769216537476,1.4382833242416382
14938.744089993721,0.9410458207130432,1.0414323806762695,1.1559054851531982,1.4384453296661377
14938.74609005378,0.941207766532898,1.0412704944610596,1.1557435989379883,1.4387691020965576
14938.748090113842,0.9415315985679626,1.041756272315979,1.1555817127227783,1.4390928745269775
14938.750090173902,0.9400743842124939,1.041756272315979,1.1559054851531982,1.4379595518112183
14938.752090233964,0.9413696527481079,1.0414323806762695,1.1554197072982788,1.4384453296661377
14938.754090294024,0.9429888129234314,1.0411086082458496,1.1557435989379883,1.4389309883117676
14938.756090354083,0.942503035068512,1.0412704944610596,1.1562293767929077,1.4384453296661377
14938.758090414145,0.9420173168182373,1.0404609441757202,1.1563912630081177,1.439254879951477
14938.760090474205,0.9429888129234314,1.04094660282135,1.1562293767929077,1.4403882026672363
14938.762090534266,0.9418554306030273,1.0407847166061401,1.1563912630081177,1.4389309883117676
14938.764090594326,0.9407219886779785,1.0407847166061401,1.157038927078247,1.4386072158813477
14938.766090654386,0.941207766532898,1.0404609441757202,1.1562293767929077,1.4386072158813477
14938.768090714448,0.9416934847831726,1.04094660282135,1.1560673713684082,1.4386072158813477
14938.770090774507,0.9407219886779785,1.0407847166061401,1.1555817127227783,1.4381214380264282
14938.772090834567,0.942341148853302,1.0411086082458496,1.1555817127227783,1.439740538597107
14938.774090894629,0.942179262638092,1.0406228303909302,1.1560673713684082,1.4402263164520264
14938.776090954689,0.9418554306030273,1.0411086082458496,1.1559054851531982,1.4403882026672363
14938.778091014748,0.942503035068512,1.0407847166061401,1.1563912630081177,1.4399025440216064
14938.78009107481,0.9431506991386414,1.04094660282135,1.157038927078247,1.439578652381897
14938.78209113487,0.942179262638092,1.04094660282135,1.157362699508667,1.4390928745269775
14938.784091194932,0.9408839344978333,1.0404609441757202,1.1563912630081177,1.4390928745269775
14938.786091254991,0.9413696527481079,1.0406228303909302,1.1565531492233276,1.4390928745269775
14938.788091315051,0.9415315985679626,1.0404609441757202,1.1567150354385376,1.439416766166687
14938.790091375113,0.9400743842124939,1.0406228303909302,1.157200813293457,1.4389309883117676
14938.792091435173,0.9413696527481079,1.04094660282135,1.1565531492233276,1.439416766166687
14938.794091495232,0.942179262638092,1.0404609441757202,1.1563912630081177,1.439578652381897
14938.796091555294,0.942179262638092,1.0406228303909302,1.1552578210830688,1.4390928745269775
14938.798091615354,0.942179262638092,1.0398132801055908,1.1550959348678589,1.4384453296661377
14938.800091675414,0.9426649808883667,1.0401370525360107,1.1552578210830688,1.4390928745269775
14938.802091735475,0.9415315985679626,1.0404609441757202,1.1562293767929077,1.439416766166687
14938.804091795535,0.9407219886779785,1.0402990579605103,1.1559054851531982,1.4399025440216064
14938.806091855597,0.9413696527481079,1.0404609441757202,1.1555817127227783,1.4400644302368164
14938.808091915656,0.942503035068512,1.0402990579605103,1.1554197072982788,1.4403882026672363
14938.810091975716,0.9416934847831726,1.0402990579605103,1.1559054851531982,1.4400644302368164
14938.812092035778,0.942179262638092,1.0402990579605103,1.1557435989379883,1.4403882026672363
14938.814092095838,0.9413696527481079,1.0399751663208008,1.1555817127227783,1.4405502080917358
14938.8160921559,0.9410458207130432,1.0396513938903809,1.154934048652649,1.4413597583770752
14938.818092215959,0.9413696527481079,1.0402990579605103,1.1552578210830688,1.4405502080917358
14938.820092276019,0.942341148853302,1.0399751663208008,1.1554197072982788,1.4399025440216064
14938.82209233608,0.9410458207130432,1.0404609441757202,1.1550959348678589,1.4390928745269775
14938.82409239614,0.9408839344978333,1.04094660282135,1.1547720432281494,1.439254879951477
14938.8260924562,0.9408839344978333,1.0401370525360107,1.1544482707977295,1.439740538597107
14938.828092516262,0.9420173168182373,1.0396513938903809,1.1555817127227783,1.439740538597107
14938.830092576321,0.9405601024627686,1.0396513938903809,1.1562293767929077,1.439254879951477
14938.832092636381,0.9410458207130432,1.0394893884658813,1.1547720432281494,1.4402263164520264
14938.834092696443,0.9418554306030273,1.0398132801055908,1.1552578210830688,1.439740538597107
14938.836092756503,0.9413696527481079,1.0406228303909302,1.1552578210830688,1.439254879951477
14938.838092816564,0.9418554306030273,1.04094660282135,1.1542863845825195,1.439740538597107
14938.840092876624,0.942179262638092,1.0404609441757202,1.1546101570129395,1.4399025440216064
14938.842092936684,0.941207766532898,1.0399751663208008,1.1544482707977295,1.439254879951477
14938.844092996746,0.9402362704277039,1.0394893884658813,1.1541244983673096,1.4389309883117676
14938.846093056805,0.941207766532898,1.0404609441757202,1.1544482707977295,1.439740538597107
14938.848093116865,0.9413696527481079,1.0407847166061401,1.1550959348678589,1.4408739805221558
14938.850093176927,0.9403981566429138,1.0404609441757202,1.1547720432281494,1.439578652381897
14938.852093236987,0.9420173168182373,1.0412704944610596,1.15396249294281,1.439578652381897
14938.854093297046,0.942341148853302,1.0401370525360107,1.1541244983673096,1.4399025440216064
14938.856093357108,0.9416934847831726,1.0404609441757202,1.1541244983673096,1.439740538597107
14938.858093417168,0.9413696527481079,1.0407847166061401,1.1542863845825195,1.4402263164520264
14938.86009347723,0.9426649808883667,1.0402990579605103,1.1536387205123901,1.4403882026672363
