0,1
19218.19475588609,-3006.0
19218.194818383326,-6436.0
19218.19488088056,-7159.0
19218.1949433778,-5758.0
19218.195005875037,-5416.0
19218.195068372275,-4384.0
19218.19513086951,-1385.0
19218.195193366748,1559.0
19218.195255863986,4865.0
19218.195318361224,9645.0
19218.19538085846,14166.0
19218.195443355697,16602.0
19218.195505852935,17229.0
19218.195568350173,16694.0
19218.195630847407,14845.0
19218.195693344645,12457.0
19218.195755841884,10436.0
19218.19581833912,8132.0
19218.195880836356,5249.0
19218.195943333594,3027.0
19218.196005830832,1435.0
19218.19606832807,377.0
19218.196130825305,631.0
19218.196193322543,1097.0
19218.19625581978,646.0
19218.19631831702,-229.0
19218.196380814254,-912.0
19218.19644331149,-1451.0
19218.19650580873,-1544.0
19218.196568305968,-414.0
19218.196630803202,1557.0
19218.19669330044,3722.0
19218.19675579768,5983.0
19218.196818294913,8564.0
19218.19688079215,11670.0
19218.19694328939,13420.0
19218.197005786627,14851.0
19218.197068283862,16241.0
19218.1971307811,15186.0
19218.197193278338,13565.0
19218.197255775576,13472.0
19218.19731827281,12278.0
19218.19738077005,10682.0
19218.197443267287,11589.0
19218.197505764525,11200.0
19218.19756826176,9224.0
19218.197630758998,9091.0
19218.197693256236,9023.0
19218.197755753474,6499.0
19218.19781825071,4931.0
19218.197880747946,4728.0
19218.197943245184,2303.0
19218.198005742423,-403.0
19218.198068239657,-896.0
19218.198130736895,-1653.0
19218.198193234133,-3750.0
19218.198255731368,-4301.0
19218.198318228606,-4284.0
19218.198380725844,-6428.0
19218.198443223082,-8392.0
19218.19850572032,-9111.0
19218.198568217555,-10733.0
19218.198630714793,-12966.0
19218.19869321203,-14170.0
19218.198755709265,-14970.0
19218.198818206503,-16332.0
19218.19888070374,-17468.0
19218.19894320098,-17986.0
19218.199005698214,-18929.0
19218.199068195452,-20253.0
19218.19913069269,-21514.0
19218.19919318993,-22908.0
19218.199255687163,-24758.0
19218.1993181844,-26696.0
19218.19938068164,-28214.0
19218.199443178877,-30096.0
19218.19950567611,-32215.0
19218.19956817335,-32768.0
19218.199630670588,-27730.0
19218.199693167826,-18265.0
19218.19975566506,-9412.0
19218.1998181623,1415.0
19218.199880659537,13110.0
19218.199943156775,18822.0
19218.20000565401,21726.0
19218.200068151247,25846.0
19218.200130648485,25932.0
19218.20019314572,21654.0
19218.200255642958,17710.0
19218.200318140196,13228.0
19218.200380637434,6711.0
19218.200443134672,2449.0
19218.200505631907,1780.0
19218.200568129145,1508.0
19218.200630626383,-114.0
19218.200693123617,-1702.0
19218.200755620855,-2731.0
19218.200818118094,-5449.0
19218.20088061533,-7505.0
19218.200943112566,-6353.0
19218.201005609804,-5307.0
19218.201068107042,-4787.0
19218.20113060428,-2858.0
19218.201193101515,172.0
19218.201255598753,3568.0
19218.20131809599,7993.0
19218.20138059323,13020.0
19218.201443090464,16508.0
19218.201505587702,17691.0
19218.20156808494,17170.0
19218.201630582178,15466.0
19218.201693079413,13242.0
19218.20175557665,10927.0
19218.20181807389,8465.0
19218.201880571127,5552.0
19218.20194306836,2930.0
19218.2020055656,1135.0
19218.202068062837,-94.0
19218.202130560072,28.0
19218.20219305731,740.0
19218.202255554548,655.0
19218.202318051786,-296.0
19218.20238054902,-1249.0
19218.20244304626,-1901.0
19218.202505543497,-1836.0
19218.202568040735,-824.0
19218.20263053797,583.0
19218.202693035208,3575.0
19218.202755532446,6863.0
19218.202818029684,8989.0
19218.20288052692,12546.0
19218.202943024156,16529.0
19218.203005521395,17268.0
19218.203068018633,17326.0
19218.203130515867,17761.0
19218.203193013105,15887.0
19218.203255510343,13053.0
19218.20331800758,12221.0
19218.203380504816,11491.0
19218.203443002054,9179.0
19218.203505499292,8023.0
19218.20356799653,7727.0
19218.203630493765,6535.0
19218.203692991003,5295.0
19218.20375548824,4963.0
19218.20381798548,4269.0
19218.203880482713,2325.0
19218.20394297995,960.0
19218.20400547719,61.0
19218.204067974424,-1458.0
19218.204130471662,-2421.0
19218.2041929689,-2828.0
19218.20425546614,-4216.0
19218.204317963373,-6073.0
19218.20438046061,-7465.0
19218.20444295785,-9405.0
19218.204505455087,-11227.0
19218.20456795232,-12705.0
19218.20463044956,-14781.0
19218.204692946798,-16629.0
19218.204755444036,-18513.0
19218.20481794127,-20619.0
19218.20488043851,-21641.0
19218.204942935747,-22185.0
19218.205005432985,-23128.0
19218.20506793022,-23747.0
19218.205130427457,-23867.0
19218.205192924695,-24888.0
19218.205255421934,-26044.0
19218.205317919168,-26111.0
19218.205380416406,-27302.0
19218.205442913644,-29553.0
19218.20550541088,-29800.0
19218.205567908117,-24781.0
19218.205630405355,-16148.0
19218.205692902593,-7543.0
19218.20575539983,3414.0
19218.205817897066,14345.0
19218.205880394304,18945.0
19218.20594289154,21358.0
19218.206005388776,24528.0
19218.206067886014,24133.0
19218.206130383252,20259.0
19218.20619288049,16382.0
19218.206255377725,11842.0
19218.206317874963,5117.0
19218.2063803722,633.0
19218.20644286944,-314.0
19218.206505366674,-487.0
19218.206567863912,-1319.0
19218.20663036115,-2169.0
19218.206692858388,-2792.0
19218.206755355623,-4996.0
19218.20681785286,-6695.0
19218.2068803501,-5427.0
19218.206942847337,-4055.0
19218.20700534457,-3268.0
19218.20706784181,-1741.0
19218.207130339048,870.0
19218.207192836286,4115.0
19218.20725533352,7890.0
19218.20731783076,12593.0
19218.207380327996,16496.0
19218.20744282523,17891.0
19218.20750532247,16908.0
19218.207567819707,14814.0
19218.207630316945,12537.0
19218.20769281418,9823.0
19218.207755311418,7262.0
19218.207817808656,4545.0
19218.207880305894,1937.0
19218.20794280313,263.0
19218.208005300366,-965.0
19218.208067797605,-798.0
19218.208130294843,365.0
19218.208192792077,944.0
19218.208255289315,461.0
19218.208317786553,13.0
19218.20838028379,-178.0
19218.208442781026,-539.0
19218.208505278264,403.0
19218.208567775502,2473.0
19218.20863027274,4592.0
19218.208692769975,6860.0
19218.208755267213,8767.0
19218.20881776445,11379.0
19218.20888026169,13869.0
19218.208942758924,14845.0
19218.20900525616,15690.0
19218.2090677534,15569.0
19218.209130250638,14329.0
19218.209192747872,12824.0
19218.20925524511,11842.0
19218.20931774235,11416.0
19218.209380239583,10628.0
19218.20944273682,9508.0
19218.20950523406,8450.0
19218.209567731297,7529.0
19218.20963022853,6091.0
19218.20969272577,5044.0
19218.209755223008,4792.0
19218.209817720246,3303.0
19218.20988021748,1504.0
19218.20994271472,429.0
19218.210005211957,-1264.0
19218.210067709195,-2841.0
19218.21013020643,-3624.0
19218.210192703667,-4687.0
19218.210255200906,-6568.0
19218.210317698144,-8584.0
19218.210380195378,-9953.0
19218.210442692616,-11219.0
19218.210505189854,-12749.0
19218.210567687092,-13925.0
19218.210630184327,-14840.0
19218.210692681565,-16891.0
19218.210755178803,-18939.0
19218.210817676038,-19911.0
19218.210880173276,-21170.0
19218.210942670514,-22514.0
19218.211005167752,-23268.0
19218.21106766499,-23950.0
19218.211130162224,-25621.0
19218.211192659463,-26996.0
19218.2112551567,-27402.0
19218.211317653935,-28340.0
19218.211380151173,-30185.0
19218.21144264841,-30219.0
19218.21150514565,-24674.0
19218.211567642884,-15858.0
19218.211630140122,-7267.0
19218.21169263736,3218.0
19218.2117551346,13640.0
19218.211817631833,17858.0
19218.21188012907,19858.0
19218.21194262631,22824.0
19218.212005123547,22534.0
19218.21206762078,18861.0
19218.21213011802,15520.0
19218.212192615258,11799.0
19218.212255112496,5765.0
19218.21231760973,1976.0
19218.21238010697,1631.0
19218.212442604206,1255.0
19218.212505101445,133.0
19218.21256759868,-1344.0
19218.212630095917,-2757.0
19218.212692593155,-5335.0
19218.21275509039,-7123.0
19218.212817587628,-5850.0
19218.212880084866,-4343.0
19218.212942582104,-3416.0
19218.21300507934,-1751.0
19218.213067576577,933.0
19218.213130073815,4221.0
19218.213192571053,8190.0
19218.213255068287,12962.0
19218.213317565525,16328.0
19218.213380062763,17483.0
19218.21344256,16698.0
19218.213505057236,14548.0
19218.213567554474,12647.0
19218.213630051712,10296.0
19218.21369254895,7846.0
19218.213755046185,5455.0
19218.213817543423,2973.0
19218.21388004066,1064.0
19218.2139425379,-471.0
19218.214005035134,-671.0
19218.21406753237,284.0
19218.21413002961,654.0
19218.214192526848,168.0
19218.214255024082,-442.0
19218.21431752132,-1130.0
19218.21438001856,-1141.0
19218.214442515797,464.0
19218.21450501303,2547.0
19218.21456751027,5238.0
19218.214630007507,8270.0
19218.214692504742,10213.0
19218.21475500198,12250.0
19218.214817499218,14535.0
19218.214879996456,16409.0
19218.21494249369,16712.0
19218.21500499093,15874.0
19218.215067488167,15128.0
19218.215129985405,13045.0
19218.21519248264,10660.0
19218.215254979877,10140.0
19218.215317477116,9913.0
19218.215379974354,8084.0
19218.215442471588,7185.0
19218.215504968826,7464.0
19218.215567466064,5667.0
19218.215629963302,4430.0
19218.215692460537,4842.0
19218.215754957775,3880.0
19218.215817455013,1813.0
19218.21587995225,549.0
19218.215942449486,-465.0
19218.216004946724,-2407.0
19218.216067443962,-3656.0
19218.216129941196,-4403.0
19218.216192438435,-6047.0
19218.216254935673,-8084.0
19218.21631743291,-9887.0
19218.21637993015,-11266.0
19218.216442427383,-13036.0
19218.21650492462,-14495.0
19218.21656742186,-15234.0
19218.216629919094,-16915.0
19218.216692416332,-18763.0
19218.21675491357,-19489.0
19218.21681741081,-20686.0
19218.216879908043,-22423.0
19218.21694240528,-23237.0
19218.21700490252,-24421.0
19218.217067399757,-26515.0
19218.21712989699,-27912.0
19218.21719239423,-28745.0
19218.217254891468,-30001.0
19218.217317388706,-31299.0
19218.21737988594,-29692.0
19218.21744238318,-22699.0
19218.217504880417,-13763.0
19218.217567377655,-5240.0
19218.21762987489,6063.0
19218.217692372127,15345.0
19218.217754869365,18606.0
19218.217817366603,21948.0
19218.217879863838,24593.0
19218.217942361076,22764.0
19218.218004858314,19194.0
19218.21806735555,16573.0
19218.218129852787,11892.0
19218.218192350025,6030.0
19218.218254847263,3549.0
19218.218317344497,2607.0
19218.218379841735,898.0
19218.218442338974,-932.0
19218.21850483621,-2315.0
19218.218567333446,-4504.0
19218.218629830684,-7643.0
19218.218692327922,-7988.0
19218.21875482516,-6706.0
19218.218817322395,-6015.0
19218.218879819633,-4130.0
19218.21894231687,-1571.0
19218.21900481411,1442.0
19218.219067311344,5247.0
19218.21912980858,9821.0
19218.21919230582,14225.0
19218.219254803058,17039.0
19218.219317300292,18303.0
19218.21937979753,17443.0
19218.21944229477,15474.0
19218.219504792007,13275.0
19218.21956728924,10843.0
19218.21962978648,8348.0
19218.219692283717,5403.0
19218.219754780956,3160.0
19218.21981727819,1293.0
19218.219879775428,-146.0
19218.219942272666,-266.0
19218.2200047699,60.0
19218.22006726714,14.0
19218.220129764377,-680.0
19218.220192261615,-1221.0
19218.22025475885,-1441.0
19218.220317256088,-1198.0
19218.220379753326,764.0
19218.220442250564,3453.0
19218.2205047478,5866.0
19218.220567245036,8370.0
19218.220629742274,11146.0
19218.220692239513,13809.0
19218.220754736747,15909.0
19218.220817233985,17255.0
19218.220879731223,17479.0
19218.22094222846,16208.0
19218.221004725696,13966.0
19218.221067222934,12196.0
19218.221129720172,10768.0
19218.22119221741,9289.0
19218.221254714645,8485.0
19218.221317211883,7772.0
19218.22137970912,6066.0
19218.221442206355,4953.0
19218.221504703593,4971.0
19218.22156720083,4274.0
19218.22162969807,3442.0
19218.221692195308,3003.0
19218.221754692542,1713.0
19218.22181718978,-367.0
19218.22187968702,-1843.0
19218.221942184253,-2806.0
19218.22200468149,-4285.0
19218.22206717873,-6051.0
19218.222129675967,-7538.0
19218.2221921732,-9502.0
19218.22225467044,-11791.0
19218.222317167678,-13093.0
19218.222379664916,-14054.0
19218.22244216215,-15572.0
19218.22250465939,-17379.0
19218.222567156627,-18711.0
19218.222629653865,-20229.0
19218.2226921511,-21997.0
19218.222754648337,-22764.0
19218.222817145575,-23460.0
19218.222879642813,-24457.0
19218.222942140048,-25354.0
19218.223004637286,-26474.0
19218.223067134524,-27881.0
19218.223129631762,-29016.0
19218.223192128997,-30210.0
19218.223254626235,-30412.0
19218.223317123473,-25126.0
19218.223379620707,-15576.0
19218.223442117946,-7279.0
19218.223504615184,2400.0
19218.22356711242,13238.0
19218.22362960966,17914.0
19218.223692106894,20098.0
19218.223754604132,23239.0
19218.22381710137,22931.0
19218.223879598605,18867.0
19218.223942095843,15412.0
19218.22400459308,11848.0
19218.22406709032,6249.0
19218.224129587554,2777.0
19218.224192084792,2046.0
19218.22425458203,1446.0
19218.224317079268,-171.0
19218.224379576503,-1933.0
19218.22444207374,-3191.0
19218.22450457098,-5948.0
19218.224567068217,-7837.0
19218.22462956545,-6846.0
19218.22469206269,-5807.0
19218.224754559928,-4726.0
19218.224817057166,-2743.0
19218.2248795544,321.0
19218.22494205164,4109.0
19218.225004548876,8191.0
19218.225067046114,12645.0
19218.22512954335,16086.0
19218.225192040587,17820.0
19218.225254537825,17313.0
19218.22531703506,15808.0
19218.225379532298,14248.0
19218.225442029536,11571.0
19218.225504526774,8985.0
19218.22556702401,6126.0
19218.225629521246,3274.0
19218.225692018485,1214.0
19218.225754515723,-371.0
19218.225817012957,-1090.0
19218.225879510195,-902.0
19218.225942007433,-423.0
19218.22600450467,-1087.0
19218.226067001906,-1624.0
19218.226129499144,-886.0
19218.226191996382,-449.0
19218.22625449362,849.0
19218.226316990855,3741.0
19218.226379488093,6408.0
19218.22644198533,8486.0
19218.22650448257,10697.0
19218.226566979803,12979.0
19218.22662947704,14515.0
19218.22669197428,15655.0
19218.226754471518,16253.0
19218.226816968752,15769.0
19218.22687946599,14066.0
19218.22694196323,12354.0
19218.227004460467,11235.0
19218.2270669577,9546.0
19218.22712945494,8439.0
19218.227191952177,7776.0
19218.22725444941,6155.0
19218.22731694665,4786.0
19218.227379443888,4590.0
19218.227441941126,3791.0
19218.22750443836,2633.0
19218.2275669356,2629.0
19218.227629432837,1937.0
19218.227691930075,-286.0
19218.22775442731,-1893.0
19218.227816924547,-2833.0
19218.227879421785,-4685.0
19218.227941919024,-6554.0
19218.228004416258,-7603.0
19218.228066913496,-9290.0
19218.228129410734,-11617.0
19218.228191907972,-12982.0
19218.228254405207,-13995.0
19218.228316902445,-15250.0
19218.228379399683,-16319.0
19218.22844189692,-17592.0
19218.228504394156,-18891.0
19218.228566891394,-20242.0
19218.22862938863,-21871.0
19218.228691885866,-23082.0
19218.228754383104,-23515.0
19218.228816880342,-24907.0
19218.22887937758,-26583.0
19218.22894187482,-27288.0
19218.229004372053,-28452.0
19218.22906686929,-30032.0
19218.22912936653,-30366.0
19218.229191863764,-26337.0
19218.229254361002,-18018.0
19218.22931685824,-9934.0
19218.229379355478,-896.0
19218.229441852713,9710.0
19218.22950434995,15932.0
19218.22956684719,19276.0
19218.229629344427,23057.0
19218.22969184166,24207.0
19218.2297543389,20931.0
19218.229816836138,16997.0
19218.229879333376,13596.0
19218.22994183061,8036.0
19218.23000432785,3574.0
19218.230066825086,2309.0
19218.230129322325,1697.0
19218.23019181956,-241.0
19218.230254316797,-2118.0
19218.230316814035,-2920.0
19218.230379311273,-5346.0
19218.230441808508,-7370.0
19218.230504305746,-6507.0
19218.230566802984,-5745.0
19218.23062930022,-5288.0
19218.230691797457,-3716.0
19218.230754294695,-879.0
19218.230816791933,2510.0
19218.230879289167,6510.0
19218.230941786405,11204.0
19218.231004283643,14814.0
19218.23106678088,16817.0
19218.231129278116,17009.0
19218.231191775354,16044.0
19218.231254272592,14821.0
19218.23131676983,12844.0
19218.231379267065,10621.0
19218.231441764303,7736.0
19218.23150426154,4836.0
19218.23156675878,2187.0
19218.231629256014,248.0
19218.23169175325,-277.0
19218.23175425049,-742.0
19218.231816747728,-845.0
19218.231879244962,-876.0
19218.2319417422,-1616.0
19218.23200423944,-1928.0
19218.232066736677,-1124.0
19218.23212923391,234.0
19218.23219173115,1776.0
19218.232254228387,4193.0
19218.232316725625,6944.0
19218.23237922286,8759.0
19218.232441720098,11409.0
19218.232504217336,15067.0
19218.23256671457,16515.0
19218.23262921181,16539.0
19218.232691709047,16632.0
19218.232754206285,15135.0
19218.23281670352,12366.0
19218.232879200757,11249.0
19218.232941697996,10641.0
19218.233004195234,8830.0
19218.233066692468,8087.0
19218.233129189706,7126.0
19218.233191686944,5679.0
19218.233254184182,5202.0
19218.233316681417,5105.0
19218.233379178655,4446.0
19218.233441675893,3604.0
19218.23350417313,2764.0
19218.233566670366,868.0
19218.233629167604,-1011.0
19218.233691664842,-1878.0
19218.23375416208,-3235.0
19218.233816659314,-5337.0
19218.233879156553,-6984.0
19218.23394165379,-8797.0
19218.234004151025,-11223.0
19218.234066648263,-12334.0
19218.2341291455,-13042.0
19218.23419164274,-14636.0
19218.234254139978,-15770.0
19218.234316637212,-16994.0
19218.23437913445,-18973.0
19218.23444163169,-20340.0
19218.234504128923,-21036.0
19218.23456662616,-22020.0
19218.2346291234,-22986.0
19218.234691620637,-23576.0
19218.23475411787,-24689.0
19218.23481661511,-26023.0
19218.234879112348,-26979.0
19218.234941609586,-27909.0
19218.23500410682,-29587.0
19218.23506660406,-28956.0
19218.235129101296,-22104.0
19218.235191598535,-13532.0
19218.23525409577,-5748.0
19218.235316593007,5105.0
19218.235379090245,14453.0
19218.235441587483,17512.0
19218.235504084718,20213.0
19218.235566581956,23060.0
19218.235629079194,21232.0
19218.235691576432,17197.0
19218.235754073667,14205.0
19218.235816570905,9803.0
19218.235879068143,4418.0
19218.235941565377,1838.0
19218.236004062615,1600.0
19218.236066559853,965.0
19218.23612905709,-524.0
19218.236191554326,-1371.0
19218.236254051564,-2717.0
19218.236316548802,-5336.0
19218.23637904604,-5916.0
19218.236441543275,-4876.0
19218.236504040513,-4299.0
19218.23656653775,-3318.0
19218.23662903499,-1690.0
19218.236691532224,659.0
19218.23675402946,3927.0
19218.2368165267,8041.0
19218.236879023938,12132.0
19218.236941521172,14981.0
19218.23700401841,16125.0
19218.23706651565,15814.0
19218.237129012887,14521.0
19218.23719151012,12723.0
19218.23725400736,10907.0
19218.237316504597,8289.0
19218.237379001836,5352.0
19218.23744149907,3462.0
19218.237503996308,1560.0
19218.237566493546,328.0
19218.237628990784,501.0
19218.23769148802,944.0
19218.237753985257,720.0
19218.237816482495,63.0
19218.23787897973,6.0
19218.237941476968,-57.0
19218.238003974206,158.0
19218.238066471444,2024.0
19218.23812896868,4131.0
19218.238191465916,5671.0
19218.238253963154,7622.0
19218.238316460393,10190.0
19218.238378957627,12332.0
19218.238441454865,13857.0
19218.238503952103,15690.0
19218.23856644934,15882.0
19218.238628946576,14670.0
19218.238691443814,13764.0
19218.238753941052,12638.0
19218.23881643829,11121.0
19218.238878935525,9923.0
19218.238941432763,9359.0
19218.23900393,7786.0
19218.23906642724,5937.0
19218.239128924473,5470.0
19218.23919142171,4855.0
19218.23925391895,3733.0
19218.239316416184,2959.0
19218.239378913422,2354.0
19218.23944141066,742.0
19218.2395039079,-1260.0
19218.239566405136,-2339.0
19218.23962890237,-3451.0
19218.23969139961,-5302.0
19218.239753896847,-7122.0
19218.23981639408,-8552.0
19218.23987889132,-10246.0
19218.239941388558,-12013.0
19218.240003885796,-13109.0
19218.24006638303,-13881.0
19218.24012888027,-15007.0
19218.240191377507,-16928.0
19218.240253874745,-18326.0
19218.24031637198,-19228.0
19218.240378869217,-21231.0
19218.240441366455,-22642.0
19218.240503863693,-23155.0
19218.240566360928,-24009.0
19218.240628858166,-25633.0
19218.240691355404,-26094.0
19218.240753852642,-26442.0
19218.240816349877,-28075.0
19218.240878847115,-28997.0
19218.240941344353,-28138.0
19218.24100384159,-22431.0
19218.241066338825,-13905.0
19218.241128836064,-6017.0
19218.2411913333,4233.0
19218.241253830536,13377.0
19218.241316327774,17168.0
19218.241378825012,19973.0
19218.24144132225,22519.0
19218.24150381949,22194.0
19218.241566316723,18676.0
19218.24162881396,15392.0
19218.2416913112,11344.0
19218.241753808434,5734.0
19218.24181630567,2326.0
19218.24187880291,1396.0
19218.241941300148,752.0
19218.242003797382,-1283.0
19218.24206629462,-2879.0
19218.24212879186,-3946.0
19218.242191289097,-6728.0
19218.24225378633,-7674.0
19218.24231628357,-6347.0
19218.242378780807,-4889.0
19218.242441278046,-3676.0
19218.24250377528,-1911.0
19218.242566272518,1302.0
19218.242628769756,4856.0
19218.242691266994,8521.0
19218.24275376423,12622.0
19218.242816261467,15881.0
19218.242878758705,16876.0
19218.242941255943,15884.0
19218.243003753178,14851.0
19218.243066250416,13525.0
19218.243128747654,11494.0
19218.24319124489,9333.0
19218.243253742126,6930.0
19218.243316239365,4536.0
19218.243378736603,2017.0
19218.243441233837,473.0
19218.243503731075,13.0
19218.243566228313,-291.0
19218.24362872555,-550.0
19218.243691222786,-956.0
19218.243753720024,-1477.0
19218.243816217262,-1506.0
19218.2438787145,-367.0
19218.243941211735,1029.0
19218.244003708973,2972.0
19218.24406620621,6037.0
19218.24412870345,8505.0
19218.244191200683,9962.0
19218.24425369792,12444.0
19218.24431619516,15342.0
19218.244378692398,15540.0
19218.244441189632,15728.0
19218.24450368687,16336.0
19218.24456618411,14556.0
19218.244628681343,12104.0
19218.24469117858,11560.0
19218.24475367582,10680.0
19218.244816173057,8507.0
19218.244878670295,7658.0
19218.24494116753,7089.0
19218.245003664768,5620.0
19218.245066162006,4560.0
19218.24512865924,4511.0
19218.24519115648,3730.0
19218.245253653717,2212.0
19218.245316150955,1234.0
19218.24537864819,-76.0
19218.245441145427,-2208.0
19218.245503642665,-3631.0
19218.245566139904,-4567.0
19218.245628637138,-6710.0
19218.245691134376,-8539.0
19218.245753631614,-9707.0
19218.245816128852,-11375.0
19218.245878626087,-13058.0
19218.245941123325,-14322.0
19218.246003620563,-15134.0
19218.2460661178,-16658.0
19218.246128615036,-18337.0
19218.246191112274,-18912.0
19218.24625360951,-19858.0
19218.24631610675,-21831.0
19218.246378603984,-22640.0
19218.246441101222,-23167.0
19218.24650359846,-25297.0
19218.246566095695,-26939.0
19218.246628592933,-27206.0
19218.24669109017,-28685.0
19218.24675358741,-30766.0
19218.246816084647,-29790.0
19218.246878581882,-23520.0
19218.24694107912,-14899.0
19218.247003576358,-6680.0
19218.247066073593,4779.0
19218.24712857083,14468.0
19218.24719106807,17934.0
19218.247253565307,21453.0
19218.24731606254,24128.0
19218.24737855978,22545.0
19218.247441057018,18626.0
19218.247503554256,15432.0
19218.24756605149,10724.0
19218.24762854873,4635.0
19218.247691045966,2143.0
19218.247753543204,1483.0
19218.24781604044,680.0
19218.247878537677,-582.0
19218.247941034915,-1880.0
19218.248003532153,-3322.0
19218.248066029388,-6190.0
19218.248128526626,-6934.0
19218.248191023864,-5833.0
19218.248253521102,-5399.0
19218.248316018336,-3971.0
19218.248378515575,-2139.0
19218.248441012813,661.0
19218.248503510047,4262.0
19218.248566007285,8652.0
19218.248628504523,13136.0
19218.24869100176,15769.0
19218.248753498996,17275.0
19218.248815996234,16638.0
19218.248878493472,14874.0
19218.24894099071,13401.0
19218.249003487945,11609.0
19218.249065985183,9189.0
19218.24912848242,6072.0
19218.24919097966,3839.0
19218.249253476894,1465.0
19218.24931597413,-394.0
19218.24937847137,-260.0
19218.249440968608,35.0
19218.249503465842,-362.0
19218.24956596308,-1138.0
19218.24962846032,-1454.0
19218.249690957557,-1439.0
19218.24975345479,-732.0
19218.24981595203,1327.0
19218.249878449267,4190.0
19218.249940946505,6788.0
19218.25000344374,8478.0
19218.250065940978,10754.0
19218.250128438216,13246.0
19218.250190935454,14659.0
19218.25025343269,16431.0
19218.250315929927,16903.0
19218.250378427165,15499.0
19218.2504409244,14110.0
19218.250503421637,12538.0
19218.250565918876,10459.0
19218.250628416114,9419.0
19218.250690913348,9172.0
19218.250753410586,7202.0
19218.250815907824,5498.0
19218.250878405062,4987.0
19218.250940902297,3774.0
19218.251003399535,2865.0
19218.251065896773,3033.0
19218.25112839401,2722.0
19218.251190891246,1004.0
19218.251253388484,-478.0
19218.251315885722,-1436.0
19218.25137838296,-3068.0
19218.251440880194,-4721.0
19218.251503377433,-5702.0
19218.25156587467,-7394.0
19218.25162837191,-10096.0
19218.251690869143,-11399.0
19218.25175336638,-12244.0
19218.25181586362,-14228.0
19218.251878360854,-14956.0
19218.251940858092,-15533.0
19218.25200335533,-17847.0
19218.25206585257,-19610.0
19218.252128349806,-20527.0
19218.25219084704,-21882.0
19218.25225334428,-23060.0
19218.252315841517,-23330.0
19218.25237833875,-24317.0
19218.25244083599,-26080.0
19218.252503333228,-27153.0
19218.252565830466,-27747.0
19218.2526283277,-28990.0
19218.25269082494,-28950.0
19218.252753322176,-23238.0
19218.252815819415,-14532.0
19218.25287831665,-7303.0
19218.252940813887,1954.0
19218.253003311125,12131.0
19218.253065808363,16416.0
19218.253128305598,18690.0
19218.253190802836,21787.0
19218.253253300074,21268.0
19218.253315797312,17751.0
19218.253378294547,14551.0
19218.253440791785,11395.0
19218.253503289023,6695.0
19218.25356578626,3264.0
19218.253628283495,2503.0
19218.253690780733,1791.0
19218.25375327797,-71.0
19218.253815775206,-2017.0
19218.253878272444,-3239.0
19218.253940769682,-5400.0
19218.25400326692,-7295.0
19218.254065764155,-6436.0
19218.254128261393,-5429.0
19218.25419075863,-4540.0
19218.25425325587,-2663.0
19218.254315753104,171.0
19218.25437825034,3731.0
19218.25444074758,7239.0
19218.254503244818,11234.0
19218.254565742052,14581.0
19218.25462823929,15985.0
19218.25469073653,15958.0
19218.254753233767,14972.0
19218.254815731,13650.0
19218.25487822824,11747.0
19218.254940725477,9607.0
19218.255003222715,7121.0
19218.25506571995,4632.0
19218.255128217188,2765.0
19218.255190714426,1306.0
19218.255253211664,572.0
19218.2553157089,306.0
19218.255378206137,86.0
19218.255440703375,-770.0
19218.255503200613,-1407.0
19218.255565697847,-913.0
19218.255628195086,-244.0
19218.255690692324,1082.0
19218.255753189558,3501.0
19218.255815686796,6178.0
19218.255878184034,8591.0
19218.255940681272,10827.0
19218.256003178507,13611.0
19218.256065675745,15548.0
19218.256128172983,16377.0
19218.25619067022,16565.0
19218.256253167456,15911.0
19218.256315664694,14764.0
19218.256378161932,12896.0
19218.25644065917,11451.0
19218.256503156405,10052.0
19218.256565653643,8125.0
19218.25662815088,6593.0
19218.25669064812,5388.0
19218.256753145353,4423.0
19218.25681564259,3389.0
19218.25687813983,2989.0
19218.256940637068,2247.0
19218.257003134302,951.0
19218.25706563154,218.0
19218.25712812878,-909.0
19218.257190626013,-2485.0
19218.25725312325,-3651.0
19218.25731562049,-4940.0
19218.257378117727,-7197.0
19218.257440614965,-9207.0
19218.2575031122,-10261.0
19218.257565609438,-11658.0
19218.257628106676,-13298.0
19218.25769060391,-14008.0
19218.25775310115,-14631.0
19218.257815598387,-16944.0
19218.257878095625,-18827.0
19218.25794059286,-19325.0
19218.258003090097,-21317.0
19218.258065587335,-23261.0
19218.258128084573,-23389.0
19218.258190581808,-24276.0
19218.258253079046,-26095.0
19218.258315576284,-26336.0
19218.258378073522,-26287.0
19218.258440570757,-27380.0
19218.258503067995,-28320.0
19218.258565565233,-25903.0
19218.25862806247,-18484.0
19218.258690559705,-10464.0
19218.258753056944,-2307.0
19218.25881555418,8250.0
19218.25887805142,15266.0
19218.258940548654,17499.0
19218.259003045892,20284.0
19218.25906554313,21694.0
19218.259128040365,19424.0
19218.259190537603,16150.0
19218.25925303484,12634.0
19218.25931553208,7790.0
19218.259378029314,3284.0
19218.25944052655,1250.0
19218.25950302379,857.0
19218.259565521028,369.0
19218.259628018262,-855.0
19218.2596905155,-2397.0
19218.25975301274,-4081.0
19218.259815509977,-6007.0
19218.25987800721,-6300.0
19218.25994050445,-5240.0
19218.260003001687,-4028.0
19218.260065498926,-2441.0
19218.26012799616,-830.0
19218.260190493398,2106.0
19218.260252990636,6151.0
19218.260315487874,9775.0
19218.26037798511,13265.0
19218.260440482347,15745.0
19218.260502979585,16358.0
19218.260565476823,14990.0
19218.260627974058,13369.0
19218.260690471296,12335.0
19218.260752968534,10517.0
19218.260815465772,8149.0
19218.260877963006,5896.0
19218.260940460244,3956.0
19218.261002957483,1816.0
19218.261065454717,569.0
19218.261127951955,690.0
19218.261190449193,430.0
19218.26125294643,-279.0
19218.261315443666,-1115.0
19218.261377940904,-1799.0
19218.261440438142,-1624.0
19218.26150293538,-596.0
19218.261565432615,1096.0
19218.261627929853,3398.0
19218.26169042709,6010.0
19218.26175292433,8429.0
19218.261815421563,11043.0
19218.2618779188,13989.0
19218.26194041604,15944.0
19218.262002913278,16797.0
19218.262065410512,16661.0
19218.26212790775,15268.0
19218.26219040499,13712.0
19218.262252902226,12308.0
19218.26231539946,11133.0
19218.2623778967,10305.0
19218.262440393937,9358.0
19218.26250289117,7649.0
19218.26256538841,6283.0
19218.262627885648,5699.0
19218.262690382886,4479.0
19218.262752880124,3213.0
19218.26281537736,2224.0
19218.262877874597,806.0
19218.262940371835,-892.0
19218.26300286907,-2121.0
19218.263065366307,-2666.0
19218.263127863545,-3361.0
19218.263190360783,-4454.0
19218.263252858018,-5967.0
19218.263315355256,-7588.0
19218.263377852494,-9527.0
19218.263440349732,-11272.0
19218.263502846967,-12189.0
19218.263565344205,-13527.0
19218.263627841443,-14957.0
19218.26369033868,-15961.0
19218.263752835916,-17338.0
19218.263815333154,-18512.0
19218.26387783039,-19252.0
19218.26394032763,-20429.0
19218.264002824864,-21908.0
19218.264065322102,-22961.0
19218.26412781934,-24635.0
19218.26419031658,-26661.0
19218.264252813813,-27486.0
19218.26431531105,-28462.0
19218.26437780829,-30019.0
19218.264440305524,-29675.0
19218.264502802762,-23935.0
19218.2645653,-14515.0
19218.264627797238,-6303.0
19218.264690294476,3635.0
19218.26475279171,13609.0
19218.26481528895,17467.0
19218.264877786187,19405.0
19218.26494028342,21854.0
19218.26500278066,21235.0
19218.265065277898,17344.0
19218.265127775136,13958.0
19218.26519027237,10384.0
19218.26525276961,5114.0
19218.265315266846,2432.0
19218.265377764084,2279.0
19218.26544026132,1965.0
19218.265502758557,715.0
19218.265565255795,-1186.0
19218.265627753033,-2975.0
19218.265690250268,-5976.0
19218.265752747506,-7734.0
19218.265815244744,-6996.0
19218.265877741982,-6170.0
19218.265940239216,-4972.0
19218.266002736455,-2969.0
19218.266065233693,186.0
19218.26612773093,3861.0
19218.266190228165,8044.0
19218.266252725403,12316.0
19218.26631522264,15077.0
19218.266377719876,16288.0
19218.266440217114,15676.0
19218.266502714352,14291.0
19218.26656521159,12725.0
19218.266627708825,11025.0
19218.266690206063,9371.0
19218.2667527033,7001.0
19218.26681520054,4857.0
19218.266877697773,3024.0
19218.26694019501,1384.0
19218.26700269225,980.0
19218.267065189488,989.0
19218.267127686722,204.0
19218.26719018396,-978.0
19218.2672526812,-1855.0
19218.267315178437,-2391.0
19218.26737767567,-2187.0
19218.26744017291,-286.0
19218.267502670147,2647.0
19218.267565167385,5413.0
19218.26762766462,8014.0
19218.267690161858,11035.0
19218.267752659096,13511.0
19218.267815156334,15126.0
19218.26787765357,17128.0
19218.267940150807,16967.0
19218.268002648045,15061.0
19218.268065145283,14105.0
19218.268127642517,12560.0
19218.268190139755,10156.0
19218.268252636994,9598.0
19218.268315134228,9290.0
19218.268377631466,7195.0
19218.268440128704,5850.0
19218.268502625942,5438.0
19218.268565123177,4091.0
19218.268627620415,2652.0
19218.268690117653,2076.0
19218.26875261489,1062.0
19218.268815112126,-1162.0
19218.268877609364,-2683.0
19218.2689401066,-3521.0
19218.26900260384,-5100.0
19218.269065101074,-6438.0
19218.269127598312,-7123.0
19218.26919009555,-9014.0
19218.26925259279,-11177.0
19218.269315090023,-11653.0
19218.26937758726,-12901.0
19218.2694400845,-14534.0
19218.269502581737,-14443.0
19218.269565078972,-15578.0
19218.26962757621,-17799.0
19218.269690073448,-18477.0
19218.269752570683,-19409.0
19218.26981506792,-21605.0
19218.26987756516,-22959.0
19218.269940062397,-23594.0
19218.270002559635,-25479.0
19218.27006505687,-26942.0
19218.270127554108,-27391.0
19218.270190051346,-28331.0
19218.27025254858,-29727.0
19218.27031504582,-27636.0
19218.270377543056,-19424.0
19218.270440040294,-10799.0
19218.27050253753,-2655.0
19218.270565034767,8488.0
19218.270627532005,16432.0
19218.270690029243,18622.0
19218.270752526478,21399.0
19218.270815023716,22992.0
19218.270877520954,20186.0
19218.270940018192,15704.0
19218.271002515427,12024.0
19218.271065012665,7410.0
19218.271127509903,2397.0
19218.27119000714,451.0
19218.271252504375,640.0
19218.271315001613,139.0
19218.27137749885,-1478.0
19218.27143999609,-2603.0
19218.271502493324,-3875.0
19218.271564990562,-6448.0
19218.2716274878,-7048.0
19218.271689985035,-5987.0
19218.271752482273,-5329.0
19218.27181497951,-4261.0
19218.27187747675,-2069.0
19218.271939973984,1442.0
19218.27200247122,5424.0
19218.27206496846,9475.0
19218.272127465698,13603.0
19218.272189962932,16164.0
19218.27225246017,16524.0
19218.27231495741,15475.0
19218.272377454647,14129.0
19218.27243995188,12458.0
19218.27250244912,10299.0
19218.272564946357,7932.0
19218.272627443595,5290.0
19218.27268994083,3321.0
19218.272752438068,1810.0
19218.272814935306,729.0
19218.272877432544,784.0
19218.27293992978,597.0
19218.273002427017,-366.0
19218.273064924255,-1290.0
19218.273127421493,-2094.0
19218.273189918727,-2179.0
19218.273252415966,-1181.0
19218.273314913204,540.0
19218.27337741044,3120.0
19218.273439907676,5656.0
19218.273502404914,7516.0
19218.273564902152,10046.0
19218.273627399387,12448.0
19218.273689896625,13900.0
19218.273752393863,15028.0
19218.2738148911,15268.0
19218.273877388336,14381.0
19218.273939885574,12997.0
19218.274002382812,12440.0
19218.27406488005,11597.0
19218.274127377284,10481.0
19218.274189874523,9706.0
19218.27425237176,8705.0
19218.274314869,7042.0
19218.274377366233,5675.0
19218.27443986347,5116.0
19218.27450236071,3800.0
19218.274564857948,2362.0
19218.274627355182,1662.0
19218.27468985242,61.0
19218.27475234966,-1970.0
19218.274814846896,-3029.0
19218.27487734413,-3692.0
19218.27493984137,-5421.0
19218.275002338607,-7392.0
19218.27506483584,-8533.0
19218.27512733308,-10203.0
19218.275189830318,-11997.0
19218.275252327556,-12509.0
19218.275314824794,-13264.0
19218.27537732203,-14456.0
19218.275439819266,-15232.0
19218.275502316505,-16157.0
19218.27556481374,-17287.0
19218.275627310977,-18106.0
19218.275689808215,-19268.0
19218.275752305453,-20671.0
19218.275814802688,-22190.0
19218.275877299926,-23680.0
19218.275939797164,-25026.0
19218.276002294402,-26154.0
19218.276064791637,-26907.0
19218.276127288875,-28699.0
19218.276189786113,-30152.0
19218.27625228335,-26923.0
19218.276314780585,-18373.0
19218.276377277823,-10170.0
19218.27643977506,-1026.0
19218.2765022723,11001.0
19218.276564769534,16995.0
19218.276627266772,19140.0
19218.27668976401,22545.0
19218.27675226125,22641.0
19218.276814758483,18756.0
19218.27687725572,14771.0
19218.27693975296,11181.0
19218.277002250194,5571.0
19218.27706474743,1707.0
19218.27712724467,1529.0
19218.277189741908,1635.0
19218.277252239142,1098.0
19218.27731473638,-42.0
19218.27737723362,-974.0
19218.277439730857,-3345.0
19218.27750222809,-6170.0
19218.27756472533,-6011.0
19218.277627222567,-5718.0
19218.277689719805,-5773.0
19218.27775221704,-4505.0
19218.277814714278,-2045.0
19218.277877211516,1565.0
19218.277939708754,5683.0
19218.27800220599,10466.0
19218.278064703227,14384.0
19218.278127200465,16371.0
19218.278189697703,16502.0
19218.278252194938,15258.0
19218.278314692176,13850.0
19218.278377189414,11812.0
19218.278439686652,9527.0
19218.278502183886,6918.0
19218.278564681124,4549.0
19218.278627178363,2977.0
19218.2786896756,1440.0
19218.278752172835,1183.0
19218.278814670073,1667.0
19218.27887716731,1396.0
19218.278939664546,597.0
19218.279002161784,-468.0
19218.279064659022,-1133.0
19218.27912715626,-1543.0
19218.279189653495,-1056.0
19218.279252150733,745.0
19218.27931464797,3135.0
19218.27937714521,5592.0
19218.279439642443,7802.0
19218.27950213968,11461.0
19218.27956463692,14392.0
19218.279627134158,16113.0
19218.279689631392,17824.0
19218.27975212863,17785.0
19218.27981462587,15787.0
19218.279877123106,13798.0
19218.27993962034,12703.0
19218.28000211758,10305.0
19218.280064614817,8546.0
19218.280127112055,8016.0
19218.28018960929,6290.0
19218.280252106528,4604.0
19218.280314603766,4447.0
19218.280377101,4179.0
19218.28043959824,2720.0
19218.280502095477,2072.0
19218.280564592715,1399.0
19218.280627089953,-1064.0
19218.280689587187,-3046.0
19218.280752084425,-3606.0
19218.280814581663,-4793.0
19218.280877078898,-7022.0
19218.280939576136,-8044.0
19218.281002073374,-8840.0
19218.281064570612,-10933.0
19218.281127067847,-12114.0
19218.281189565085,-12308.0
19218.281252062323,-13721.0
19218.28131455956,-15462.0
19218.281377056795,-16625.0
19218.281439554034,-18067.0
19218.28150205127,-20088.0
19218.28156454851,-21296.0
19218.281627045744,-22163.0
19218.281689542982,-23387.0
19218.28175204022,-24430.0
19218.28181453746,-25364.0
19218.281877034693,-26050.0
19218.28193953193,-27296.0
19218.28200202917,-28898.0
19218.282064526407,-29666.0
19218.28212702364,-25947.0
19218.28218952088,-17432.0
19218.282252018118,-8966.0
19218.282314515352,1193.0
19218.28237701259,12206.0
19218.28243950983,17514.0
19218.282502007067,20377.0
19218.2825645043,23251.0
19218.28262700154,22891.0
19218.282689498777,19404.0
19218.282751996016,15831.0
19218.28281449325,11511.0
19218.282876990488,5520.0
19218.282939487726,1840.0
19218.283001984964,1052.0
19218.2830644822,582.0
19218.283126979437,-261.0
19218.283189476675,-1324.0
19218.283251973913,-2607.0
19218.283314471148,-5415.0
19218.283376968386,-7014.0
19218.283439465624,-6146.0
19218.283501962862,-5668.0
19218.283564460096,-4712.0
19218.283626957334,-2848.0
19218.283689454573,-638.0
19218.28375195181,2637.0
19218.283814449045,6672.0
19218.283876946283,10948.0
19218.28393944352,14381.0
19218.28400194076,16125.0
19218.284064437994,16130.0
19218.284126935232,14945.0
19218.28418943247,13603.0
19218.284251929705,12147.0
19218.284314426943,10133.0
19218.28437692418,7614.0
19218.28443942142,5165.0
19218.284501918653,2860.0
19218.28456441589,970.0
19218.28462691313,198.0
19218.284689410368,-77.0
19218.284751907602,-550.0
19218.28481440484,-852.0
19218.28487690208,-1506.0
19218.284939399316,-1975.0
19218.28500189655,-1330.0
19218.28506439379,-54.0
19218.285126891027,2310.0
19218.285189388265,5233.0
19218.2852518855,7488.0
19218.285314382738,9886.0
19218.285376879976,12225.0
19218.285439377214,14086.0
19218.28550187445,15920.0
19218.285564371687,16219.0
19218.285626868925,15392.0
19218.28568936616,14781.0
19218.285751863397,13663.0
19218.285814360635,11462.0
19218.285876857874,10702.0
19218.28593935511,10270.0
19218.286001852346,7631.0
19218.286064349584,6178.0
19218.286126846822,5775.0
19218.286189344057,4028.0
19218.286251841295,2512.0
19218.286314338533,2694.0
19218.28637683577,2133.0
19218.286439333006,48.0
19218.286501830244,-788.0
19218.28656432748,-1252.0
19218.28662682472,-2870.0
19218.286689321954,-4333.0
19218.286751819192,-5054.0
19218.28681431643,-6773.0
19218.28687681367,-9567.0
19218.286939310903,-10847.0
19218.28700180814,-11555.0
19218.28706430538,-13578.0
19218.287126802617,-14877.0
19218.287189299852,-15267.0
19218.28725179709,-17112.0
19218.287314294328,-18903.0
19218.287376791566,-19077.0
19218.2874392888,-19934.0
19218.28750178604,-21816.0
19218.287564283277,-22741.0
19218.28762678051,-23648.0
19218.28768927775,-25596.0
19218.287751774988,-26983.0
19218.287814272226,-27125.0
19218.287876769464,-27921.0
19218.2879392667,-29292.0
19218.288001763936,-26033.0
19218.288064261174,-17330.0
19218.28812675841,-8983.0
19218.288189255647,-351.0
19218.288251752885,10676.0
19218.288314250123,17147.0
19218.288376747358,18616.0
19218.288439244596,20894.0
19218.288501741834,21728.0
19218.288564239072,18349.0
19218.288626736306,14186.0
19218.288689233545,11313.0
19218.288751730783,6918.0
19218.28881422802,2426.0
19218.288876725255,1441.0
19218.288939222493,1950.0
19218.28900171973,681.0
19218.28906421697,-1078.0
19218.289126714204,-2059.0
19218.289189211442,-4458.0
19218.28925170868,-7245.0
19218.28931420592,-7221.0
19218.289376703153,-6013.0
19218.28943920039,-5120.0
19218.28950169763,-3509.0
19218.289564194863,-763.0
19218.2896266921,2653.0
19218.28968918934,6484.0
19218.289751686578,10502.0
19218.289814183812,14024.0
19218.28987668105,15947.0
19218.28993917829,15741.0
19218.290001675527,14428.0
19218.29006417276,12918.0
19218.29012667,11185.0
19218.290189167237,9545.0
19218.290251664475,7365.0
19218.29031416171,5360.0
19218.290376658948,3810.0
19218.290439156186,2043.0
19218.290501653424,1232.0
19218.29056415066,1174.0
19218.290626647897,582.0
19218.290689145135,-748.0
19218.290751642373,-1543.0
19218.290814139607,-1783.0
19218.290876636845,-2249.0
19218.290939134084,-1376.0
19218.29100163132,735.0
19218.291064128556,2840.0
19218.291126625794,4916.0
19218.291189123032,7515.0
19218.29125162027,10747.0
19218.291314117505,13557.0
19218.291376614743,15583.0
19218.29143911198,16468.0
19218.291501609216,16402.0
19218.291564106454,15029.0
19218.291626603692,13104.0
19218.29168910093,12565.0
19218.291751598164,11747.0
19218.291814095403,10429.0
19218.29187659264,9579.0
19218.29193908988,8259.0
19218.292001587113,6664.0
19218.29206408435,5817.0
19218.29212658159,5391.0
19218.292189078828,4104.0
19218.292251576062,2530.0
19218.2923140733,1042.0
19218.29237657054,-714.0
19218.292439067776,-2276.0
19218.29250156501,-3237.0
19218.29256406225,-3602.0
19218.292626559487,-4540.0
19218.292689056725,-6288.0
19218.29275155396,-7852.0
19218.292814051198,-9241.0
19218.292876548436,-10616.0
19218.29293904567,-11621.0
19218.29300154291,-12597.0
19218.293064040146,-14181.0
19218.293126537385,-15997.0
19218.293189034623,-17231.0
19218.293251531857,-18172.0
19218.293314029095,-19027.0
19218.293376526333,-19808.0
19218.293439023568,-20962.0
19218.293501520806,-22541.0
19218.293564018044,-23929.0
19218.293626515282,-25440.0
19218.293689012517,-26674.0
19218.293751509755,-27498.0
19218.293814006993,-28954.0
19218.29387650423,-30322.0
19218.293939001465,-27494.0
19218.294001498703,-18733.0
19218.29406399594,-9482.0
19218.29412649318,-731.0
19218.294188990414,10092.0
19218.294251487652,16827.0
19218.29431398489,18127.0
19218.29437648213,20582.0
19218.294438979363,22517.0
19218.2945014766,19610.0
19218.29456397384,15199.0
19218.294626471077,12526.0
19218.29468896831,7704.0
19218.29475146555,2788.0
19218.294813962788,2401.0
19218.294876460022,3019.0
19218.29493895726,1781.0
19218.2950014545,-510.0
19218.295063951737,-2095.0
19218.29512644897,-4685.0
19218.29518894621,-7784.0
19218.295251443447,-7367.0
19218.295313940685,-6009.0
19218.29537643792,-5546.0
19218.295438935158,-4450.0
19218.295501432396,-1850.0
19218.295563929634,1714.0
19218.29562642687,5624.0
19218.295688924107,10394.0
19218.295751421345,14112.0
19218.295813918583,15708.0
19218.295876415817,15507.0
19218.295938913056,14209.0
19218.296001410294,13183.0
19218.29606390753,11860.0
19218.296126404766,10198.0
19218.296188902004,7950.0
19218.296251399242,5307.0
19218.29631389648,3582.0
19218.296376393715,2006.0
19218.296438890953,1265.0
19218.29650138819,1526.0
19218.29656388543,946.0
19218.296626382664,-503.0
19218.296688879902,-1593.0
19218.29675137714,-1998.0
19218.296813874374,-2015.0
19218.296876371613,-476.0
19218.29693886885,2187.0
19218.29700136609,4077.0
19218.297063863323,6247.0
19218.29712636056,9004.0
19218.2971888578,11510.0
19218.297251355038,13746.0
19218.297313852272,15567.0
19218.29737634951,16389.0
19218.29743884675,15362.0
19218.297501343986,14125.0
19218.29756384122,13657.0
19218.29762633846,12464.0
19218.297688835697,11018.0
19218.297751332935,10656.0
19218.29781383017,9278.0
19218.297876327408,6500.0
19218.297938824646,5460.0
19218.298001321884,5203.0
19218.29806381912,3713.0
19218.298126316357,2580.0
19218.298188813595,2271.0
19218.29825131083,696.0
19218.298313808067,-1407.0
19218.298376305305,-2061.0
19218.298438802543,-2605.0
19218.29850129978,-4075.0
19218.298563797016,-5907.0
19218.298626294254,-7532.0
19218.298688791492,-9432.0
19218.298751288727,-11532.0
19218.298813785965,-12237.0
19218.298876283203,-12604.0
19218.29893878044,-14036.0
19218.299001277675,-15115.0
19218.299063774914,-16033.0
19218.29912627215,-17731.0
19218.29918876939,-18733.0
19218.299251266624,-19065.0
19218.299313763862,-20353.0
19218.2993762611,-21989.0
19218.29943875834,-23253.0
19218.299501255573,-24978.0
19218.29956375281,-26666.0
19218.29962625005,-27508.0
19218.299688747287,-28488.0
19218.29975124452,-29884.0
19218.29981374176,-28236.0
19218.299876238998,-21426.0
19218.299938736236,-12794.0
19218.30000123347,-4196.0
19218.30006373071,6367.0
19218.300126227947,15076.0
19218.30018872518,18242.0
19218.30025122242,21166.0
19218.300313719657,23319.0
19218.300376216896,21124.0
19218.30043871413,17356.0
19218.300501211368,13940.0
19218.300563708606,9221.0
19218.300626205844,4286.0
19218.30068870308,2359.0
19218.300751200317,2172.0
19218.300813697555,1105.0
19218.300876194793,-534.0
19218.300938692028,-2106.0
19218.301001189266,-4372.0
19218.301063686504,-7138.0
19218.301126183742,-7732.0
19218.301188680976,-7117.0
19218.301251178214,-6865.0
19218.301313675453,-5481.0
19218.30137617269,-3045.0
19218.301438669925,61.0
19218.301501167163,4321.0
19218.3015636644,9075.0
19218.30162616164,13007.0
19218.301688658874,15511.0
19218.301751156112,16410.0
19218.30181365335,15692.0
19218.30187615059,14717.0
19218.301938647823,13399.0
19218.30200114506,11334.0
19218.3020636423,9037.0
19218.302126139533,6186.0
19218.30218863677,3767.0
19218.30225113401,2010.0
19218.302313631248,823.0
19218.302376128482,647.0
19218.30243862572,290.0
19218.30250112296,-669.0
19218.302563620196,-1786.0
19218.30262611743,-2372.0
19218.30268861467,-2609.0
19218.302751111907,-2092.0
19218.302813609145,-357.0
19218.30287610638,1336.0
19218.302938603618,3273.0
19218.303001100856,5916.0
19218.303063598094,9203.0
19218.30312609533,12418.0
19218.303188592567,14939.0
19218.303251089805,16656.0
19218.303313587043,16537.0
19218.303376084277,15321.0
19218.303438581515,14185.0
19218.303501078753,13089.0
19218.303563575988,12093.0
19218.303626073226,11397.0
19218.303688570464,10115.0
19218.303751067702,8264.0
19218.30381356494,6977.0
19218.303876062175,5954.0
19218.303938559413,4953.0
19218.30400105665,3828.0
19218.304063553885,2549.0
19218.304126051124,873.0
19218.30418854836,-999.0
19218.3042510456,-2114.0
19218.304313542834,-2695.0
19218.304376040072,-3216.0
19218.30443853731,-3831.0
19218.30450103455,-4924.0
19218.304563531783,-6789.0
19218.30462602902,-8532.0
19218.30468852626,-9614.0
19218.304751023497,-10711.0
19218.304813520732,-12028.0
19218.30487601797,-13248.0
19218.304938515208,-14814.0
19218.305001012446,-16861.0
19218.30506350968,-18010.0
19218.30512600692,-18598.0
19218.305188504157,-19840.0
19218.305251001395,-21146.0
19218.30531349863,-22115.0
19218.305375995868,-23689.0
19218.305438493106,-25393.0
19218.30550099034,-25758.0
19218.30556348758,-26336.0
19218.305625984816,-28080.0
19218.305688482054,-29437.0
19218.30575097929,-28870.0
19218.305813476527,-23117.0
19218.305875973765,-14024.0
19218.305938471003,-5400.0
19218.306000968238,5334.0
19218.306063465476,14603.0
19218.306125962714,18024.0
19218.306188459952,20696.0
19218.306250957186,22892.0
19218.306313454425,21526.0
19218.306375951663,17622.0
19218.3064384489,13902.0
19218.306500946135,9418.0
19218.306563443373,4167.0
19218.30662594061,1853.0
19218.30668843785,1765.0
19218.306750935084,1745.0
19218.306813432322,116.0
19218.30687592956,-1751.0
19218.3069384268,-3296.0
19218.307000924033,-6313.0
19218.30706342127,-7276.0
19218.30712591851,-6142.0
19218.307188415747,-5570.0
19218.30725091298,-4886.0
19218.30731341022,-3376.0
19218.307375907458,-279.0
19218.307438404692,3590.0
19218.30750090193,7934.0
19218.30756339917,12425.0
19218.307625896407,15265.0
19218.30768839364,16130.0
19218.30775089088,15263.0
19218.307813388117,14177.0
19218.307875885355,12923.0
19218.30793838259,10981.0
19218.308000879828,8560.0
19218.308063377066,5612.0
19218.308125874304,3462.0
19218.30818837154,1608.0
19218.308250868777,626.0
19218.308313366015,900.0
19218.308375863253,656.0
19218.308438360487,-54.0
19218.308500857725,-1181.0
19218.308563354964,-2048.0
19218.3086258522,-2468.0
19218.308688349436,-2002.0
19218.308750846674,-556.0
19218.308813343912,1152.0
19218.308875841147,3806.0
19218.308938338385,5983.0
19218.309000835623,8242.0
19218.30906333286,12197.0
19218.3091258301,15015.0
19218.309188327334,16007.0
19218.30925082457,16744.0
19218.30931332181,16448.0
19218.309375819044,14325.0
19218.309438316282,12705.0
19218.30950081352,12420.0
19218.30956331076,10829.0
19218.309625807993,9179.0
19218.30968830523,8263.0
19218.30975080247,6830.0
19218.309813299707,5136.0
19218.309875796942,4175.0
19218.30993829418,3839.0
19218.310000791418,2305.0
19218.310063288656,694.0
19218.31012578589,-188.0
19218.31018828313,-1699.0
19218.310250780367,-3055.0
19218.310313277605,-3220.0
19218.31037577484,-3526.0
19218.310438272078,-5364.0
19218.310500769316,-6982.0
19218.310563266554,-8116.0
19218.31062576379,-10023.0
19218.310688261026,-11481.0
19218.310750758264,-12183.0
19218.3108132555,-13547.0
19218.310875752737,-15370.0
19218.310938249975,-16768.0
19218.311000747213,-17910.0
19218.31106324445,-18983.0
19218.311125741686,-19611.0
19218.311188238924,-20078.0
19218.311250736162,-21261.0
19218.311313233397,-22697.0
19218.311375730635,-24061.0
19218.311438227873,-25215.0
19218.31150072511,-26560.0
19218.311563222345,-28327.0
19218.311625719583,-30188.0
19218.31168821682,-29803.0
19218.31175071406,-23388.0
19218.311813211294,-14697.0
19218.311875708532,-6263.0
19218.31193820577,5486.0
19218.31200070301,14922.0
19218.312063200243,18349.0
19218.31212569748,21617.0
19218.31218819472,23519.0
19218.312250691957,21067.0
19218.31231318919,16424.0
19218.31237568643,12648.0
19218.312438183668,8103.0
19218.312500680906,2721.0
19218.31256317814,1070.0
19218.31262567538,1899.0
19218.312688172617,1871.0
19218.31275066985,702.0
19218.31281316709,-264.0
19218.312875664327,-1650.0
19218.312938161565,-5109.0
19218.3130006588,-6466.0
19218.313063156038,-5971.0
19218.313125653276,-6251.0
19218.313188150514,-5796.0
19218.31325064775,-4011.0
19218.313313144987,-440.0
19218.313375642225,3514.0
19218.313438139463,7720.0
19218.313500636697,12588.0
19218.313563133936,15295.0
19218.313625631174,15898.0
19218.31368812841,15292.0
19218.313750625646,14177.0
19218.313813122884,12623.0
19218.313875620122,10267.0
19218.31393811736,7855.0
19218.314000614595,5339.0
19218.314063111833,3540.0
19218.31412560907,2063.0
19218.31418810631,1118.0
19218.314250603544,1408.0
19218.314313100782,1120.0
19218.31437559802,-71.0
19218.314438095258,-1286.0
19218.314500592493,-1860.0
19218.31456308973,-2375.0
19218.31462558697,-1994.0
19218.314688084203,-249.0
19218.31475058144,1324.0
19218.31481307868,3674.0
19218.314875575918,6409.0
19218.314938073152,9182.0
19218.31500057039,12348.0
19218.31506306763,14454.0
19218.315125564866,15139.0
19218.3151880621,15248.0
19218.31525055934,14186.0
19218.315313056577,11910.0
19218.315375553815,10666.0
19218.31543805105,9945.0
19218.315500548288,8497.0
19218.315563045526,8195.0
19218.315625542764,7953.0
19218.31568804,7061.0
19218.315750537236,6830.0
19218.315813034475,6524.0
19218.315875531713,5606.0
19218.315938028947,4108.0
19218.316000526185,2653.0
19218.316063023423,997.0
19218.316125520658,-951.0
19218.316188017896,-2072.0
19218.316250515134,-2797.0
19218.316313012372,-3994.0
19218.31637550961,-5548.0
19218.316438006845,-6620.0
19218.316500504083,-8231.0
19218.31656300132,-10259.0
19218.316625498555,-11361.0
19218.316687995793,-12672.0
19218.31675049303,-14484.0
19218.31681299027,-15841.0
19218.316875487504,-16890.0
19218.316937984742,-17908.0
19218.31700048198,-18619.0
19218.31706297922,-19068.0
19218.317125476453,-19734.0
19218.31718797369,-20574.0
19218.31725047093,-21505.0
19218.317312968167,-22559.0
19218.3173754654,-23196.0
19218.31743796264,-24028.0
19218.317500459878,-25761.0
19218.317562957116,-27437.0
19218.31762545435,-27874.0
19218.31768795159,-24387.0
19218.317750448827,-16436.0
19218.317812946065,-8211.0
19218.3178754433,445.0
19218.317937940537,9419.0
19218.318000437775,14325.0
19218.31806293501,16904.0
19218.318125432248,19541.0
19218.318187929486,20059.0
19218.318250426724,17248.0
19218.31831292396,13497.0
19218.318375421197,9933.0
19218.318437918435,5371.0
19218.318500415673,2824.0
19218.318562912908,2839.0
19218.318625410146,3174.0
19218.318687907384,2207.0
19218.318750404622,200.0
19218.318812901856,-1232.0
19218.318875399094,-3551.0
19218.318937896332,-5469.0
19218.31900039357,-5260.0
19218.319062890805,-4945.0
19218.319125388043,-5061.0
19218.31918788528,-4690.0
19218.31925038252,-2132.0
19218.319312879754,1656.0
19218.319375376992,5592.0
19218.31943787423,10097.0
19218.319500371468,13451.0
19218.319562868703,14855.0
19218.31962536594,14616.0
19218.31968786318,13972.0
19218.319750360417,13161.0
19218.31981285765,11108.0
19218.31987535489,8777.0
19218.319937852128,6171.0
19218.320000349362,3655.0
19218.3200628466,1949.0
19218.32012534384,1112.0
19218.320187841076,1240.0
19218.32025033831,1236.0
19218.32031283555,917.0
19218.320375332787,87.0
19218.320437830025,-1041.0
19218.32050032726,-1516.0
19218.320562824498,-1746.0
19218.320625321736,-1310.0
19218.320687818974,306.0
19218.32075031621,2193.0
19218.320812813447,4345.0
19218.320875310685,7160.0
19218.320937807923,10493.0
19218.321000305157,13504.0
19218.321062802395,15420.0
19218.321125299633,16290.0
19218.32118779687,16044.0
19218.321250294106,14830.0
19218.321312791344,13212.0
19218.321375288582,12218.0
19218.321437785817,11163.0
19218.321500283055,9268.0
19218.321562780293,8083.0
19218.32162527753,6907.0
19218.32168777477,5602.0
19218.321750272004,5100.0
19218.32181276924,4389.0
19218.32187526648,3252.0
19218.321937763714,2156.0
19218.322000260952,669.0
19218.32206275819,-1078.0
19218.32212525543,-2273.0
19218.322187752663,-3125.0
19218.3222502499,-4222.0
19218.32231274714,-5562.0
19218.322375244377,-7091.0
19218.32243774161,-8483.0
19218.32250023885,-9764.0
19218.322562736088,-10941.0
19218.322625233326,-11815.0
19218.32268773056,-13034.0
19218.3227502278,-14943.0
19218.322812725037,-16444.0
19218.322875222275,-17709.0
19218.32293771951,-19196.0
19218.323000216747,-19934.0
19218.323062713986,-20545.0
19218.323125211224,-21800.0
19218.323187708458,-22912.0
19218.323250205696,-23957.0
19218.323312702934,-24614.0
19218.32337520017,-25648.0
19218.323437697407,-26567.0
19218.323500194645,-27538.0
19218.323562691883,-28308.0
19218.323625189118,-23919.0
19218.323687686356,-15130.0
19218.323750183594,-7077.0
19218.323812680832,1537.0
19218.323875178066,11402.0
19218.323937675304,16488.0
19218.324000172543,18086.0
19218.32406266978,21053.0
19218.324125167015,21375.0
19218.324187664253,17391.0
19218.32425016149,13652.0
19218.32431265873,10219.0
19218.324375155964,5433.0
19218.324437653202,2040.0
19218.32450015044,1938.0
19218.32456264768,2270.0
19218.324625144913,520.0
19218.32468764215,-1255.0
19218.32475013939,-2523.0
19218.324812636627,-5001.0
19218.32487513386,-6764.0
19218.3249376311,-6356.0
19218.325000128338,-5753.0
19218.325062625576,-5371.0
19218.32512512281,-3864.0
19218.32518762005,-976.0
19218.325250117286,2886.0
19218.32531261452,7259.0
19218.32537511176,11298.0
19218.325437608997,14246.0
19218.325500106235,15513.0
19218.32556260347,15092.0
19218.325625100708,14105.0
19218.325687597946,12900.0
19218.325750095184,10949.0
19218.32581259242,8610.0
19218.325875089657,6059.0
19218.325937586895,3752.0
19218.326000084133,2170.0
19218.326062581367,1080.0
19218.326125078605,560.0
19218.326187575844,546.0
19218.32625007308,-10.0
19218.326312570316,-1385.0
19218.326375067554,-2153.0
19218.326437564792,-2440.0
19218.32650006203,-2878.0
19218.326562559265,-2103.0
19218.326625056503,102.0
19218.32668755374,2079.0
19218.326750050976,4314.0
19218.326812548214,8266.0
19218.32687504545,11821.0
19218.32693754269,13892.0
19218.327000039928,15975.0
19218.327062537162,16599.0
19218.3271250344,15411.0
19218.32718753164,14403.0
19218.327250028873,13660.0
19218.32731252611,12408.0
19218.32737502335,10687.0
19218.327437520587,9848.0
19218.327500017822,8457.0
19218.32756251506,6444.0
19218.327625012298,5775.0
19218.327687509536,5381.0
19218.32775000677,3971.0
19218.32781250401,2318.0
19218.327875001247,1692.0
19218.327937498485,112.0
19218.32799999572,-1611.0
19218.328062492958,-1588.0
19218.328124990196,-1817.0
19218.328187487434,-2890.0
19218.32824998467,-4198.0
19218.328312481906,-5473.0
19218.328374979144,-7336.0
19218.328437476383,-9244.0
19218.328499973617,-10297.0
19218.328562470855,-11697.0
19218.328624968093,-13725.0
19218.328687465328,-15633.0
19218.328749962566,-17318.0
19218.328812459804,-18771.0
19218.328874957042,-19522.0
19218.328937454276,-20353.0
19218.328999951515,-21415.0
19218.329062448753,-22182.0
19218.32912494599,-23160.0
19218.329187443225,-23895.0
19218.329249940463,-24225.0
19218.3293124377,-24626.0
19218.32937493494,-25080.0
19218.329437432174,-26046.0
19218.329499929412,-26704.0
19218.32956242665,-22322.0
19218.32962492389,-14315.0
19218.329687421123,-7258.0
19218.32974991836,1307.0
19218.3298124156,10017.0
19218.329874912837,14075.0
19218.32993741007,16154.0
19218.32999990731,18441.0
19218.330062404548,18519.0
19218.330124901786,15610.0
19218.33018739902,12070.0
19218.33024989626,9130.0
19218.330312393497,4909.0
19218.330374890735,1883.0
19218.33043738797,2167.0
19218.330499885207,2365.0
19218.330562382445,913.0
19218.33062487968,-507.0
19218.330687376918,-1636.0
19218.330749874156,-3917.0
19218.330812371394,-5342.0
19218.33087486863,-4815.0
19218.330937365867,-4340.0
19218.330999863105,-3927.0
19218.331062360343,-2981.0
19218.331124857577,-375.0
19218.331187354815,3154.0
19218.331249852054,6776.0
19218.33131234929,10654.0
19218.331374846526,13214.0
19218.331437343764,14354.0
19218.331499841002,14343.0
19218.33156233824,13143.0
19218.331624835475,11844.0
19218.331687332713,10388.0
19218.33174982995,8267.0
19218.33181232719,5545.0
19218.331874824424,3471.0
19218.331937321662,2398.0
19218.3319998189,1399.0
19218.332062316134,1201.0
19218.332124813373,1329.0
19218.33218731061,570.0
19218.33224980785,-833.0
19218.332312305087,-1495.0
19218.33237480232,-1500.0
19218.33243729956,-1756.0
19218.332499796797,-947.0
19218.332562294032,450.0
19218.33262479127,2066.0
19218.332687288508,4649.0
19218.332749785746,7573.0
19218.33281228298,10578.0
19218.33287478022,13307.0
19218.332937277457,15103.0
19218.332999774695,15697.0
19218.33306227193,15642.0
19218.333124769168,15589.0
19218.333187266406,14811.0
19218.333249763644,13190.0
19218.33331226088,11775.0
19218.333374758116,10348.0
19218.333437255355,8313.0
19218.333499752593,6574.0
19218.333562249827,6285.0
19218.333624747065,5160.0
19218.333687244303,3199.0
19218.33374974154,2386.0
19218.333812238776,1433.0
19218.333874736014,-387.0
19218.333937233252,-1438.0
19218.333999730487,-1512.0
19218.334062227725,-2592.0
19218.334124724963,-4289.0
19218.3341872222,-5370.0
19218.33424971944,-6700.0
19218.334312216673,-8440.0
19218.33437471391,-9480.0
19218.33443721115,-10290.0
19218.334499708384,-12122.0
19218.334562205622,-13671.0
19218.33462470286,-15026.0
19218.3346872001,-16701.0
19218.334749697333,-17682.0
19218.33481219457,-18306.0
19218.33487469181,-19554.0
19218.334937189047,-21029.0
19218.33499968628,-21617.0
19218.33506218352,-22542.0
19218.335124680758,-23754.0
19218.335187177996,-23957.0
19218.33524967523,-24245.0
19218.33531217247,-26146.0
19218.335374669707,-28247.0
19218.335437166945,-28827.0
19218.33549966418,-25808.0
19218.335562161417,-18268.0
19218.335624658655,-9855.0
19218.335687155894,-771.0
19218.335749653128,8871.0
19218.335812150366,13945.0
19218.335874647604,17130.0
19218.33593714484,20694.0
19218.335999642077,21176.0
19218.336062139315,18876.0
19218.336124636553,15554.0
19218.336187133787,11859.0
19218.336249631026,6830.0
19218.336312128264,3641.0
19218.3363746255,3327.0
19218.336437122736,3049.0
19218.336499619974,1798.0
19218.336562117212,-460.0
19218.33662461445,-2214.0
19218.336687111685,-4933.0
19218.336749608923,-7224.0
19218.33681210616,-6692.0
19218.3368746034,-6392.0
19218.336937100634,-6225.0
19218.336999597872,-5146.0
19218.33706209511,-2530.0
19218.337124592348,1376.0
19218.337187089583,5315.0
19218.33724958682,9965.0
19218.33731208406,13566.0
19218.337374581297,15073.0
19218.33743707853,15287.0
19218.33749957577,14550.0
19218.337562073008,13702.0
19218.337624570246,11958.0
19218.33768706748,9587.0
19218.33774956472,7044.0
19218.337812061956,4711.0
19218.33787455919,2957.0
19218.33793705643,1540.0
19218.337999553667,1314.0
19218.338062050905,1436.0
19218.33812454814,753.0
19218.338187045378,-354.0
19218.338249542616,-1324.0
19218.338312039854,-2160.0
19218.33837453709,-2647.0
19218.338437034326,-1893.0
19218.338499531565,-465.0
19218.338562028803,1318.0
19218.338624526037,3441.0
19218.338687023275,6357.0
19218.338749520513,10017.0
19218.33881201775,12824.0
19218.338874514986,15198.0
19218.338937012224,16778.0
19218.338999509462,16449.0
19218.3390620067,15278.0
19218.339124503935,14282.0
19218.339187001173,13227.0
19218.33924949841,11613.0
19218.339311995645,10331.0
19218.339374492884,9281.0
19218.33943699012,7454.0
19218.33949948736,5929.0
19218.339561984598,5388.0
19218.339624481832,4483.0
19218.33968697907,2879.0
19218.33974947631,1925.0
19218.339811973543,864.0
19218.33987447078,-933.0
19218.33993696802,-2167.0
19218.339999465257,-2479.0
19218.34006196249,-3238.0
19218.34012445973,-4965.0
19218.340186956968,-6429.0
19218.340249454206,-7844.0
19218.34031195144,-9799.0
19218.34037444868,-11397.0
19218.340436945917,-12589.0
19218.340499443155,-14204.0
19218.34056194039,-16208.0
19218.340624437627,-18074.0
19218.340686934866,-19363.0
19218.340749432104,-20076.0
19218.340811929338,-20862.0
19218.340874426576,-21443.0
19218.340936923814,-21782.0
19218.340999421052,-22858.0
19218.341061918287,-24191.0
19218.341124415525,-24860.0
19218.341186912763,-25631.0
19218.341249409998,-26953.0
19218.341311907236,-28373.0
19218.341374404474,-28964.0
19218.341436901712,-24358.0
19218.341499398946,-15551.0
19218.341561896184,-7652.0
19218.341624393423,1984.0
19218.34168689066,11498.0
19218.341749387895,15153.0
19218.341811885133,17465.0
19218.34187438237,20222.0
19218.34193687961,19989.0
19218.341999376844,16875.0
19218.342061874082,13853.0
19218.34212437132,10764.0
19218.34218686856,5880.0
19218.342249365793,3184.0
19218.34231186303,3566.0
19218.34237436027,3432.0
19218.342436857507,1689.0
19218.34249935474,-186.0
19218.34256185198,-1964.0
19218.342624349218,-5371.0
19218.342686846456,-7175.0
19218.34274934369,-6343.0
19218.34281184093,-6081.0
19218.342874338166,-5718.0
19218.342936835405,-4315.0
19218.34299933264,-1453.0
19218.343061829877,2297.0
19218.343124327115,6428.0
19218.34318682435,11102.0
19218.343249321588,14387.0
19218.343311818826,15330.0
19218.343374316064,14907.0
19218.3434368133,14180.0
19218.343499310537,12907.0
19218.343561807775,10834.0
19218.343624305013,8694.0
19218.343686802247,6112.0
19218.343749299485,3688.0
19218.343811796723,1975.0
19218.34387429396,1197.0
19218.343936791196,1279.0
19218.343999288434,1023.0
19218.344061785672,518.0
19218.34412428291,-417.0
19218.344186780145,-1552.0
19218.344249277383,-2020.0
19218.34431177462,-1575.0
19218.34437427186,-396.0
19218.344436769094,954.0
19218.34449926633,2923.0
19218.34456176357,4959.0
19218.344624260804,7252.0
19218.344686758042,9684.0
19218.34474925528,11828.0
19218.34481175252,13198.0
19218.344874249757,12901.0
19218.34493674699,12373.0
19218.34499924423,11941.0
19218.345061741467,11460.0
19218.345124238702,11482.0
19218.34518673594,11730.0
19218.345249233178,11416.0
19218.345311730416,10103.0
19218.34537422765,9277.0
19218.34543672489,8448.0
19218.345499222127,7224.0
19218.345561719365,5965.0
19218.3456242166,4269.0
19218.345686713837,2383.0
19218.345749211076,480.0
19218.345811708314,-941.0
19218.345874205548,-1861.0
19218.345936702786,-2399.0
19218.345999200024,-3295.0
19218.346061697262,-4961.0
19218.346124194497,-6730.0
19218.346186691735,-8635.0
19218.346249188973,-10308.0
19218.34631168621,-11361.0
19218.346374183446,-12384.0
19218.346436680684,-13629.0
19218.346499177922,-14773.0
19218.346561675156,-16043.0
19218.346624172395,-16968.0
19218.346686669633,-17255.0
19218.34674916687,-17855.0
19218.346811664105,-18883.0
19218.346874161343,-20078.0
19218.34693665858,-21415.0
19218.34699915582,-23346.0
19218.347061653054,-24552.0
19218.347124150292,-25142.0
19218.34718664753,-26798.0
19218.34724914477,-28728.0
19218.347311642003,-29826.0
19218.34737413924,-28620.0
19218.34743663648,-22473.0
19218.347499133717,-13464.0
19218.34756163095,-4757.0
19218.34762412819,4780.0
19218.347686625428,12539.0
19218.347749122666,15642.0
19218.3478116199,18283.0
19218.34787411714,20764.0
19218.347936614377,19515.0
19218.347999111615,16471.0
19218.34806160885,13712.0
19218.348124106087,9833.0
19218.348186603325,5892.0
19218.348249100563,4679.0
19218.348311597798,5191.0
19218.348374095036,4078.0
19218.348436592274,1805.0
19218.34849908951,-512.0
19218.348561586747,-3544.0
19218.348624083985,-6874.0
19218.348686581223,-8050.0
19218.348749078457,-7261.0
19218.348811575695,-7283.0
19218.348874072934,-6681.0
19218.34893657017,-4139.0
19218.348999067406,-597.0
19218.349061564644,3750.0
19218.349124061882,8490.0
19218.34918655912,12869.0
19218.349249056355,15118.0
19218.349311553593,15244.0
19218.34937405083,14714.0
19218.34943654807,13653.0
19218.349499045304,12112.0
19218.34956154254,10330.0
19218.34962403978,8204.0
19218.349686537018,5682.0
19218.349749034252,3691.0
19218.34981153149,2528.0
19218.34987402873,1850.0
19218.349936525963,1690.0
19218.3499990232,1164.0
19218.35006152044,-154.0
19218.350124017677,-1610.0
19218.350186514916,-2463.0
19218.35024901215,-2642.0
19218.350311509388,-2162.0
19218.350374006626,-617.0
19218.35043650386,1473.0
19218.3504990011,3431.0
19218.350561498337,5796.0
19218.350623995575,9477.0
19218.35068649281,12094.0
19218.350748990048,13489.0
19218.350811487286,14976.0
19218.350873984524,14284.0
19218.35093648176,12942.0
19218.350998978996,12411.0
19218.351061476234,12054.0
19218.351123973473,11327.0
19218.351186470707,10932.0
19218.351248967945,10551.0
19218.351311465183,8866.0
19218.35137396242,7794.0
19218.351436459656,7314.0
19218.351498956894,6101.0
19218.351561454132,4444.0
19218.35162395137,3254.0
19218.351686448605,1806.0
19218.351748945843,-441.0
19218.35181144308,-1386.0
19218.351873940315,-1584.0
19218.351936437553,-2809.0
19218.35199893479,-4246.0
19218.35206143203,-5578.0
19218.352123929264,-7912.0
19218.352186426502,-10159.0
19218.35224892374,-11234.0
19218.35231142098,-12442.0
19218.352373918213,-13936.0
19218.35243641545,-15103.0
19218.35249891269,-16225.0
19218.352561409927,-17651.0
19218.35262390716,-18405.0
19218.3526864044,-18326.0
19218.352748901638,-19468.0
19218.352811398876,-20816.0
19218.35287389611,-21209.0
19218.35293639335,-22917.0
19218.352998890587,-24654.0
19218.353061387825,-25136.0
19218.35312388506,-26442.0
19218.353186382297,-28279.0
19218.353248879535,-29598.0
19218.353311376773,-28511.0
19218.353373874008,-22657.0
19218.353436371246,-14157.0
19218.353498868484,-5459.0
19218.353561365722,4452.0
19218.353623862957,12658.0
19218.353686360195,16155.0
19218.353748857433,18881.0
19218.353811354667,21055.0
19218.353873851906,19578.0
19218.353936349144,16173.0
19218.35399884638,12937.0
19218.354061343616,9286.0
19218.354123840854,4897.0
19218.354186338092,3340.0
19218.35424883533,3956.0
19218.354311332565,3089.0
19218.354373829803,1121.0
19218.35443632704,-575.0
19218.35449882428,-2788.0
19218.354561321514,-5958.0
19218.354623818752,-7111.0
19218.35468631599,-6568.0
19218.354748813228,-6592.0
19218.354811310463,-5841.0
19218.3548738077,-3687.0
19218.35493630494,-223.0
19218.354998802177,3933.0
19218.35506129941,8300.0
19218.35512379665,12349.0
19218.355186293888,14614.0
19218.355248791122,15154.0
19218.35531128836,14461.0
19218.3553737856,13103.0
19218.355436282836,11756.0
19218.355498780074,9852.0
19218.35556127731,7585.0
19218.355623774547,5295.0
19218.355686271785,3463.0
19218.35574876902,2262.0
19218.355811266258,1553.0
19218.355873763496,1813.0
19218.355936260734,1462.0
19218.35599875797,202.0
19218.356061255206,-712.0
19218.356123752445,-1574.0
19218.356186249683,-1943.0
19218.356248746917,-1526.0
19218.356311244155,-46.0
19218.356373741393,2007.0
19218.35643623863,3844.0
19218.356498735866,6119.0
19218.356561233104,8872.0
19218.356623730342,11102.0
19218.35668622758,12620.0
19218.356748724815,13833.0
19218.356811222053,13522.0
19218.35687371929,12401.0
19218.35693621653,12548.0
19218.356998713763,12322.0
19218.357061211,11509.0
19218.35712370824,11818.0
19218.357186205474,11169.0
19218.357248702712,9063.0
19218.35731119995,7978.0
19218.35737369719,7497.0
19218.357436194427,5912.0
19218.35749869166,4345.0
19218.3575611889,3524.0
19218.357623686137,1738.0
19218.35768618337,-554.0
19218.35774868061,-1401.0
19218.357811177848,-1818.0
19218.357873675086,-3254.0
19218.35793617232,-4692.0
19218.35799866956,-5780.0
19218.358061166797,-7963.0
19218.358123664035,-10233.0
19218.35818616127,-10983.0
19218.358248658507,-11816.0
19218.358311155745,-13608.0
19218.358373652984,-14841.0
19218.358436150218,-15847.0
19218.358498647456,-17582.0
19218.358561144694,-18799.0
19218.358623641932,-18653.0
19218.358686139167,-19122.0
19218.358748636405,-20628.0
19218.358811133643,-21078.0
19218.35887363088,-21655.0
19218.358936128116,-23366.0
19218.358998625354,-24049.0
19218.35906112259,-24060.0
19218.359123619826,-25754.0
19218.359186117064,-27917.0
19218.359248614302,-27278.0
19218.35931111154,-22492.0
19218.359373608775,-14939.0
19218.359436106013,-6898.0
19218.35949860325,2699.0
19218.35956110049,10803.0
19218.359623597724,14152.0
19218.359686094962,17323.0
19218.3597485922,19479.0
19218.359811089438,18549.0
19218.359873586673,16214.0
19218.35993608391,13079.0
19218.35999858115,9025.0
19218.360061078387,4875.0
19218.36012357562,3111.0
19218.36018607286,2835.0
19218.360248570098,2845.0
19218.360311067336,1789.0
19218.36037356457,-432.0
19218.36043606181,-2426.0
19218.360498559046,-5012.0
19218.360561056284,-6567.0
19218.36062355352,-6202.0
19218.360686050757,-5788.0
19218.360748547995,-5134.0
19218.360811045233,-4005.0
19218.360873542468,-1307.0
19218.360936039706,2924.0
19218.360998536944,6923.0
19218.36106103418,10845.0
19218.361123531417,13944.0
19218.361186028655,15041.0
19218.361248525893,14029.0
19218.361311023127,12830.0
19218.361373520365,12092.0
19218.361436017603,10068.0
19218.36149851484,7737.0
19218.361561012076,5651.0
19218.361623509314,3785.0
19218.361686006552,2031.0
19218.36174850379,1207.0
19218.361811001025,1863.0
19218.361873498263,1619.0
19218.3619359955,871.0
19218.36199849274,166.0
19218.362060989974,-846.0
19218.36212348721,-1237.0
19218.36218598445,-622.0
19218.362248481688,702.0
19218.362310978922,1930.0
19218.36237347616,3699.0
19218.3624359734,5836.0
19218.362498470633,7420.0
19218.36256096787,9765.0
19218.36262346511,12208.0
19218.362685962347,12531.0
19218.362748459585,12397.0
19218.36281095682,12492.0
19218.362873454058,11883.0
19218.362935951296,11274.0
19218.36299844853,11666.0
19218.36306094577,12081.0
19218.363123443007,11089.0
19218.363185940245,10188.0
19218.36324843748,9627.0
19218.363310934717,8435.0
19218.363373431956,6861.0
19218.363435929194,5644.0
19218.363498426428,4455.0
19218.363560923666,2085.0
19218.363623420904,88.0
19218.363685918142,-965.0
19218.363748415377,-2446.0
19218.363810912615,-4101.0
19218.363873409853,-5143.0
19218.36393590709,-6698.0
19218.363998404326,-9205.0
19218.364060901564,-10756.0
19218.364123398802,-11400.0
19218.36418589604,-12538.0
19218.364248393274,-13560.0
19218.364310890513,-13779.0
19218.36437338775,-14665.0
19218.364435884985,-16295.0
19218.364498382223,-16669.0
19218.36456087946,-16997.0
19218.3646233767,-18651.0
19218.364685873934,-19714.0
19218.364748371172,-20474.0
19218.36481086841,-22238.0
19218.36487336565,-23621.0
19218.364935862883,-23978.0
19218.36499836012,-24887.0
19218.36506085736,-26634.0
19218.365123354597,-28253.0
19218.36518585183,-29160.0
19218.36524834907,-26296.0
19218.365310846308,-18444.0
19218.365373343546,-10020.0
19218.36543584078,-1300.0
19218.36549833802,8497.0
19218.365560835256,14163.0
19218.365623332495,16839.0
19218.36568582973,19802.0
19218.365748326967,20475.0
19218.365810824205,18079.0
19218.365873321443,15065.0
19218.365935818678,11662.0
19218.365998315916,7123.0
19218.366060813154,4358.0
19218.366123310392,3989.0
19218.366185807627,3947.0
19218.366248304865,3173.0
19218.366310802103,859.0
19218.366373299337,-1346.0
19218.366435796575,-3929.0
19218.366498293813,-6602.0
19218.36656079105,-6884.0
19218.366623288286,-6465.0
19218.366685785524,-6101.0
19218.366748282762,-4997.0
19218.36681078,-2599.0
19218.366873277235,1258.0
19218.366935774473,5440.0
19218.36699827171,9798.0
19218.36706076895,13361.0
19218.367123266184,14911.0
19218.36718576342,14581.0
19218.36724826066,13596.0
19218.367310757898,12672.0
19218.367373255132,11102.0
19218.36743575237,9219.0
19218.36749824961,6968.0
19218.367560746847,4786.0
19218.36762324408,3238.0
19218.36768574132,1904.0
19218.367748238557,1356.0
19218.367810735792,1464.0
19218.36787323303,1063.0
19218.367935730268,72.0
19218.367998227506,-914.0
19218.368060724744,-1281.0
19218.36812322198,-1431.0
19218.368185719217,-1227.0
19218.368248216455,423.0
19218.36831071369,2877.0
19218.368373210928,4860.0
19218.368435708166,7193.0
19218.368498205404,10479.0
19218.36856070264,12760.0
19218.368623199876,13732.0
19218.368685697114,14296.0
19218.368748194353,14046.0
19218.368810691587,13099.0
19218.368873188825,11885.0
19218.368935686063,11189.0
19218.3689981833,10672.0
19218.369060680536,9568.0
19218.369123177774,8670.0
19218.369185675012,8243.0
19218.36924817225,7454.0
19218.369310669485,6337.0
19218.369373166723,5656.0
19218.36943566396,4541.0
19218.3694981612,2896.0
19218.369560658433,1492.0
19218.36962315567,141.0
19218.36968565291,-969.0
19218.369748150144,-1918.0
19218.369810647382,-3305.0
19218.36987314462,-5201.0
19218.36993564186,-6984.0
19218.369998139093,-8863.0
19218.37006063633,-10778.0
19218.37012313357,-11726.0
19218.370185630807,-12829.0
19218.37024812804,-14473.0
19218.37031062528,-15595.0
19218.370373122518,-16537.0
19218.370435619756,-17645.0
19218.37049811699,-18216.0
19218.37056061423,-18607.0
19218.370623111467,-19591.0
19218.370685608705,-20561.0
19218.37074810594,-21825.0
19218.370810603177,-23067.0
19218.370873100415,-24004.0
19218.370935597653,-24707.0
19218.370998094888,-25893.0
19218.371060592126,-27779.0
19218.371123089364,-29310.0
19218.371185586602,-27579.0
19218.371248083837,-20371.0
19218.371310581075,-11787.0
19218.371373078313,-2899.0
19218.37143557555,7129.0
19218.371498072785,13538.0
19218.371560570024,16320.0
19218.37162306726,19314.0
19218.371685564496,20465.0
19218.371748061734,18501.0
19218.371810558972,15345.0
19218.37187305621,12081.0
19218.371935553445,7546.0
19218.371998050683,3926.0
19218.37206054792,3603.0
19218.37212304516,3820.0
19218.372185542394,3062.0
19218.37224803963,1322.0
19218.37231053687,-820.0
19218.372373034108,-3698.0
19218.372435531342,-6549.0
19218.37249802858,-6842.0
19218.37256052582,-6691.0
19218.372623023057,-6456.0
19218.37268552029,-5318.0
19218.37274801753,-3225.0
19218.372810514767,386.0
19218.372873012006,4706.0
19218.37293550924,9344.0
19218.372998006478,12936.0
19218.373060503716,14726.0
19218.37312300095,15021.0
19218.37318549819,14155.0
19218.373247995427,13120.0
19218.373310492665,11720.0
19218.373372989903,9933.0
19218.373435487138,7539.0
19218.373497984376,5124.0
19218.373560481614,3489.0
19218.37362297885,2157.0
19218.373685476086,1653.0
19218.373747973324,1787.0
19218.373810470563,1250.0
19218.373872967797,-207.0
19218.373935465035,-1608.0
19218.373997962273,-2560.0
19218.37406045951,-2787.0
19218.374122956746,-1877.0
19218.374185453984,-348.0
19218.374247951222,1681.0
19218.37431044846,3742.0
19218.374372945695,6079.0
19218.374435442933,9313.0
19218.37449794017,12015.0
19218.37456043741,13552.0
19218.374622934643,14618.0
19218.37468543188,14506.0
19218.37474792912,12961.0
19218.374810426358,11983.0
19218.374872923592,11630.0
19218.37493542083,10584.0
19218.37499791807,10064.0
19218.375060415303,10231.0
19218.37512291254,8989.0
19218.37518540978,7761.0
19218.375247907017,7555.0
19218.375310404255,6574.0
19218.37537290149,4823.0
19218.375435398728,3831.0
19218.375497895966,2645.0
19218.3755603932,315.0
19218.37562289044,-1077.0
19218.375685387677,-1495.0
19218.375747884915,-2923.0
19218.37581038215,-4517.0
19218.375872879387,-5312.0
19218.375935376625,-7137.0
19218.375997873864,-9616.0
19218.376060371098,-10394.0
19218.376122868336,-11558.0
19218.376185365574,-13827.0
19218.376247862812,-14768.0
19218.376310360047,-15552.0
19218.376372857285,-17658.0
19218.376435354523,-18281.0
19218.37649785176,-17690.0
19218.376560348996,-19232.0
19218.376622846234,-20201.0
19218.37668534347,-19587.0
19218.37674784071,-21281.0
19218.376810337944,-23279.0
19218.376872835182,-23167.0
19218.37693533242,-24070.0
19218.376997829655,-26061.0
19218.377060326893,-26407.0
19218.37712282413,-25691.0
19218.37718532137,-23323.0
19218.377247818604,-16384.0
19218.377310315842,-8251.0
19218.37737281308,-1425.0
19218.377435310318,5994.0
19218.377497807553,11226.0
19218.37756030479,13919.0
19218.37762280203,16067.0
19218.377685299267,16783.0
19218.3777477965,16037.0
19218.37781029374,13211.0
19218.377872790978,10256.0
19218.377935288216,7469.0
19218.37799778545,4776.0
19218.37806028269,3785.0
19218.378122779926,3675.0
19218.378185277164,2830.0
19218.3782477744,480.0
19218.378310271637,-1267.0
19218.378372768875,-2831.0
19218.378435266113,-4833.0
19218.378497763348,-4818.0
19218.378560260586,-4111.0
19218.378622757824,-3698.0
19218.378685255062,-2828.0
19218.378747752296,-922.0
19218.378810249535,2483.0
19218.378872746773,5853.0
19218.378935244007,9078.0
19218.378997741245,11874.0
19218.379060238483,13189.0
19218.37912273572,13130.0
19218.379185232956,12158.0
19218.379247730194,11226.0
19218.379310227432,9974.0
19218.37937272467,8151.0
19218.379435221905,6234.0
19218.379497719143,4454.0
19218.37956021638,3305.0
19218.37962271362,2251.0
19218.379685210853,2028.0
19218.37974770809,2351.0
19218.37981020533,1749.0
19218.379872702568,710.0
19218.379935199802,-131.0
19218.37999769704,-718.0
19218.38006019428,-835.0
19218.380122691517,247.0
19218.38018518875,1714.0
19218.38024768599,3111.0
19218.380310183227,4966.0
19218.38037268046,7073.0
19218.3804351777,9454.0
19218.380497674938,12038.0
19218.380560172176,14005.0
19218.380622669414,13811.0
19218.38068516665,13438.0
19218.380747663887,13306.0
19218.380810161125,11641.0
19218.38087265836,10879.0
19218.380935155597,11533.0
19218.380997652836,10795.0
19218.381060150074,9064.0
19218.381122647308,8556.0
19218.381185144546,7741.0
19218.381247641784,5972.0
19218.381310139022,5261.0
19218.381372636257,4775.0
19218.381435133495,2798.0
19218.381497630733,423.0
19218.38156012797,-637.0
19218.381622625206,-1614.0
19218.381685122444,-3212.0
19218.381747619682,-3920.0
19218.38181011692,-4584.0
19218.381872614154,-7083.0
19218.381935111393,-9549.0
19218.38199760863,-10546.0
19218.38206010587,-11903.0
19218.382122603103,-13370.0
19218.38218510034,-13739.0
19218.38224759758,-14519.0
19218.382310094814,-16329.0
19218.382372592052,-16981.0
19218.38243508929,-16616.0
19218.38249758653,-17386.0
19218.382560083763,-18234.0
19218.382622581,-18549.0
19218.38268507824,-20315.0
19218.382747575477,-22603.0
19218.38281007271,-23702.0
19218.38287256995,-24589.0
19218.382935067188,-26152.0
19218.382997564426,-28037.0
19218.38306006166,-29694.0
19218.3831225589,-28442.0
19218.383185056136,-22108.0
19218.383247553375,-13428.0
19218.38331005061,-4560.0
19218.383372547847,5215.0
19218.383435045085,12247.0
19218.383497542323,15058.0
19218.383560039558,18034.0
19218.383622536796,19842.0
19218.383685034034,18883.0
19218.383747531272,16311.0
19218.383810028507,13191.0
19218.383872525745,9183.0
19218.383935022983,5082.0
19218.38399752022,4021.0
19218.384060017455,4579.0
19218.384122514693,3968.0
19218.38418501193,1914.0
19218.384247509166,-410.0
19218.384310006404,-3131.0
19218.384372503642,-6443.0
19218.38443500088,-7303.0
19218.384497498115,-6583.0
19218.384559995353,-6384.0
19218.38462249259,-5621.0
19218.38468498983,-3689.0
19218.384747487064,-283.0
19218.3848099843,3805.0
19218.38487248154,8234.0
19218.384934978778,12555.0
19218.384997476012,14740.0
19218.38505997325,14845.0
19218.38512247049,14150.0
19218.385184967727,13310.0
19218.38524746496,11843.0
19218.3853099622,9859.0
19218.385372459437,8021.0
19218.385434956675,5743.0
19218.38549745391,3528.0
19218.385559951148,2312.0
19218.385622448386,2106.0
19218.38568494562,2269.0
19218.38574744286,1754.0
19218.385809940097,621.0
19218.385872437335,-655.0
19218.385934934573,-1849.0
19218.385997431807,-1984.0
19218.386059929046,-525.0
19218.386122426284,1096.0
19218.386184923518,2398.0
19218.386247420756,4538.0
19218.386309917994,6971.0
19218.386372415232,9386.0
19218.386434912467,12667.0
19218.386497409705,15574.0
19218.386559906943,15903.0
19218.38662240418,15074.0
19218.386684901416,14461.0
19218.386747398654,13055.0
19218.386809895892,11529.0
19218.38687239313,11356.0
19218.386934890365,10967.0
19218.386997387603,8818.0
19218.38705988484,7026.0
19218.38712238208,6459.0
19218.387184879313,5310.0
19218.38724737655,4214.0
19218.38730987379,3964.0
19218.387372371028,2894.0
19218.387434868262,548.0
19218.3874973655,-1207.0
19218.38755986274,-2084.0
19218.387622359973,-3317.0
19218.38768485721,-4288.0
19218.38774735445,-5157.0
19218.387809851687,-7207.0
19218.38787234892,-9561.0
19218.38793484616,-11073.0
19218.387997343398,-12098.0
19218.388059840636,-13401.0
19218.38812233787,-14337.0
19218.38818483511,-15052.0
19218.388247332347,-17078.0
19218.388309829585,-18524.0
19218.38837232682,-18810.0
19218.388434824057,-19943.0
19218.388497321295,-20928.0
19218.388559818533,-21572.0
19218.388622315768,-22803.0
19218.388684813006,-24543.0
19218.388747310244,-25597.0
19218.388809807482,-25858.0
19218.388872304717,-26919.0
19218.388934801955,-28090.0
19218.388997299193,-27263.0
19218.38905979643,-22201.0
19218.389122293665,-14226.0
19218.389184790904,-6021.0
19218.38924728814,3513.0
19218.38930978538,11820.0
19218.389372282614,15239.0
19218.389434779852,17724.0
19218.38949727709,19384.0
19218.389559774325,18317.0
19218.389622271563,15961.0
19218.3896847688,13329.0
19218.38974726604,9919.0
19218.389809763274,5344.0
19218.38987226051,3218.0
19218.38993475775,2930.0
19218.389997254988,2147.0
19218.390059752222,1179.0
19218.39012224946,-543.0
19218.3901847467,-2765.0
19218.390247243937,-5667.0
19218.39030974117,-7092.0
19218.39037223841,-6420.0
19218.390434735647,-5853.0
19218.390497232886,-4493.0
19218.39055973012,-2400.0
19218.390622227358,209.0
19218.390684724596,3620.0
19218.390747221834,7614.0
19218.39080971907,11694.0
19218.390872216307,14197.0
19218.390934713545,15076.0
19218.39099721078,14598.0
19218.391059708018,13102.0
19218.391122205256,11601.0
19218.391184702494,10000.0
19218.391247199732,8133.0
19218.391309696966,5748.0
19218.391372194204,3850.0
19218.391434691443,2324.0
19218.391497188677,760.0
19218.391559685915,479.0
19218.391622183153,765.0
19218.39168468039,331.0
19218.391747177626,-744.0
19218.391809674864,-1130.0
19218.391872172102,-1036.0
19218.39193466934,-1235.0
19218.391997166575,546.0
19218.392059663813,2970.0
19218.39212216105,4079.0
19218.39218465829,6193.0
19218.392247155523,9149.0
19218.39230965276,11122.0
19218.39237215,13028.0
19218.392434647238,14765.0
19218.392497144472,14556.0
19218.39255964171,12933.0
19218.39262213895,12335.0
19218.392684636186,11796.0
19218.39274713342,10580.0
19218.39280963066,10487.0
19218.392872127897,10213.0
19218.39293462513,8566.0
19218.39299712237,7113.0
19218.393059619608,6757.0
19218.393122116846,5755.0
19218.39318461408,4096.0
19218.39324711132,3316.0
19218.393309608557,1844.0
19218.393372105795,-617.0
19218.39343460303,-1930.0
19218.393497100267,-2681.0
19218.393559597505,-3645.0
19218.393622094743,-4690.0
19218.393684591978,-5982.0
19218.393747089216,-7879.0
19218.393809586454,-9894.0
19218.393872083692,-10937.0
19218.393934580927,-11963.0
19218.393997078165,-13304.0
19218.394059575403,-13968.0
19218.39412207264,-14948.0
19218.394184569876,-16267.0
19218.394247067114,-16782.0
19218.39430956435,-17179.0
19218.39437206159,-18162.0
19218.394434558824,-18937.0
19218.394497056062,-19926.0
19218.3945595533,-21359.0
19218.39462205054,-22634.0
19218.394684547773,-24084.0
19218.39474704501,-25273.0
19218.39480954225,-26490.0
19218.394872039484,-28499.0
19218.394934536722,-28446.0
19218.39499703396,-23829.0
19218.395059531198,-16663.0
19218.395122028433,-9058.0
19218.39518452567,77.0
19218.39524702291,8558.0
19218.395309520147,12578.0
19218.39537201738,15652.0
19218.39543451462,19142.0
19218.395497011858,19133.0
19218.395559509096,16865.0
19218.39562200633,14781.0
19218.39568450357,11742.0
19218.395747000806,7377.0
19218.395809498044,5031.0
19218.39587199528,5179.0
19218.395934492517,4324.0
19218.395996989755,2397.0
19218.396059486993,614.0
19218.396121984228,-1879.0
19218.396184481466,-4967.0
19218.396246978704,-6952.0
19218.39630947594,-6656.0
19218.396371973176,-6268.0
19218.396434470415,-6075.0
19218.396496967653,-4396.0
19218.39655946489,-1607.0
19218.396621962125,2013.0
19218.396684459363,6072.0
19218.3967469566,10206.0
19218.396809453836,13366.0
19218.396871951074,14406.0
19218.396934448312,14164.0
19218.39699694555,13330.0
19218.397059442785,12623.0
19218.397121940023,11329.0
19218.39718443726,9184.0
19218.3972469345,7308.0
19218.397309431733,5373.0
19218.39737192897,3191.0
19218.39743442621,1863.0
19218.397496923448,2064.0
19218.397559420682,1882.0
19218.39762191792,660.0
19218.39768441516,4.0
19218.397746912397,-819.0
19218.39780940963,-1531.0
19218.39787190687,-1211.0
19218.397934404107,-29.0
19218.397996901345,1760.0
19218.39805939858,2938.0
19218.398121895818,4620.0
19218.398184393056,7851.0
19218.39824689029,10555.0
19218.39830938753,12592.0
19218.398371884767,15005.0
19218.398434382005,15263.0
19218.398496879243,13405.0
19218.398559376477,12714.0
19218.398621873715,11672.0
19218.398684370954,10100.0
19218.398746868188,10109.0
19218.398809365426,9660.0
19218.398871862664,8326.0
19218.398934359902,7489.0
19218.398996857137,6898.0
19218.399059354375,6160.0
19218.399121851613,5221.0
19218.39918434885,3975.0
19218.399246846086,2427.0
19218.399309343324,126.0
19218.39937184056,-1960.0
19218.3994343378,-2945.0
19218.399496835034,-4074.0
19218.399559332272,-5503.0
19218.39962182951,-6665.0
19218.39968432675,-8503.0
19218.399746823983,-10433.0
19218.39980932122,-11551.0
19218.39987181846,-12492.0
19218.399934315697,-13336.0
19218.399996812932,-14222.0
19218.40005931017,-15493.0
19218.400121807408,-16324.0
19218.400184304643,-16941.0
19218.40024680188,-17720.0
19218.40030929912,-17892.0
19218.400371796357,-18510.0
19218.40043429359,-20084.0
19218.40049679083,-21234.0
19218.400559288068,-22288.0
19218.400621785306,-23443.0
19218.40068428254,-24312.0
19218.40074677978,-25544.0
19218.400809277016,-26957.0
19218.400871774254,-26845.0
19218.40093427149,-22437.0
19218.400996768727,-14768.0
19218.401059265965,-7141.0
19218.401121763203,747.0
19218.401184260438,8376.0
19218.401246757676,11933.0
19218.401309254914,13761.0
19218.401371752152,16560.0
19218.401434249387,16891.0
19218.401496746625,14974.0
19218.401559243863,12949.0
19218.4016217411,10390.0
19218.401684238335,6983.0
19218.401746735573,5041.0
19218.40180923281,5475.0
19218.40187173005,5346.0
19218.401934227284,3698.0
19218.401996724522,1427.0
19218.40205922176,-908.0
19218.402121718995,-3807.0
19218.402184216233,-5931.0
19218.40224671347,-5569.0
19218.40230921071,-5301.0
19218.402371707944,-5356.0
19218.40243420518,-4137.0
19218.40249670242,-1709.0
19218.402559199658,1683.0
19218.402621696892,5404.0
19218.40268419413,9385.0
19218.40274669137,12336.0
19218.402809188607,12982.0
19218.40287168584,12650.0
19218.40293418308,12146.0
19218.402996680317,11334.0
19218.403059177555,10060.0
19218.40312167479,8665.0
19218.403184172028,6901.0
19218.403246669266,4917.0
19218.403309166504,3760.0
19218.40337166374,3036.0
19218.403434160977,2964.0
19218.403496658215,2949.0
19218.40355915545,1923.0
19218.403621652687,740.0
19218.403684149926,-206.0
19218.403746647164,-557.0
19218.4038091444,-213.0
19218.403871641636,324.0
19218.403934138874,1431.0
19218.403996636112,2646.0
19218.404059133347,4241.0
19218.404121630585,6976.0
19218.404184127823,9866.0
19218.40424662506,12245.0
19218.404309122296,13302.0
19218.404371619534,13254.0
19218.404434116772,12809.0
19218.40449661401,11968.0
19218.404559111244,12003.0
19218.404621608483,12344.0
19218.40468410572,11776.0
19218.40474660296,10770.0
19218.404809100193,9639.0
19218.40487159743,8095.0
19218.40493409467,6868.0
19218.404996591908,6451.0
19218.405059089142,5212.0
19218.40512158638,3069.0
19218.40518408362,1334.0
19218.405246580856,-713.0
19218.40530907809,-2775.0
19218.40537157533,-3728.0
19218.405434072567,-4089.0
19218.4054965698,-5533.0
19218.40555906704,-7824.0
19218.405621564278,-9380.0
19218.405684061516,-10932.0
19218.40574655875,-12476.0
19218.40580905599,-12975.0
19218.405871553226,-13340.0
19218.405934050465,-14623.0
19218.4059965477,-16372.0
19218.406059044937,-16889.0
19218.406121542175,-17046.0
19218.406184039413,-17863.0
19218.406246536648,-18142.0
19218.406309033886,-18603.0
19218.406371531124,-20396.0
19218.406434028362,-22326.0
19218.406496525597,-23039.0
19218.406559022835,-23334.0
19218.406621520073,-24459.0
19218.40668401731,-25351.0
19218.406746514545,-26021.0
19218.406809011783,-24887.0
19218.40687150902,-18664.0
19218.40693400626,-11154.0
19218.406996503494,-3653.0
19218.407059000732,5285.0
19218.40712149797,11069.0
19218.40718399521,13465.0
19218.407246492443,15931.0
19218.40730898968,17310.0
19218.40737148692,16119.0
19218.407433984154,13776.0
19218.40749648139,11435.0
19218.40755897863,7536.0
19218.407621475868,4053.0
19218.407683973102,3138.0
19218.40774647034,3366.0
19218.40780896758,2593.0
19218.407871464817,829.0
19218.40793396205,-508.0
19218.40799645929,-3036.0
19218.408058956527,-5574.0
19218.408121453765,-5343.0
19218.408183951,-4766.0
19218.408246448238,-4566.0
19218.408308945476,-3437.0
19218.408371442714,-1364.0
19218.40843393995,1233.0
19218.408496437187,4498.0
19218.408558934425,8573.0
19218.408621431663,12054.0
19218.408683928898,13590.0
19218.408746426136,13652.0
19218.408808923374,13048.0
19218.40887142061,12002.0
19218.408933917846,10878.0
19218.408996415084,9703.0
19218.409058912323,7786.0
19218.40912140956,5532.0
19218.409183906795,3712.0
19218.409246404033,2193.0
19218.40930890127,1391.0
19218.409371398506,1252.0
19218.409433895744,1238.0
19218.409496392982,608.0
19218.40955889022,-729.0
19218.409621387455,-1084.0
19218.409683884693,-632.0
19218.40974638193,-122.0
19218.40980887917,1260.0
19218.409871376403,2954.0
19218.40993387364,4176.0
19218.40999637088,5855.0
19218.410058868118,8419.0
19218.410121365352,10779.0
19218.41018386259,11948.0
19218.41024635983,12483.0
19218.410308857066,12742.0
19218.4103713543,12115.0
19218.41043385154,11148.0
19218.410496348777,11440.0
19218.410558846015,11621.0
19218.41062134325,10644.0
19218.410683840488,9970.0
19218.410746337726,9272.0
19218.41080883496,8135.0
19218.4108713322,7069.0
19218.410933829437,6462.0
19218.410996326675,4976.0
19218.41105882391,2791.0
19218.411121321147,1056.0
19218.411183818385,-569.0
19218.411246315623,-2093.0
19218.411308812858,-3143.0
19218.411371310096,-3527.0
19218.411433807334,-4936.0
19218.411496304572,-7153.0
19218.411558801807,-8453.0
19218.411621299045,-9733.0
19218.411683796283,-11065.0
19218.41174629352,-11610.0
19218.411808790755,-12194.0
19218.411871287994,-13391.0
19218.41193378523,-14427.0
19218.41199628247,-15094.0
19218.412058779704,-15685.0
19218.412121276942,-16390.0
19218.41218377418,-17117.0
19218.41224627142,-18055.0
19218.412308768653,-19409.0
19218.41237126589,-20946.0
19218.41243376313,-21822.0
19218.412496260367,-22183.0
19218.4125587576,-23070.0
19218.41262125484,-23993.0
19218.412683752078,-24917.0
19218.412746249312,-25971.0
19218.41280874655,-23961.0
19218.41287124379,-17685.0
19218.412933741027,-11255.0
19218.41299623826,-4519.0
19218.4130587355,3558.0
19218.413121232737,9080.0
19218.413183729976,11825.0
19218.41324622721,15088.0
19218.413308724448,17530.0
19218.413371221686,16487.0
19218.413433718924,14203.0
19218.41349621616,12324.0
19218.413558713397,8958.0
19218.413621210635,5592.0
19218.413683707873,4932.0
19218.413746205108,5160.0
19218.413808702346,3356.0
19218.413871199584,1255.0
19218.413933696822,147.0
19218.413996194056,-2155.0
19218.414058691294,-4510.0
19218.414121188533,-4490.0
19218.414183685767,-4148.0
19218.414246183005,-4767.0
19218.414308680243,-4408.0
19218.41437117748,-2243.0
19218.41443367472,346.0
19218.414496171954,3321.0
19218.414558669192,7443.0
19218.41462116643,10875.0
19218.414683663665,12125.0
19218.414746160903,12684.0
19218.41480865814,12926.0
19218.41487115538,12130.0
19218.414933652613,10898.0
19218.41499614985,9554.0
19218.41505864709,7627.0
19218.415121144328,5670.0
19218.415183641562,4331.0
19218.4152461388,3561.0
19218.41530863604,3015.0
19218.415371133276,2840.0
19218.41543363051,2465.0
19218.41549612775,975.0
19218.415558624987,-409.0
19218.415621122225,-518.0
19218.41568361946,-364.0
19218.415746116698,-394.0
19218.415808613936,793.0
19218.415871111174,1905.0
19218.41593360841,2159.0
19218.415996105647,4411.0
19218.416058602885,7505.0
19218.41612110012,9624.0
19218.416183597357,11451.0
19218.416246094595,13053.0
19218.416308591834,13337.0
19218.416371089068,12063.0
19218.416433586306,12203.0
19218.416496083544,12788.0
19218.416558580782,11904.0
19218.416621078017,11425.0
19218.416683575255,11537.0
19218.416746072493,9821.0
19218.41680856973,7700.0
19218.416871066966,7934.0
19218.416933564204,6925.0
19218.41699606144,4328.0
19218.41705855868,3260.0
19218.417121055914,1992.0
19218.417183553152,-908.0
19218.41724605039,-2379.0
19218.41730854763,-2059.0
19218.417371044863,-3318.0
19218.4174335421,-5196.0
19218.41749603934,-5713.0
19218.417558536577,-7132.0
19218.417621033812,-9474.0
19218.41768353105,-10048.0
19218.417746028288,-10246.0
19218.417808525526,-11791.0
19218.41787102276,-13141.0
19218.41793352,-14006.0
19218.417996017237,-15232.0
19218.41805851447,-16160.0
19218.41812101171,-16518.0
19218.418183508948,-17230.0
19218.418246006186,-18425.0
19218.41830850342,-19859.0
19218.41837100066,-20861.0
19218.418433497896,-21782.0
19218.418495995134,-22916.0
19218.41855849237,-23421.0
19218.418620989607,-24239.0
19218.418683486845,-25982.0
19218.418745984083,-27094.0
19218.418808481318,-25664.0
19218.418870978556,-20399.0
19218.418933475794,-12690.0
19218.418995973032,-5176.0
19218.419058470266,2918.0
19218.419120967505,9764.0
19218.419183464743,12786.0
19218.41924596198,15533.0
19218.419308459215,17789.0
19218.419370956453,17199.0
19218.41943345369,14807.0
19218.419495950926,12317.0
19218.419558448164,9276.0
19218.419620945402,5770.0
19218.41968344264,4772.0
19218.41974593988,5152.0
19218.419808437113,4263.0
19218.41987093435,2422.0
19218.41993343159,486.0
19218.419995928823,-1657.0
19218.42005842606,-4399.0
19218.4201209233,-5463.0
19218.420183420538,-4956.0
19218.420245917772,-5163.0
19218.42030841501,-4700.0
19218.42037091225,-2714.0
19218.420433409487,105.0
19218.42049590672,3602.0
19218.42055840396,7515.0
19218.420620901197,11149.0
19218.420683398435,12965.0
19218.42074589567,13227.0
19218.420808392908,12912.0
19218.420870890146,12176.0
19218.420933387384,11085.0
19218.42099588462,9482.0
19218.421058381857,7675.0
19218.421120879095,5644.0
19218.421183376333,4062.0
19218.421245873567,3157.0
19218.421308370805,2637.0
19218.421370868044,2817.0
19218.421433365278,2473.0
19218.421495862516,1120.0
19218.421558359754,-274.0
19218.421620856992,-775.0
19218.42168335423,-851.0
19218.421745851465,-415.0
19218.421808348703,1064.0
19218.42187084594,2581.0
19218.421933343176,4358.0
19218.421995840414,6606.0
19218.422058337652,9520.0
19218.42212083489,12086.0
19218.422183332124,13256.0
19218.422245829363,13938.0
19218.4223083266,13061.0
19218.42237082384,11514.0
19218.422433321073,10295.0
19218.42249581831,9480.0
19218.42255831555,9335.0
19218.422620812787,8951.0
19218.422683310022,8729.0
19218.42274580726,8204.0
19218.422808304498,7609.0
19218.422870801736,7047.0
19218.42293329897,6256.0
19218.42299579621,5143.0
19218.423058293447,3285.0
19218.423120790685,1606.0
19218.42318328792,-235.0
19218.423245785158,-1495.0
19218.423308282396,-2084.0
19218.42337077963,-2633.0
19218.42343327687,-3384.0
19218.423495774106,-5048.0
19218.423558271345,-6897.0
19218.42362076858,-8736.0
19218.423683265817,-10534.0
19218.423745763055,-12147.0
19218.423808260293,-13377.0
19218.423870757528,-14474.0
19218.423933254766,-16156.0
19218.423995752004,-17044.0
19218.424058249242,-17323.0
19218.424120746477,-17930.0
19218.424183243715,-18318.0
19218.424245740953,-18844.0
19218.42430823819,-19915.0
19218.424370735425,-21399.0
19218.424433232663,-22491.0
19218.4244957299,-23594.0
19218.42455822714,-25035.0
19218.424620724374,-26070.0
19218.424683221612,-27285.0
19218.42474571885,-27591.0
19218.42480821609,-23171.0
19218.424870713323,-15058.0
19218.42493321056,-7366.0
19218.4249957078,1223.0
19218.425058205037,10192.0
19218.42512070227,14319.0
19218.42518319951,16259.0
19218.425245696748,18885.0
19218.425308193982,18751.0
19218.42537069122,15688.0
19218.42543318846,12908.0
19218.425495685697,10028.0
19218.42555818293,5858.0
19218.42562068017,3622.0
19218.425683177407,4161.0
19218.425745674645,4336.0
19218.42580817188,2850.0
19218.425870669118,1102.0
19218.425933166356,-882.0
19218.425995663594,-4269.0
19218.42605816083,-6513.0
19218.426120658067,-6306.0
19218.426183155305,-6120.0
19218.426245652543,-5792.0
19218.426308149777,-4174.0
19218.426370647016,-1206.0
19218.426433144254,2540.0
19218.42649564149,6761.0
19218.426558138726,11109.0
19218.426620635964,14128.0
19218.426683133202,14850.0
19218.426745630437,13976.0
19218.426808127675,12749.0
19218.426870624913,11310.0
19218.42693312215,9604.0
19218.42699561939,7924.0
19218.427058116624,6028.0
19218.427120613862,4521.0
19218.4271831111,3353.0
19218.427245608334,2750.0
19218.427308105573,2957.0
19218.42737060281,2964.0
19218.42743310005,2306.0
19218.427495597283,892.0
19218.42755809452,-417.0
19218.42762059176,-1084.0
19218.427683088998,-1108.0
19218.427745586232,127.0
19218.42780808347,1444.0
19218.42787058071,2871.0
19218.427933077946,5064.0
19218.42799557518,7567.0
19218.42805807242,10646.0
19218.428120569657,12980.0
19218.428183066895,13943.0
19218.42824556413,13756.0
19218.428308061368,12111.0
19218.428370558606,10414.0
19218.428433055844,9574.0
19218.42849555308,9141.0
19218.428558050316,8821.0
19218.428620547555,8846.0
19218.42868304479,8230.0
19218.428745542027,7040.0
19218.428808039265,7063.0
19218.428870536503,7017.0
19218.428933033738,5782.0
19218.428995530976,4425.0
19218.429058028214,2892.0
19218.429120525452,269.0
19218.429183022687,-1803.0
19218.429245519925,-2178.0
19218.429308017163,-2510.0
19218.4293705144,-3478.0
19218.429433011635,-4689.0
19218.429495508874,-6382.0
19218.42955800611,-8723.0
19218.42962050335,-10678.0
19218.429683000584,-11484.0
19218.429745497822,-12603.0
19218.42980799506,-14409.0
19218.4298704923,-15513.0
19218.429932989533,-16397.0
19218.42999548677,-17685.0
19218.43005798401,-17771.0
19218.430120481247,-17396.0
19218.43018297848,-18343.0
19218.43024547572,-19649.0
19218.430307972958,-20326.0
19218.430370470196,-21709.0
19218.43043296743,-22924.0
19218.43049546467,-22815.0
19218.430557961907,-23374.0
19218.43062045914,-24965.0
19218.43068295638,-25693.0
19218.430745453617,-22916.0
19218.430807950856,-17101.0
19218.43087044809,-9854.0
19218.430932945328,-1503.0
19218.430995442566,6485.0
19218.431057939804,12181.0
19218.43112043704,14381.0
19218.431182934277,16090.0
19218.431245431515,17191.0
19218.431307928753,15185.0
19218.431370425988,12276.0
19218.431432923226,9397.0
19218.431495420464,6022.0
19218.431557917702,2815.0
19218.431620414936,2147.0
19218.431682912174,3326.0
19218.431745409413,2795.0
19218.43180790665,1394.0
19218.431870403885,-53.0
19218.431932901123,-2177.0
19218.43199539836,-4660.0
19218.432057895596,-5488.0
19218.432120392834,-4470.0
19218.432182890072,-4124.0
19218.43224538731,-3250.0
19218.43230788455,-813.0
19218.432370381783,2537.0
19218.43243287902,6375.0
19218.43249537626,10036.0
19218.432557873493,13447.0
19218.43262037073,14803.0
19218.43268286797,13963.0
19218.432745365208,12587.0
19218.432807862442,10924.0
19218.43287035968,9266.0
19218.43293285692,7401.0
19218.432995354156,5609.0
19218.43305785139,3967.0
19218.43312034863,2692.0
19218.433182845867,2039.0
19218.433245343105,1758.0
19218.43330784034,2274.0
19218.433370337578,2096.0
19218.433432834816,1025.0
19218.433495332054,-23.0
19218.43355782929,-1303.0
19218.433620326527,-1411.0
19218.433682823765,-769.0
19218.433745321003,449.0
19218.433807818237,2512.0
19218.433870315475,4001.0
19218.433932812713,5776.0
19218.433995309948,8437.0
19218.434057807186,10907.0
19218.434120304424,12876.0
19218.434182801662,14134.0
19218.434245298897,13317.0
19218.434307796135,11798.0
19218.434370293373,10811.0
19218.43443279061,9111.0
19218.434495287845,8713.0
19218.434557785084,9517.0
19218.43462028232,8962.0
19218.43468277956,8175.0
19218.434745276794,8118.0
19218.434807774032,7642.0
19218.43487027127,6482.0
19218.43493276851,5639.0
19218.434995265743,4696.0
19218.43505776298,2525.0
19218.43512026022,-162.0
19218.435182757457,-1413.0
19218.435245254692,-1823.0
19218.43530775193,-3062.0
19218.435370249168,-3400.0
19218.435432746406,-3334.0
19218.43549524364,-5352.0
19218.43555774088,-7458.0
19218.435620238117,-8606.0
19218.435682735355,-10198.0
19218.43574523259,-11874.0
19218.435807729828,-13136.0
19218.435870227066,-14513.0
19218.4359327243,-16083.0
19218.435995221538,-16763.0
19218.436057718776,-17140.0
19218.436120216014,-17687.0
19218.43618271325,-17848.0
19218.436245210487,-18619.0
19218.436307707725,-19805.0
19218.436370204963,-20917.0
19218.436432702198,-22033.0
19218.436495199436,-22982.0
19218.436557696674,-23925.0
19218.436620193912,-24642.0
19218.436682691146,-25776.0
19218.436745188385,-25410.0
19218.436807685623,-20664.0
19218.43687018286,-13249.0
19218.436932680095,-6111.0
19218.436995177333,1798.0
19218.43705767457,9952.0
19218.43712017181,13298.0
19218.437182669044,14807.0
19218.437245166282,17460.0
19218.43730766352,17110.0
19218.437370160755,14062.0
19218.437432657993,11950.0
19218.43749515523,9683.0
19218.43755765247,5216.0
19218.437620149707,3084.0
19218.43768264694,4025.0
19218.43774514418,3331.0
19218.437807641418,1281.0
19218.437870138652,176.0
19218.43793263589,-1223.0
19218.43799513313,-4469.0
19218.438057630367,-6119.0
19218.4381201276,-4848.0
19218.43818262484,-4544.0
19218.438245122077,-4256.0
19218.438307619315,-1852.0
19218.43837011655,1252.0
19218.438432613788,3979.0
19218.438495111026,7364.0
19218.438557608264,11328.0
19218.4386201055,13215.0
19218.438682602737,13089.0
19218.438745099975,12445.0
19218.438807597213,11299.0
19218.438870094447,9969.0
19218.438932591685,8552.0
19218.438995088924,7416.0
19218.43905758616,6224.0
19218.439120083396,4664.0
19218.439182580634,3525.0
19218.439245077872,3038.0
19218.439307575107,2894.0
19218.439370072345,2424.0
19218.439432569583,1211.0
19218.43949506682,-231.0
19218.439557564056,-1301.0
19218.439620061294,-1976.0
19218.43968255853,-1958.0
19218.43974505577,-238.0
19218.439807553004,1717.0
19218.439870050242,2819.0
19218.43993254748,5047.0
19218.43999504472,8083.0
19218.440057541953,10115.0
19218.44012003919,12311.0
19218.44018253643,13998.0
19218.440245033667,13545.0
19218.440307530902,12313.0
19218.44037002814,10986.0
19218.440432525378,9967.0
19218.440495022616,9330.0
19218.44055751985,9167.0
19218.44062001709,9214.0
19218.440682514327,8620.0
19218.440745011565,7569.0
19218.4408075088,6980.0
19218.440870006038,6576.0
19218.440932503276,5424.0
19218.440995000514,4128.0
19218.44105749775,2902.0
19218.441119994986,921.0
19218.441182492224,-637.0
19218.44124498946,-1121.0
19218.441307486697,-1532.0
19218.441369983935,-2336.0
19218.441432481173,-3456.0
19218.441494978408,-5194.0
19218.441557475646,-7646.0
19218.441619972884,-9807.0
19218.441682470122,-11422.0
19218.441744967356,-12638.0
19218.441807464595,-13959.0
19218.441869961833,-15355.0
19218.44193245907,-16441.0
19218.441994956305,-17351.0
19218.442057453543,-17554.0
19218.44211995078,-17700.0
19218.44218244802,-17775.0
19218.442244945254,-18198.0
19218.442307442492,-19106.0
19218.44236993973,-19920.0
19218.44243243697,-20882.0
19218.442494934203,-21668.0
19218.44255743144,-22410.0
19218.44261992868,-23457.0
19218.442682425914,-24728.0
19218.44274492315,-24147.0
19218.44280742039,-19272.0
19218.442869917628,-12448.0
19218.442932414866,-5537.0
19218.4429949121,2609.0
19218.44305740934,9670.0
19218.443119906577,12324.0
19218.44318240381,14285.0
19218.44324490105,16568.0
19218.443307398287,15443.0
19218.443369895525,12881.0
19218.44343239276,11113.0
19218.443494889998,8284.0
19218.443557387236,4379.0
19218.443619884474,3128.0
19218.44368238171,4024.0
19218.443744878947,3457.0
19218.443807376185,2033.0
19218.443869873423,1005.0
19218.443932370657,-971.0
19218.443994867896,-4032.0
19218.444057365134,-5205.0
19218.44411986237,-4378.0
19218.444182359606,-4378.0
19218.444244856844,-3871.0
19218.444307354082,-1651.0
19218.44436985132,1003.0
19218.444432348555,4102.0
19218.444494845793,7945.0
19218.44455734303,11532.0
19218.444619840266,13286.0
19218.444682337504,13263.0
19218.444744834742,12524.0
19218.44480733198,11037.0
19218.444869829218,9611.0
19218.444932326453,8299.0
19218.44499482369,6727.0
19218.44505732093,5233.0
19218.445119818163,3971.0
19218.4451823154,3070.0
19218.44524481264,2525.0
19218.445307309878,2727.0
19218.445369807112,2796.0
19218.44543230435,1596.0
19218.44549480159,372.0
19218.445557298826,-439.0
19218.44561979606,-1143.0
19218.4456822933,-1183.0
19218.445744790537,-26.0
19218.445807287775,1925.0
19218.44586978501,3496.0
19218.445932282248,5140.0
19218.445994779486,8203.0
19218.446057276724,10811.0
19218.44611977396,12187.0
19218.446182271196,13438.0
19218.446244768435,13294.0
19218.446307265673,11550.0
19218.446369762907,10093.0
19218.446432260145,9296.0
19218.446494757383,8403.0
19218.446557254618,8130.0
19218.446619751856,8607.0
19218.446682249094,8496.0
19218.446744746332,8029.0
19218.446807243567,8008.0
19218.446869740805,7446.0
19218.446932238043,6080.0
19218.44699473528,4686.0
19218.447057232515,3064.0
19218.447119729753,635.0
19218.44718222699,-941.0
19218.44724472423,-1291.0
19218.447307221464,-2202.0
19218.447369718702,-2987.0
19218.44743221594,-3275.0
19218.44749471318,-4792.0
19218.447557210413,-6925.0
19218.44761970765,-8460.0
19218.44768220489,-10233.0
19218.447744702127,-12329.0
19218.44780719936,-13936.0
19218.4478696966,-15154.0
19218.447932193838,-16431.0
19218.447994691076,-16980.0
19218.44805718831,-16743.0
19218.44811968555,-17135.0
19218.448182182787,-17652.0
19218.448244680025,-18181.0
19218.44830717726,-19139.0
19218.448369674497,-20722.0
19218.448432171735,-22142.0
19218.44849466897,-23189.0
19218.448557166208,-24529.0
19218.448619663446,-25771.0
19218.448682160684,-26333.0
19218.44874465792,-24745.0
19218.448807155157,-19395.0
19218.448869652395,-11432.0
19218.448932149633,-3722.0
19218.448994646868,4065.0
19218.449057144106,11056.0
19218.449119641344,14385.0
19218.44918213858,16254.0
19218.449244635816,17425.0
19218.449307133054,16500.0
19218.449369630292,13582.0
19218.44943212753,10504.0
19218.449494624765,8061.0
19218.449557122003,4996.0
19218.44961961924,3573.0
19218.44968211648,4131.0
19218.449744613714,3835.0
19218.449807110952,1930.0
19218.44986960819,-207.0
19218.449932105425,-1919.0
19218.449994602663,-4848.0
19218.4500570999,-6664.0
19218.45011959714,-6098.0
19218.450182094377,-5765.0
19218.45024459161,-4943.0
19218.45030708885,-2615.0
19218.450369586088,1012.0
19218.450432083322,4732.0
19218.45049458056,8262.0
19218.4505570778,11773.0
19218.450619575036,13320.0
19218.45068207227,13096.0
19218.45074456951,12243.0
19218.450807066747,11082.0
19218.450869563985,9871.0
19218.45093206122,8508.0
19218.450994558458,7106.0
19218.451057055696,5648.0
19218.451119552934,4695.0
19218.45118205017,3975.0
19218.451244547407,3378.0
19218.451307044645,3350.0
19218.451369541883,2755.0
19218.451432039117,1176.0
19218.451494536355,-459.0
19218.451557033593,-1471.0
19218.45161953083,-1924.0
19218.451682028066,-2253.0
19218.451744525304,-1303.0
19218.451807022542,807.0
19218.451869519777,1926.0
19218.451932017015,3665.0
19218.451994514253,7183.0
19218.45205701149,9480.0
19218.452119508725,10384.0
19218.452182005964,11937.0
19218.4522445032,12100.0
19218.45230700044,10463.0
19218.452369497674,10611.0
19218.452431994912,10696.0
19218.45249449215,10131.0
19218.45255698939,10447.0
19218.452619486623,10800.0
19218.45268198386,10456.0
19218.4527444811,9423.0
19218.452806978337,9135.0
19218.45286947557,8291.0
19218.45293197281,5937.0
19218.452994470048,3961.0
19218.453056967286,2452.0
19218.45311946452,79.0
19218.45318196176,-1885.0
19218.453244458997,-1774.0
19218.453306956235,-2340.0
19218.45336945347,-3854.0
19218.453431950707,-4233.0
19218.453494447946,-5108.0
19218.453556945184,-7325.0
19218.453619442418,-8895.0
19218.453681939656,-9718.0
19218.453744436894,-11100.0
19218.45380693413,-12782.0
19218.453869431367,-13548.0
19218.453931928605,-13742.0
19218.453994425843,-14807.0
19218.454056923078,-15222.0
19218.454119420316,-14693.0
19218.454181917554,-15759.0
19218.454244414792,-17457.0
19218.454306912026,-18129.0
19218.454369409264,-19618.0
19218.454431906503,-21782.0
19218.45449440374,-22784.0
19218.454556900975,-23913.0
19218.454619398213,-25397.0
19218.45468189545,-26424.0
19218.45474439269,-25865.0
19218.454806889924,-22103.0
19218.454869387162,-15254.0
19218.4549318844,-7297.0
19218.45499438164,164.0
19218.455056878873,8032.0
19218.45511937611,13127.0
19218.45518187335,15002.0
19218.455244370583,17508.0
19218.45530686782,17711.0
19218.45536936506,15134.0
19218.455431862298,12546.0
19218.455494359536,10089.0
19218.45555685677,6750.0
19218.45561935401,3840.0
19218.455681851246,3969.0
19218.45574434848,3686.0
19218.45580684572,1834.0
19218.455869342957,495.0
19218.455931840195,-1160.0
19218.45599433743,-3685.0
19218.456056834668,-6046.0
19218.456119331906,-5868.0
19218.456181829144,-5162.0
19218.45624432638,-5269.0
19218.456306823617,-3269.0
19218.456369320855,-179.0
19218.456431818093,2834.0
19218.456494315327,6102.0
19218.456556812565,9787.0
19218.456619309804,12456.0
19218.45668180704,12648.0
19218.456744304276,12446.0
19218.456806801514,11713.0
19218.456869298752,10167.0
19218.45693179599,9064.0
19218.456994293225,7844.0
19218.457056790463,6411.0
19218.4571192877,5077.0
19218.457181784936,4454.0
19218.457244282174,3653.0
19218.45730677941,3040.0
19218.45736927665,3026.0
19218.457431773884,1494.0
19218.457494271122,-378.0
19218.45755676836,-1320.0
19218.4576192656,-2510.0
19218.457681762833,-3372.0
19218.45774426007,-2395.0
19218.45780675731,-908.0
19218.457869254547,376.0
19218.457931751782,3136.0
19218.45799424902,5703.0
19218.458056746258,7766.0
19218.458119243496,10335.0
19218.45818174073,12098.0
19218.45824423797,12465.0
19218.458306735207,12215.0
19218.458369232445,11918.0
19218.45843172968,10478.0
19218.458494226918,9469.0
19218.458556724156,9737.0
19218.458619221394,9432.0
19218.45868171863,8806.0
19218.458744215866,8887.0
19218.458806713104,8726.0
19218.458869210343,7201.0
19218.458931707577,6291.0
19218.458994204815,5570.0
19218.459056702053,3578.0
19218.459119199288,1861.0
19218.459181696526,824.0
19218.459244193764,-240.0
19218.459306691002,-1187.0
19218.459369188236,-1183.0
19218.459431685475,-1428.0
19218.459494182713,-2770.0
19218.45955667995,-4125.0
19218.459619177185,-5829.0
19218.459681674423,-8033.0
19218.45974417166,-9968.0
19218.4598066689,-11557.0
19218.459869166134,-13236.0
19218.459931663372,-14616.0
19218.45999416061,-15347.0
19218.46005665785,-15992.0
19218.460119155083,-16557.0
19218.46018165232,-16515.0
19218.46024414956,-16894.0
19218.460306646797,-18274.0
19218.46036914403,-19234.0
19218.46043164127,-20076.0
19218.460494138508,-21676.0
19218.460556635742,-22450.0
19218.46061913298,-22693.0
19218.46068163022,-23378.0
19218.460744127457,-23648.0
19218.460806624695,-22702.0
19218.46086912193,-18857.0
19218.460931619167,-12219.0
19218.460994116405,-5264.0
19218.46105661364,1248.0
19218.461119110878,8114.0
19218.461181608116,11975.0
19218.461244105354,13099.0
19218.46130660259,15014.0
19218.461369099827,15298.0
19218.461431597065,12995.0
19218.461494094303,10537.0
19218.461556591537,8518.0
19218.461619088775,5804.0
19218.461681586014,3372.0
19218.46174408325,3339.0
19218.461806580486,3554.0
19218.461869077724,1968.0
19218.461931574962,49.0
19218.4619940722,-1227.0
19218.462056569435,-3155.0
19218.462119066673,-5179.0
19218.46218156391,-4924.0
19218.46224406115,-3979.0
19218.462306558384,-3545.0
19218.462369055622,-2101.0
19218.46243155286,640.0
19218.462494050094,3777.0
19218.462556547332,6721.0
19218.46261904457,9626.0
19218.46268154181,11796.0
19218.462744039043,11956.0
19218.46280653628,10897.0
19218.46286903352,10153.0
19218.462931530757,9304.0
19218.462994027992,7924.0
19218.46305652523,6932.0
19218.463119022468,6045.0
19218.463181519706,4827.0
19218.46324401694,3973.0
19218.46330651418,3516.0
19218.463369011417,3378.0
19218.463431508655,2825.0
19218.46349400589,1475.0
19218.463556503128,439.0
19218.463619000366,-1064.0
19218.463681497604,-2413.0
19218.46374399484,-2535.0
19218.463806492076,-2111.0
19218.463868989315,-1570.0
19218.463931486553,-122.0
19218.463993983787,2569.0
19218.464056481025,4256.0
19218.464118978263,6341.0
19218.4641814755,9321.0
19218.464243972736,10420.0
19218.464306469974,11603.0
19218.464368967212,13585.0
19218.464431464447,13123.0
19218.464493961685,11788.0
19218.464556458923,12303.0
19218.46461895616,11448.0
19218.464681453395,9939.0
19218.464743950633,10522.0
19218.46480644787,10540.0
19218.46486894511,8822.0
19218.464931442344,8118.0
19218.464993939582,7302.0
19218.46505643682,4524.0
19218.46511893406,2647.0
19218.465181431293,1751.0
19218.46524392853,-37.0
19218.46530642577,-2023.0
19218.465368923007,-2286.0
19218.46543142024,-2297.0
19218.46549391748,-3797.0
19218.465556414718,-4044.0
19218.465618911956,-3859.0
19218.46568140919,-5958.0
19218.46574390643,-8125.0
19218.465806403667,-9170.0
19218.4658689009,-11074.0
19218.46593139814,-13188.0
19218.465993895377,-14067.0
19218.466056392615,-14728.0
19218.466118889854,-15838.0
19218.466181387088,-16642.0
19218.466243884326,-16991.0
19218.466306381564,-17515.0
19218.4663688788,-18457.0
19218.466431376037,-19594.0
19218.466493873275,-20702.0
19218.466556370513,-22074.0
19218.466618867747,-23327.0
19218.466681364986,-24009.0
19218.466743862224,-24340.0
19218.46680635946,-24726.0
19218.466868856696,-23444.0
19218.466931353934,-17583.0
19218.466993851172,-9949.0
19218.46705634841,-3129.0
19218.467118845645,5077.0
19218.467181342883,12070.0
19218.46724384012,14456.0
19218.46730633736,15822.0
19218.467368834594,17219.0
19218.467431331832,15369.0
19218.46749382907,12157.0
19218.467556326308,9965.0
19218.467618823543,7121.0
19218.46768132078,3848.0
19218.46774381802,2517.0
19218.467806315253,3040.0
19218.46786881249,2744.0
19218.46793130973,1106.0
19218.467993806968,-255.0
19218.468056304206,-2049.0
19218.46811880144,-4929.0
19218.46818129868,-6385.0
19218.468243795916,-5684.0
19218.46830629315,-5182.0
19218.46836879039,-4378.0
19218.468431287627,-1758.0
19218.468493784865,1418.0
19218.4685562821,4583.0
19218.468618779338,8203.0
19218.468681276576,11521.0
19218.468743773814,13014.0
19218.46880627105,12949.0
19218.468868768286,12076.0
19218.468931265525,10737.0
19218.468993762763,9378.0
19218.469056259997,7906.0
19218.469118757235,6584.0
19218.469181254473,5325.0
19218.46924375171,4161.0
19218.469306248946,3281.0
19218.469368746184,2755.0
19218.469431243422,2517.0
19218.46949374066,1783.0
19218.469556237895,501.0
19218.469618735133,-1104.0
19218.46968123237,-2526.0
19218.469743729605,-3154.0
19218.469806226844,-3380.0
19218.46986872408,-2851.0
19218.46993122132,-1330.0
19218.469993718554,218.0
19218.470056215792,1943.0
19218.47011871303,4745.0
19218.47018121027,7431.0
19218.470243707503,8923.0
19218.47030620474,10512.0
19218.47036870198,11881.0
19218.470431199217,12564.0
19218.47049369645,12629.0
19218.47055619369,12220.0
19218.470618690928,12331.0
19218.470681188166,10855.0
19218.4707436854,9406.0
19218.47080618264,10167.0
19218.470868679877,9594.0
19218.470931177115,8192.0
19218.47099367435,8362.0
19218.471056171587,7489.0
19218.471118668826,4518.0
19218.471181166064,3111.0
19218.471243663298,2411.0
19218.471306160536,265.0
19218.471368657774,-848.0
19218.471431155012,-565.0
19218.471493652247,-1263.0
19218.471556149485,-2427.0
19218.471618646723,-2121.0
19218.471681143958,-2021.0
19218.471743641196,-4163.0
19218.471806138434,-6095.0
19218.471868635672,-7212.0
19218.471931132906,-10130.0
19218.471993630144,-12616.0
19218.472056127383,-12844.0
19218.47211862462,-13915.0
19218.472181121855,-15168.0
19218.472243619093,-15065.0
19218.47230611633,-15590.0
19218.47236861357,-16939.0
19218.472431110804,-17733.0
19218.472493608042,-18358.0
19218.47255610528,-19702.0
19218.47261860252,-21573.0
19218.472681099753,-22929.0
19218.47274359699,-23725.0
19218.47280609423,-24881.0
19218.472868591467,-25386.0
19218.4729310887,-24927.0
19218.47299358594,-23801.0
19218.473056083178,-18200.0
19218.473118580412,-9411.0
19218.47318107765,-2347.0
19218.47324357489,5351.0
19218.473306072126,13121.0
19218.473368569365,15282.0
19218.4734310666,16051.0
19218.473493563837,17907.0
19218.473556061075,16171.0
19218.47361855831,12637.0
19218.473681055548,10404.0
19218.473743552786,7967.0
19218.473806050024,4310.0
19218.47386854726,2929.0
19218.473931044497,3838.0
19218.473993541735,2984.0
19218.474056038973,838.0
19218.474118536207,-613.0
19218.474181033445,-2463.0
19218.474243530683,-5758.0
19218.47430602792,-7008.0
19218.474368525156,-5571.0
19218.474431022394,-5289.0
19218.474493519632,-4567.0
19218.47455601687,-1793.0
19218.474618514105,1387.0
19218.474681011343,4341.0
19218.47474350858,7779.0
19218.47480600582,11297.0
19218.474868503054,12717.0
19218.47493100029,12295.0
19218.47499349753,11726.0
19218.475055994764,10906.0
19218.475118492002,9625.0
19218.47518098924,8410.0
19218.47524348648,7535.0
19218.475305983713,6009.0
19218.47536848095,4533.0
19218.47543097819,3854.0
19218.475493475427,3136.0
19218.475555972662,2678.0
19218.4756184699,2019.0
19218.475680967138,489.0
19218.475743464376,-1341.0
19218.47580596161,-2858.0
19218.47586845885,-3627.0
19218.475930956087,-3654.0
19218.475993453325,-2972.0
19218.47605595056,-1758.0
19218.476118447797,-53.0
19218.476180945036,2181.0
19218.476243442274,4887.0
19218.476305939508,7784.0
19218.476368436746,10354.0
19218.476430933984,12057.0
19218.476493431222,12776.0
19218.476555928457,12674.0
19218.476618425695,12152.0
19218.476680922933,11430.0
19218.47674342017,10576.0
19218.476805917406,9934.0
19218.476868414644,9160.0
19218.476930911882,8644.0
19218.476993409116,8510.0
19218.477055906355,8545.0
19218.477118403593,8491.0
19218.47718090083,7301.0
19218.477243398065,5949.0
19218.477305895303,4426.0
19218.47736839254,2278.0
19218.47743088978,779.0
19218.477493387014,191.0
19218.477555884252,-239.0
19218.47761838149,-977.0
19218.47768087873,-1208.0
19218.477743375963,-1457.0
19218.4778058732,-2517.0
19218.47786837044,-3846.0
19218.477930867677,-5325.0
19218.47799336491,-7546.0
19218.47805586215,-10458.0
19218.478118359388,-12603.0
19218.478180856626,-13903.0
19218.47824335386,-15021.0
19218.4783058511,-15632.0
19218.478368348337,-15611.0
19218.47843084557,-15761.0
19218.47849334281,-16673.0
19218.478555840047,-17292.0
19218.478618337285,-17703.0
19218.478680834523,-18846.0
19218.478743331758,-20482.0
19218.478805828996,-21676.0
19218.478868326234,-22879.0
