time,X_NOSE,Y_NOSE,Z_NOSE,visibility_NOSE,X_LEFT_EYE_INNER,Y_LEFT_EYE_INNER,Z_LEFT_EYE_INNER,visibility_LEFT_EYE_INNER,X_LEFT_EYE,Y_LEFT_EYE,Z_LEFT_EYE,visibility_LEFT_EYE,X_LEFT_EYE_OUTER,Y_LEFT_EYE_OUTER,Z_LEFT_EYE_OUTER,visibility_LEFT_EYE_OUTER,X_RIGHT_EYE_OUTER,Y_RIGHT_EYE_OUTER,Z_RIGHT_EYE_OUTER,visibility_RIGHT_EYE_OUTER,X_RIGHT_EYE,Y_RIGHT_EYE,Z_RIGHT_EYE,visibility_RIGHT_EYE,X_RIGHT_EYE_OUTER,Y_RIGHT_EYE_OUTER,Z_RIGHT_EYE_OUTER,visibility_RIGHT_EYE_OUTER,X_LEFT_EAR,Y_LEFT_EAR,Z_LEFT_EAR,visibility_LEFT_EAR,X_RIGHT_EAR,Y_RIGHT_EAR,Z_RIGHT_EAR,visibility_RIGHT_EAR,X_MOUTH_LEFT,Y_MOUTH_LEFT,Z_MOUTH_LEFT,visibility_MOUTH_LEFT,X_MOUTH_RIGHT,Y_MOUTH_RIGHT,Z_MOUTH_RIGHT,visibility_MOUTH_RIGHT,X_LEFT_SHOULDER,Y_LEFT_SHOULDER,Z_LEFT_SHOULDER,visibility_LEFT_SHOULDER,X_RIGHT_SHOULDER,Y_RIGHT_SHOULDER,Z_RIGHT_SHOULDER,visibility_RIGHT_SHOULDER,X_LEFT_ELBOW,Y_LEFT_ELBOW,Z_LEFT_ELBOW,visibility_LEFT_ELBOW,X_RIGHT_ELBOW,Y_RIGHT_ELBOW,Z_RIGHT_ELBOW,visibility_RIGHT_ELBOW,X_LEFT_WRIST,Y_LEFT_WRIST,Z_LEFT_WRIST,visibility_LEFT_WRIST,X_RIGHT_WRIST,Y_RIGHT_WRIST,Z_RIGHT_WRIST,visibility_RIGHT_WRIST,X_LEFT_PINKY,Y_LEFT_PINKY,Z_LEFT_PINKY,visibility_LEFT_PINKY,X_RIGHT_PINKY,Y_RIGHT_PINKY,Z_RIGHT_PINKY,visibility_RIGHT_PINKY,X_LEFT_INDEX,Y_LEFT_INDEX,Z_LEFT_INDEX,visibility_LEFT_INDEX,X_RIGHT_INDEX,Y_RIGHT_INDEX,Z_RIGHT_INDEX,visibility_RIGHT_INDEX,X_LEFT_THUMB,Y_LEFT_THUMB,Z_LEFT_THUMB,visibility_LEFT_THUMB,X_RIGHT_THUMB,Y_RIGHT_THUMB,Z_RIGHT_THUMB,visibility_RIGHT_THUMB,X_LEFT_HIP,Y_LEFT_HIP,Z_LEFT_HIP,visibility_LEFT_HIP,X_RIGHT_HIP,Y_RIGHT_HIP,Z_RIGHT_HIP,visibility_RIGHT_HIP,X_LEFT_KNEE,Y_LEFT_KNEE,Z_LEFT_KNEE,visibility_LEFT_KNEE,X_RIGHT_KNEE,Y_RIGHT_KNEE,Z_RIGHT_KNEE,visibility_RIGHT_KNEE,X_LEFT_ANKLE,Y_LEFT_ANKLE,Z_LEFT_ANKLE,visibility_LEFT_ANKLE,X_RIGHT_ANKLE,Y_RIGHT_ANKLE,Z_RIGHT_ANKLE,visibility_RIGHT_ANKLE,X_LEFT_HEEL,Y_LEFT_HEEL,Z_LEFT_HEEL,visibility_LEFT_HEEL,X_RIGHT_HEEL,Y_RIGHT_HEEL,Z_RIGHT_HEEL,visibility_RIGHT_HEEL,X_LEFT_FOOT_INDEX,Y_LEFT_FOOT_INDEX,Z_LEFT_FOOT_INDEX,visibility_LEFT_FOOT_INDEX,X_RIGHT_FOOT_INDEX,Y_RIGHT_FOOT_INDEX,Z_RIGHT_FOOT_INDEX,visibility_RIGHT_FOOT_INDEX
18778.454695624758,0.4241408705711365,0.2330135703086853,-1.1474028825759888,0.999993085861206,0.42965278029441833,0.20925411581993103,-1.0919660329818726,0.9999856948852539,0.43795254826545715,0.20811909437179565,-1.0919266939163208,0.9999855756759644,0.4452410638332367,0.20693853497505188,-1.091810941696167,0.9999786615371704,0.3967698812484741,0.21084651350975037,-1.1291424036026,0.9999874830245972,0.3777543306350708,0.21062397956848145,-1.1293340921401978,0.99998939037323,0.35750606656074524,0.21066945791244507,-1.1294045448303223,0.9999856948852539,0.43501171469688416,0.21456730365753174,-0.72133868932724,0.9999867677688599,0.30406758189201355,0.22119900584220886,-0.8997518420219421,0.9999881982803345,0.4300059378147125,0.2561322748661041,-1.0052330493927002,0.9999945163726807,0.39626428484916687,0.2595526874065399,-1.0556936264038086,0.9999955892562866,0.5100783109664917,0.3495120108127594,-0.41010749340057373,0.9999338388442993,0.1504812389612198,0.3749564588069916,-0.7296313047409058,0.9998457431793213,0.5655753016471863,0.5083593726158142,-0.061831939965486526,0.9827881455421448,0.16983197629451752,0.5586079359054565,-1.0537117719650269,0.9909447431564331,0.637189507484436,0.6387984156608582,-0.20212921500205994,0.9888057708740234,0.23635171353816986,0.4886426031589508,-1.6885932683944702,0.9926435351371765,0.6559160351753235,0.681973397731781,-0.24124298989772797,0.9762181043624878,0.2598283886909485,0.45937687158584595,-1.8234764337539673,0.9873319268226624,0.6435701847076416,0.681614339351654,-0.332615464925766,0.9778351187705994,0.24413827061653137,0.4309130907058716,-1.8485294580459595,0.9871852993965149,0.633922815322876,0.6709933876991272,-0.2362348586320877,0.9779386520385742,0.23762483894824982,0.4371858239173889,-1.7080286741256714,0.9805237054824829,0.47856321930885315,0.6280388236045837,0.10742419958114624,0.9989857077598572,0.30064451694488525,0.648050844669342,-0.10737621039152145,0.9991440773010254,0.47937870025634766,0.8257429003715515,0.4001137316226959,0.9671918749809265,0.33358797430992126,0.8639755845069885,0.13908793032169342,0.9821911454200745,0.4796583652496338,0.9468263983726501,1.2630430459976196,0.920006275177002,0.34790173172950745,0.9829303026199341,0.8573119640350342,0.9401957392692566,0.4577440917491913,0.9615313410758972,1.3292139768600464,0.885966956615448,0.34607797861099243,0.985135018825531,0.9146184325218201,0.7813080549240112,0.5472230315208435,1.0145766735076904,1.041773796081543,0.8975582122802734,0.4058101773262024,1.0743803977966309,0.5206447839736938,0.8707157373428345
18795.121362291426,0.4198928475379944,0.2342982292175293,-1.204830288887024,0.9999951124191284,0.42568016052246094,0.21111059188842773,-1.149745225906372,0.9999892711639404,0.4345153570175171,0.21003937721252441,-1.1496987342834473,0.9999890327453613,0.4423784911632538,0.20894074440002441,-1.1496098041534424,0.9999834299087524,0.3931407332420349,0.21218234300613403,-1.1835527420043945,0.9999908208847046,0.3742034435272217,0.21166571974754333,-1.183762788772583,0.9999923706054688,0.35535457730293274,0.21157482266426086,-1.1838282346725464,0.9999899864196777,0.43335604667663574,0.21644583344459534,-0.7733312845230103,0.99998939037323,0.30454209446907043,0.22245553135871887,-0.936660647392273,0.9999915361404419,0.4273315668106079,0.25724276900291443,-1.0599257946014404,0.9999957084655762,0.3943839371204376,0.260082483291626,-1.106264352798462,0.9999967813491821,0.508399486541748,0.35019248723983765,-0.4460630416870117,0.9999363422393799,0.15136666595935822,0.37599942088127136,-0.7467809915542603,0.9998675584793091,0.5682963728904724,0.5079578757286072,-0.09187982976436615,0.9858630299568176,0.16748254001140594,0.5603567361831665,-1.0636945962905884,0.9928414821624756,0.6347658634185791,0.6388939619064331,-0.2346927672624588,0.9899030923843384,0.2350488156080246,0.49007877707481384,-1.7179131507873535,0.994451105594635,0.6548138856887817,0.6819629073143005,-0.27467769384384155,0.9774666428565979,0.2563076615333557,0.4605417847633362,-1.8567225933074951,0.9898271560668945,0.6415587663650513,0.6817103624343872,-0.36646848917007446,0.9789056777954102,0.24166785180568695,0.43375810980796814,-1.8798781633377075,0.9896727800369263,0.6317223310470581,0.6707003712654114,-0.2684648931026459,0.9785364270210266,0.23831059038639069,0.43971285223960876,-1.736495018005371,0.9837772846221924,0.477718710899353,0.6251464486122131,0.09903151541948318,0.9990222454071045,0.29816558957099915,0.6434773802757263,-0.09906748682260513,0.9991687536239624,0.48164939880371094,0.8258528709411621,0.38135382533073425,0.9722558856010437,0.3348974287509918,0.8637962341308594,0.1332053393125534,0.9844117760658264,0.47884947061538696,0.9511240720748901,1.2465919256210327,0.9276115298271179,0.3516016900539398,0.9846581220626831,0.850010097026825,0.9472118020057678,0.4564360976219177,0.9635225534439087,1.3124732971191406,0.8875812888145447,0.34872153401374817,0.9860041737556458,0.9069333076477051,0.7849185466766357,0.5413374900817871,1.0141505002975464,1.0141441822052002,0.9077638983726501,0.4122028052806854,1.0747582912445068,0.5037153363227844,0.8856306672096252
18811.788028958093,0.4245009124279022,0.23259368538856506,-1.0736587047576904,0.9999874830245972,0.4290417730808258,0.2085951566696167,-1.0173174142837524,0.9999755620956421,0.43705087900161743,0.2073657214641571,-1.017341136932373,0.9999752044677734,0.4440782368183136,0.2062276005744934,-1.0173077583312988,0.9999644756317139,0.39697057008743286,0.21036866307258606,-1.05622136592865,0.9999802112579346,0.3777671158313751,0.21016734838485718,-1.0564689636230469,0.999983549118042,0.35784825682640076,0.21035394072532654,-1.0566335916519165,0.9999792575836182,0.43203455209732056,0.21464145183563232,-0.6512094736099243,0.9999775886535645,0.3050631880760193,0.22190171480178833,-0.834816575050354,0.9999837875366211,0.43118739128112793,0.2551761269569397,-0.9330827593803406,0.9999915361404419,0.3979892134666443,0.25930655002593994,-0.985198974609375,0.9999939203262329,0.5091179013252258,0.34899085760116577,-0.34220290184020996,0.9999096393585205,0.1539587825536728,0.3759627044200897,-0.6752941012382507,0.9998310804367065,0.5684194564819336,0.508763313293457,-0.012464363127946854,0.9813064336776733,0.16736091673374176,0.5618836879730225,-0.9897648692131042,0.9921156764030457,0.6378419995307922,0.6398503184318542,-0.17748673260211945,0.985133171081543,0.2304334193468094,0.4861922562122345,-1.611924648284912,0.9937509894371033,0.6576093435287476,0.6820153594017029,-0.22310848534107208,0.9691739082336426,0.2523837089538574,0.45773327350616455,-1.7432140111923218,0.9889426231384277,0.646269679069519,0.6808868646621704,-0.3089067339897156,0.9718502163887024,0.2392900586128235,0.4292101263999939,-1.7696967124938965,0.9890050292015076,0.6366490125656128,0.6700360774993896,-0.21063561737537384,0.9722437858581543,0.234612837433815,0.4352981448173523,-1.6302611827850342,0.982916533946991,0.4803774356842041,0.6291260719299316,0.10802771151065826,0.998227059841156,0.3038927912712097,0.6494995355606079,-0.10798618942499161,0.9985076785087585,0.4794822633266449,0.8374255299568176,0.3206278085708618,0.9470797181129456,0.33654630184173584,0.8735560178756714,0.07317239046096802,0.962925374507904,0.4801509380340576,0.9571795463562012,1.165812611579895,0.8557412624359131,0.3488391041755676,0.9890111684799194,0.7603254914283752,0.875189483165741,0.4591357707977295,0.9665284156799316,1.2302223443984985,0.8048679828643799,0.3440702259540558,0.9893304705619812,0.8146308660507202,0.6426635980606079,0.5382185578346252,1.0179834365844727,0.9321595430374146,0.8189879059791565,0.40585511922836304,1.0871909856796265,0.4076700210571289,0.7678086161613464
18828.45469562476,0.422608882188797,0.23291128873825073,-1.0971368551254272,0.9999877214431763,0.4278757572174072,0.20967337489128113,-1.0435783863067627,0.9999756813049316,0.43622854351997375,0.2085886001586914,-1.0435916185379028,0.9999755620956421,0.4437648355960846,0.20756441354751587,-1.0435627698898315,0.9999644756317139,0.39619317650794983,0.21081793308258057,-1.0777758359909058,0.9999791383743286,0.3768213391304016,0.21046176552772522,-1.0779916048049927,0.9999825954437256,0.3564883768558502,0.21057039499282837,-1.078111171722412,0.9999775886535645,0.4337056279182434,0.2150905728340149,-0.6910352110862732,0.9999781847000122,0.3057554066181183,0.22140702605247498,-0.8535097241401672,0.9999823570251465,0.4294149577617645,0.2557505667209625,-0.9620134234428406,0.9999915361404419,0.39583998918533325,0.2590780556201935,-1.007946491241455,0.9999933242797852,0.5080526471138,0.3482418656349182,-0.3957770764827728,0.9999041557312012,0.1569625586271286,0.37270352244377136,-0.6873373985290527,0.9997982382774353,0.5686867833137512,0.5082191824913025,-0.06317068636417389,0.9815906286239624,0.16149359941482544,0.5578676462173462,-0.992469310760498,0.991826057434082,0.6378099918365479,0.638688325881958,-0.19831904768943787,0.9846557378768921,0.22995659708976746,0.48954319953918457,-1.6007883548736572,0.9930485486984253,0.656389594078064,0.6804230809211731,-0.23838572204113007,0.968097448348999,0.2541596293449402,0.45993247628211975,-1.727630376815796,0.9874842762947083,0.6454737186431885,0.6801910400390625,-0.3225039541721344,0.9707282185554504,0.2383120208978653,0.4317013919353485,-1.753018856048584,0.9875180125236511,0.636676549911499,0.6688083410263062,-0.2302599400281906,0.9717559218406677,0.23361778259277344,0.4377458691596985,-1.6195721626281738,0.9814022183418274,0.4807388484477997,0.6252908110618591,0.09012341499328613,0.9985796213150024,0.3032119572162628,0.645104706287384,-0.09007292240858078,0.9986907839775085,0.47849026322364807,0.8319306373596191,0.30623629689216614,0.9585494995117188,0.33484503626823425,0.8635904788970947,0.10372616350650787,0.9705199003219604,0.4787391722202301,0.9590392112731934,1.1487361192703247,0.8796501159667969,0.348694771528244,0.9796528220176697,0.796561598777771,0.8949819803237915,0.45697763562202454,0.9684429168701172,1.2123548984527588,0.827114462852478,0.3444385826587677,0.9811210632324219,0.851945698261261,0.6845191121101379,0.5313528776168823,1.0211865901947021,0.9205353260040283,0.8384366631507874,0.3894643783569336,1.0717260837554932,0.4639700949192047,0.7985067963600159
18845.12136229143,0.42193764448165894,0.232980877161026,-1.1002578735351562,0.9999889135360718,0.42750293016433716,0.2093716561794281,-1.0448907613754272,0.9999775886535645,0.43593254685401917,0.20824435353279114,-1.044914960861206,0.9999771118164062,0.4434802830219269,0.2071363627910614,-1.044898509979248,0.9999669790267944,0.3955969214439392,0.2107173502445221,-1.0801317691802979,0.9999814033508301,0.3762105405330658,0.21043157577514648,-1.0803616046905518,0.9999841451644897,0.3557688593864441,0.2105606496334076,-1.0805028676986694,0.9999802112579346,0.43476560711860657,0.2147449254989624,-0.681668221950531,0.9999791383743286,0.30390459299087524,0.22140133380889893,-0.8479740023612976,0.9999847412109375,0.4291294515132904,0.2559908330440521,-0.960861325263977,0.9999922513961792,0.39518147706985474,0.2593509256839752,-1.0079892873764038,0.9999942779541016,0.5102611184120178,0.3482055068016052,-0.37418773770332336,0.9999035596847534,0.15603861212730408,0.3731556534767151,-0.6823245882987976,0.9998354911804199,0.5693230628967285,0.5092466473579407,-0.045848503708839417,0.9789828062057495,0.16361147165298462,0.5594764351844788,-0.9696199297904968,0.992122232913971,0.636833906173706,0.6390112638473511,-0.20812679827213287,0.9822523593902588,0.23616120219230652,0.49318253993988037,-1.5588982105255127,0.9927200078964233,0.6553520560264587,0.6808353066444397,-0.25450068712234497,0.9641513824462891,0.2595632076263428,0.46388518810272217,-1.6860723495483398,0.9867784976959229,0.6446608304977417,0.6806818842887878,-0.3417454659938812,0.9671285152435303,0.24050062894821167,0.4343453049659729,-1.7135106325149536,0.9867952466011047,0.6359089016914368,0.6689227223396301,-0.24237336218357086,0.9679531455039978,0.23720070719718933,0.44002237915992737,-1.5774610042572021,0.9801438450813293,0.48065876960754395,0.6280187964439392,0.09860991686582565,0.99824059009552,0.30310338735580444,0.6480517387390137,-0.09853243082761765,0.9985615611076355,0.48011061549186707,0.8332979083061218,0.30558469891548157,0.9581279158592224,0.33905351161956787,0.8706226348876953,0.0823574811220169,0.9725381135940552,0.48121869564056396,0.9591648578643799,1.1615084409713745,0.8772584795951843,0.3526831269264221,0.9846861958503723,0.7778432369232178,0.9015446305274963,0.46108782291412354,0.9686850309371948,1.2263096570968628,0.8222520351409912,0.3494669795036316,0.9833078980445862,0.8326165676116943,0.6850404739379883,0.5348389744758606,1.0187525749206543,0.9263176918029785,0.8406819105148315,0.3994973301887512,1.0824592113494873,0.4275926351547241,0.8076764941215515
18861.788028958097,0.4238116145133972,0.23160752654075623,-1.12356436252594,0.9999918937683105,0.4283822178840637,0.20822718739509583,-1.0677138566970825,0.999983549118042,0.4365687668323517,0.2071772813796997,-1.0677003860473633,0.9999830722808838,0.4438338577747345,0.20618611574172974,-1.0676499605178833,0.9999750852584839,0.3964678943157196,0.20946979522705078,-1.1033252477645874,0.9999861717224121,0.377546101808548,0.20912376046180725,-1.1035385131835938,0.999988317489624,0.357893168926239,0.20933935046195984,-1.103660225868225,0.9999850988388062,0.43341806530952454,0.2144472897052765,-0.7041065692901611,0.9999845027923584,0.30635759234428406,0.22132670879364014,-0.8728899955749512,0.9999886751174927,0.4311748743057251,0.25434988737106323,-0.9846410155296326,0.9999942779541016,0.39728617668151855,0.2582162916660309,-1.0324276685714722,0.9999958276748657,0.5097087621688843,0.3493964672088623,-0.393592894077301,0.99991774559021,0.15844276547431946,0.3727688789367676,-0.7141690254211426,0.9998596906661987,0.5661447644233704,0.5097483992576599,-0.05641228333115578,0.98051917552948,0.16075296700000763,0.5578023791313171,-1.005544900894165,0.9927563071250916,0.6359087824821472,0.6402685642242432,-0.20563900470733643,0.9847536087036133,0.2344917207956314,0.4930483102798462,-1.5869312286376953,0.9934942126274109,0.6553468704223633,0.6822072267532349,-0.24821923673152924,0.9687398672103882,0.2586843967437744,0.4658081531524658,-1.7146357297897339,0.9880649447441101,0.645281195640564,0.6821473240852356,-0.336568146944046,0.971213161945343,0.24424786865711212,0.43623602390289307,-1.740847110748291,0.9880346655845642,0.6365938186645508,0.6702038645744324,-0.23989403247833252,0.9720919132232666,0.23994478583335876,0.4416365921497345,-1.6050411462783813,0.9819023609161377,0.47770729660987854,0.6255394220352173,0.10616062581539154,0.9986608028411865,0.30182892084121704,0.6458140015602112,-0.10612966865301132,0.998887836933136,0.4803403913974762,0.8282665014266968,0.32291609048843384,0.9648411870002747,0.33663761615753174,0.865598201751709,0.08377861976623535,0.9803553819656372,0.4801642894744873,0.9558084011077881,1.1928648948669434,0.9042373299598694,0.34921109676361084,0.9820340871810913,0.7945594191551208,0.9295386672019958,0.45781612396240234,0.9666866660118103,1.2590746879577637,0.8585917353630066,0.34517690539360046,0.9824221134185791,0.8509514331817627,0.7394866347312927,0.5426780581474304,1.0168025493621826,0.9649514555931091,0.8769875764846802,0.3998941481113434,1.0761069059371948,0.45030203461647034,0.854659378528595
18878.454695624765,0.41840860247612,0.2334669530391693,-1.0329457521438599,0.9999901056289673,0.42542025446891785,0.20842808485031128,-0.9794599413871765,0.999981164932251,0.4350293278694153,0.2069931924343109,-0.9795419573783875,0.9999806880950928,0.4431881606578827,0.20572379231452942,-0.9795705080032349,0.9999735355377197,0.3905329704284668,0.21078765392303467,-1.0102618932724,0.9999831914901733,0.37098151445388794,0.21094942092895508,-1.0104554891586304,0.999984622001648,0.3520573675632477,0.21149882674217224,-1.0105767250061035,0.9999808073043823,0.4377000629901886,0.21490535140037537,-0.6217482686042786,0.9999831914901733,0.3038434684276581,0.2230599820613861,-0.7685389518737793,0.9999849796295166,0.4279206395149231,0.2563383877277374,-0.8949267864227295,0.9999933242797852,0.3907533884048462,0.25987979769706726,-0.936488926410675,0.9999946355819702,0.5071523189544678,0.34749355912208557,-0.32835933566093445,0.9999116659164429,0.153363898396492,0.3742026686668396,-0.5966697335243225,0.9998231530189514,0.5651386976242065,0.5106285214424133,-0.04671357572078705,0.978949785232544,0.1684582233428955,0.5592067241668701,-0.8915384411811829,0.9853127598762512,0.6384445428848267,0.6410073041915894,-0.23944994807243347,0.980792224407196,0.23525145649909973,0.4884379208087921,-1.5230281352996826,0.9896252751350403,0.6586548089981079,0.6818439960479736,-0.2930524945259094,0.9627485275268555,0.2547896206378937,0.4576667547225952,-1.6508303880691528,0.9838511347770691,0.6503719091415405,0.6819649338722229,-0.3818061351776123,0.9659116864204407,0.23828142881393433,0.4295027554035187,-1.6842193603515625,0.9841025471687317,0.6421694159507751,0.671383798122406,-0.2751712501049042,0.967082142829895,0.2339075207710266,0.4366956353187561,-1.5458377599716187,0.97718346118927,0.4764890670776367,0.6251598596572876,0.09506595134735107,0.997829020023346,0.3024011552333832,0.645953893661499,-0.09489905089139938,0.9982622265815735,0.47801870107650757,0.8389437198638916,0.2827690839767456,0.9590930938720703,0.3378174602985382,0.8727275133132935,0.0554831400513649,0.9740363955497742,0.48421773314476013,0.9686390161514282,1.0187695026397705,0.892967939376831,0.35718896985054016,0.992342472076416,0.6522167325019836,0.907529890537262,0.4677945673465729,0.9788896441459656,1.0703352689743042,0.8280249238014221,0.3534434735774994,0.9926390647888184,0.6965880990028381,0.6905779838562012,0.5510405898094177,1.0239672660827637,0.7667269706726074,0.8367308378219604,0.39598819613456726,1.0917326211929321,0.29799768328666687,0.7997292280197144
18895.121362291433,0.4223490357398987,0.23591947555541992,-1.051711082458496,0.99998939037323,0.4292851984500885,0.21043771505355835,-1.0000532865524292,0.9999792575836182,0.4382428526878357,0.20895111560821533,-1.0001025199890137,0.9999791383743286,0.44566139578819275,0.20767155289649963,-1.0001293420791626,0.9999700784683228,0.3941504955291748,0.213078111410141,-1.0336811542510986,0.9999815225601196,0.37384167313575745,0.21324896812438965,-1.0338777303695679,0.9999837875366211,0.3542048931121826,0.21365070343017578,-1.033998966217041,0.99997878074646,0.43729647994041443,0.21647188067436218,-0.6436548233032227,0.9999822378158569,0.30542126297950745,0.2246626615524292,-0.8040274977684021,0.999984622001648,0.4301495850086212,0.2582361400127411,-0.9129071235656738,0.9999926090240479,0.39379143714904785,0.2626638114452362,-0.9584095478057861,0.9999939203262329,0.505649209022522,0.3480197787284851,-0.33859682083129883,0.9999202489852905,0.15581917762756348,0.3751937747001648,-0.6297584176063538,0.9998195767402649,0.5640451908111572,0.5094893574714661,-0.014009847305715084,0.9790219664573669,0.15826131403446198,0.5564122796058655,-0.9408714771270752,0.9875636100769043,0.6353903412818909,0.6388747692108154,-0.1577199548482895,0.9826618432998657,0.2378087341785431,0.48671755194664,-1.56486976146698,0.9905154705047607,0.6558822393417358,0.6801162958145142,-0.19691696763038635,0.9660075902938843,0.259212851524353,0.4567200243473053,-1.6896910667419434,0.9844785928726196,0.6480962038040161,0.6798250079154968,-0.28579896688461304,0.9690268039703369,0.24486252665519714,0.42839962244033813,-1.7161812782287598,0.9846211671829224,0.6400833129882812,0.6695018410682678,-0.19165965914726257,0.9702060222625732,0.24152331054210663,0.4340938925743103,-1.5842633247375488,0.9775257706642151,0.4767225682735443,0.6223559379577637,0.09195259213447571,0.9981237053871155,0.30346906185150146,0.6438828706741333,-0.09184245020151138,0.9983697533607483,0.47809022665023804,0.8351213335990906,0.25999224185943604,0.9588708877563477,0.3381439447402954,0.8694287538528442,0.0496363565325737,0.9692426323890686,0.4858686625957489,0.9655161499977112,1.0249367952346802,0.8831104636192322,0.3598514199256897,0.9900547862052917,0.6660917401313782,0.8968762159347534,0.471534788608551,0.9756878018379211,1.0800647735595703,0.825376033782959,0.35616376996040344,0.9910258054733276,0.7129282355308533,0.6772392988204956,0.5525600910186768,1.0223060846328735,0.7793888449668884,0.826513409614563,0.39839744567871094,1.0872585773468018,0.31502991914749146,0.7863428592681885
18911.7880289581,0.4224752187728882,0.23351240158081055,-0.9973593354225159,0.9999855756759644,0.42802178859710693,0.20911908149719238,-0.9422780275344849,0.9999728202819824,0.4369838535785675,0.2078591287136078,-0.9423654675483704,0.9999725818634033,0.4444713592529297,0.20668929815292358,-0.9424222707748413,0.9999618530273438,0.3943464756011963,0.21079164743423462,-0.9771841168403625,0.9999759197235107,0.3747020959854126,0.21054381132125854,-0.9773743152618408,0.99997878074646,0.35505086183547974,0.210696280002594,-0.9775007963180542,0.999972939491272,0.43605920672416687,0.2152993381023407,-0.5842528939247131,0.9999761581420898,0.3055344223976135,0.22163215279579163,-0.7489577531814575,0.9999798536300659,0.4304797947406769,0.2559944689273834,-0.8592666983604431,0.9999901056289673,0.3948655426502228,0.25953298807144165,-0.9060075879096985,0.9999920129776001,0.5073745250701904,0.3481447696685791,-0.2896585762500763,0.9998972415924072,0.1526406854391098,0.37464815378189087,-0.5811592936515808,0.9997686743736267,0.5675358772277832,0.5094945430755615,0.01807757467031479,0.9784587025642395,0.16397814452648163,0.5607166290283203,-0.8791938424110413,0.9856669306755066,0.6371240615844727,0.6413508653640747,-0.15147210657596588,0.9797936081886292,0.23611707985401154,0.4899020195007324,-1.500222086906433,0.9893078207969666,0.6579042673110962,0.6832200884819031,-0.19854560494422913,0.9603418111801147,0.25654980540275574,0.4608748257160187,-1.624906301498413,0.9829906225204468,0.6488103866577148,0.6830915212631226,-0.28620535135269165,0.9642843008041382,0.24008898437023163,0.4320288896560669,-1.6581768989562988,0.9834088087081909,0.6407327651977539,0.6723161339759827,-0.18633700907230377,0.965793251991272,0.2357485443353653,0.43861040472984314,-1.5220903158187866,0.9760285019874573,0.4779694080352783,0.6257256865501404,0.09432633221149445,0.9978481531143188,0.3016819357872009,0.6462689638137817,-0.09419208019971848,0.9981099367141724,0.4777758717536926,0.8431832194328308,0.23476281762123108,0.9533054828643799,0.3387596905231476,0.8732790946960449,0.03043939545750618,0.9620997309684753,0.48629188537597656,0.9704934358596802,0.9989293813705444,0.865625262260437,0.35813480615615845,0.9929525852203369,0.6455197334289551,0.8721513152122498,0.4702322483062744,0.9782055020332336,1.0530897378921509,0.7966218590736389,0.35420048236846924,0.992490291595459,0.6916432976722717,0.6263207197189331,0.5460230112075806,1.0332567691802979,0.7418470978736877,0.7956582903862,0.3922557830810547,1.0936843156814575,0.28609639406204224,0.7459366321563721
18928.45469562477,0.4197971820831299,0.23575487732887268,-0.9871090054512024,0.9999887943267822,0.42663684487342834,0.2120817005634308,-0.931899905204773,0.9999786615371704,0.43574199080467224,0.21086734533309937,-0.9319688677787781,0.9999788999557495,0.4435793161392212,0.2097441852092743,-0.9319933652877808,0.9999706745147705,0.3926597535610199,0.21376609802246094,-0.9659134745597839,0.9999799728393555,0.37310442328453064,0.21351584792137146,-0.9660690426826477,0.9999821186065674,0.3541835844516754,0.21361085772514343,-0.9661619067192078,0.9999762773513794,0.4368247389793396,0.21810945868492126,-0.5731533169746399,0.9999814033508301,0.3061769902706146,0.223763108253479,-0.735561728477478,0.9999814033508301,0.42778101563453674,0.25872328877449036,-0.8492666482925415,0.9999918937683105,0.39242082834243774,0.2622229754924774,-0.8952978849411011,0.9999929666519165,0.505640983581543,0.3475079834461212,-0.2823580503463745,0.9999262094497681,0.15563267469406128,0.37286585569381714,-0.5722901225090027,0.9997673630714417,0.5653217434883118,0.5073947906494141,0.024487853050231934,0.982328474521637,0.16905397176742554,0.5541689395904541,-0.8756808042526245,0.9828081727027893,0.6337758898735046,0.6362912058830261,-0.1352252960205078,0.9859144687652588,0.23244798183441162,0.4892798960208893,-1.497194528579712,0.9876958131790161,0.6566071510314941,0.678787350654602,-0.1804267317056656,0.9714231491088867,0.25613728165626526,0.4601565897464752,-1.6235601902008057,0.9813149571418762,0.648125946521759,0.6789108514785767,-0.2702609598636627,0.9740439653396606,0.23881161212921143,0.4311925768852234,-1.6559090614318848,0.9816415309906006,0.6390834450721741,0.6694551110267639,-0.1702735275030136,0.9745532274246216,0.2366359382867813,0.4377080202102661,-1.5196423530578613,0.9738127589225769,0.47763434052467346,0.6218026280403137,0.10225255787372589,0.9981639981269836,0.30473506450653076,0.642073929309845,-0.10206188261508942,0.9983168840408325,0.4786646366119385,0.8335386514663696,0.2730921506881714,0.963925838470459,0.33509355783462524,0.8638391494750977,0.03617846593260765,0.9739503264427185,0.48671552538871765,0.9615603685379028,1.031251311302185,0.8986147046089172,0.3571195900440216,0.9868097305297852,0.6445851922035217,0.9080983996391296,0.47015801072120667,0.9712257385253906,1.0854883193969727,0.8351645469665527,0.35584932565689087,0.9872797131538391,0.6903704404830933,0.6791720986366272,0.5480217933654785,1.0225468873977661,0.7821616530418396,0.8404032588005066,0.39992329478263855,1.0865553617477417,0.28942790627479553,0.7974801659584045
18945.121362291437,0.41993165016174316,0.23501884937286377,-1.04488205909729,0.9999908208847046,0.4270266890525818,0.20825845003128052,-0.9900044798851013,0.999982476234436,0.4366263449192047,0.2069249153137207,-0.9900647401809692,0.9999825954437256,0.44468918442726135,0.20590108633041382,-0.9900697469711304,0.9999754428863525,0.39141055941581726,0.2112579047679901,-1.0235799551010132,0.999983549118042,0.37116268277168274,0.21194514632225037,-1.023763656616211,0.9999853372573853,0.35173583030700684,0.21291345357894897,-1.0238816738128662,0.9999805688858032,0.4387521743774414,0.21588897705078125,-0.6230818629264832,0.999984860420227,0.3030000627040863,0.22487398982048035,-0.7822369337081909,0.9999856948852539,0.42953482270240784,0.2572929561138153,-0.9030153155326843,0.9999936819076538,0.39155930280685425,0.2620268166065216,-0.9481355547904968,0.9999946355819702,0.507061243057251,0.3483925759792328,-0.3131849467754364,0.9999393224716187,0.1554720103740692,0.3744359016418457,-0.619789183139801,0.9998263716697693,0.5655149221420288,0.5094068646430969,-0.005921152886003256,0.9806196689605713,0.17124788463115692,0.5557326674461365,-0.9072362184524536,0.9860239028930664,0.6361163854598999,0.6370576024055481,-0.18187859654426575,0.9853044152259827,0.24218778312206268,0.4880690276622772,-1.4920544624328613,0.9889007806777954,0.6579329967498779,0.6794103384017944,-0.23001061379909515,0.970655620098114,0.26235854625701904,0.4584285020828247,-1.6155736446380615,0.982178270816803,0.6484483480453491,0.6792315244674683,-0.32113415002822876,0.9733032584190369,0.24418702721595764,0.4267759621143341,-1.6469892263412476,0.9823065400123596,0.6397366523742676,0.6696164608001709,-0.21785001456737518,0.9738060832023621,0.24033422768115997,0.4330962300300598,-1.5125868320465088,0.9743887186050415,0.47687411308288574,0.6244336366653442,0.10879983752965927,0.9982460737228394,0.30437421798706055,0.6452654600143433,-0.10863679647445679,0.9984252452850342,0.4776671528816223,0.835110068321228,0.3070637881755829,0.9559701085090637,0.3353874981403351,0.8701558113098145,0.05438821390271187,0.9740297198295593,0.4831840991973877,0.962750256061554,1.084663987159729,0.8880918025970459,0.35831260681152344,0.9912168383598328,0.6842129826545715,0.9089065790176392,0.4648419916629791,0.973099410533905,1.1409587860107422,0.8322845697402954,0.3543128967285156,0.9920576214790344,0.7324142456054688,0.6990365386009216,0.5464023947715759,1.0221468210220337,0.8359842300415039,0.8383055329322815,0.4079775810241699,1.0923563241958618,0.32775741815567017,0.8068211078643799
18961.788028958104,0.42166879773139954,0.2359088659286499,-1.0693306922912598,0.9999923706054688,0.427875280380249,0.2111821472644806,-1.0150792598724365,0.9999852180480957,0.43690577149391174,0.20967724919319153,-1.0151129961013794,0.9999854564666748,0.4445597529411316,0.2082604169845581,-1.0151138305664062,0.9999792575836182,0.3937892019748688,0.21367347240447998,-1.047511339187622,0.9999867677688599,0.3737386167049408,0.21362176537513733,-1.0476723909378052,0.999988317489624,0.35385745763778687,0.21391981840133667,-1.0477598905563354,0.9999847412109375,0.43670302629470825,0.21687480807304382,-0.6550454497337341,0.9999872446060181,0.3057262897491455,0.22433164715766907,-0.8097518682479858,0.9999881982803345,0.4296553134918213,0.25836482644081116,-0.930823564529419,0.9999945163726807,0.39420512318611145,0.2628799080848694,-0.9745863676071167,0.9999954700469971,0.5067279934883118,0.3481178283691406,-0.3547673225402832,0.9999336004257202,0.15304411947727203,0.37408000230789185,-0.6414231061935425,0.9998297691345215,0.5630884766578674,0.5075570344924927,-0.046125613152980804,0.9830900430679321,0.1657063066959381,0.5572879910469055,-0.9546930193901062,0.9888581037521362,0.6328437328338623,0.6359391212463379,-0.20521476864814758,0.9862935543060303,0.2409885823726654,0.4895421266555786,-1.58040189743042,0.9914060831069946,0.6560988426208496,0.6794568300247192,-0.2502501904964447,0.9717273116111755,0.26611170172691345,0.45901331305503845,-1.7097417116165161,0.9855930209159851,0.6466168165206909,0.6795831322669983,-0.33841389417648315,0.9741015434265137,0.2483314424753189,0.43047192692756653,-1.7345647811889648,0.985605776309967,0.637657642364502,0.6701620817184448,-0.23927660286426544,0.9744054675102234,0.24424977600574493,0.4363466501235962,-1.5995005369186401,0.978631854057312,0.476270467042923,0.6236828565597534,0.09945071488618851,0.9982380867004395,0.30467644333839417,0.6457825303077698,-0.09928630292415619,0.998502254486084,0.478496789932251,0.829777181148529,0.3146023154258728,0.9633497595787048,0.3349999487400055,0.864973783493042,0.06806781142950058,0.9783433079719543,0.4856855869293213,0.9618297219276428,1.0720901489257812,0.9030874967575073,0.3547060191631317,0.9872711300849915,0.6855872869491577,0.9192044138908386,0.46736496686935425,0.9724798202514648,1.1261110305786133,0.8438118100166321,0.3526511490345001,0.9879173040390015,0.7324488759040833,0.7121462225914001,0.5484634041786194,1.0190012454986572,0.8244478702545166,0.8523491621017456,0.40276286005973816,1.084970474243164,0.3346315920352936,0.8191580772399902
18978.454695624772,0.4219950735569,0.23617783188819885,-1.0486218929290771,0.9999904632568359,0.4284023344516754,0.21228712797164917,-0.9946582317352295,0.9999814033508301,0.43724116683006287,0.21106624603271484,-0.9947160482406616,0.9999817609786987,0.44484543800354004,0.20988783240318298,-0.9947421550750732,0.9999738931655884,0.3953247368335724,0.21411257982254028,-1.027051568031311,0.9999831914901733,0.37550753355026245,0.2138124406337738,-1.0272293090820312,0.9999853372573853,0.35547739267349243,0.21391335129737854,-1.027343511581421,0.9999805688858032,0.4365893304347992,0.21774688363075256,-0.6346365213394165,0.9999843835830688,0.3071494698524475,0.22402489185333252,-0.788855791091919,0.9999853372573853,0.42928415536880493,0.2582099437713623,-0.9096058011054993,0.9999933242797852,0.394912987947464,0.2618614733219147,-0.953326404094696,0.9999943971633911,0.5086527466773987,0.3490356206893921,-0.334826797246933,0.9999266862869263,0.1552436500787735,0.37384578585624695,-0.6167790293693542,0.999809205532074,0.5654234290122986,0.5074825286865234,-0.020881805568933487,0.982056200504303,0.16625724732875824,0.559802770614624,-0.9298442006111145,0.9873313307762146,0.6363420486450195,0.6405779123306274,-0.1782451570034027,0.9842268824577332,0.23841311037540436,0.48725664615631104,-1.5593940019607544,0.9898691177368164,0.6563280820846558,0.6826879382133484,-0.22241657972335815,0.9680131077766418,0.2592097520828247,0.4600566029548645,-1.6872667074203491,0.9832229018211365,0.6480854153633118,0.6828125715255737,-0.3113643229007721,0.9710583686828613,0.2448398470878601,0.4302169680595398,-1.714766502380371,0.983396589756012,0.6405735015869141,0.672042191028595,-0.21268397569656372,0.9718209505081177,0.24241051077842712,0.43638908863067627,-1.5795204639434814,0.9756602644920349,0.47761088609695435,0.6249561309814453,0.09255442023277283,0.9981456995010376,0.3027496635913849,0.645011305809021,-0.09241031110286713,0.9983678460121155,0.47823795676231384,0.8368275165557861,0.28074735403060913,0.9617539048194885,0.33706435561180115,0.8671379685401917,0.06255143135786057,0.9736310243606567,0.48518919944763184,0.9649525880813599,1.0561591386795044,0.8941650986671448,0.3575786054134369,0.9889873266220093,0.6914644241333008,0.9076364040374756,0.4683282673358917,0.9743449091911316,1.11166250705719,0.8336686491966248,0.3566015958786011,0.9899159669876099,0.7391881346702576,0.6887187361717224,0.5454396605491638,1.0243465900421143,0.8031169176101685,0.840326726436615,0.395553857088089,1.0887538194656372,0.3358384966850281,0.8041886687278748
18995.12136229144,0.4215210974216461,0.2377178966999054,-1.042263150215149,0.9999858140945435,0.42876046895980835,0.21275967359542847,-0.9897557497024536,0.9999724626541138,0.43786168098449707,0.21136817336082458,-0.9898003935813904,0.9999717473983765,0.4454387426376343,0.21008551120758057,-0.9898321032524109,0.9999599456787109,0.39498528838157654,0.21515482664108276,-1.025894045829773,0.9999768733978271,0.3749660849571228,0.2151297628879547,-1.0261224508285522,0.9999802112579346,0.35541462898254395,0.21539843082427979,-1.0262789726257324,0.999975323677063,0.43721604347229004,0.21861693263053894,-0.6284523010253906,0.9999748468399048,0.30646365880966187,0.22554457187652588,-0.7996182441711426,0.9999817609786987,0.4294148087501526,0.2600901126861572,-0.9013162851333618,0.9999905824661255,0.39471372961997986,0.2641151547431946,-0.949945330619812,0.9999933242797852,0.5069692730903625,0.3488392233848572,-0.313794881105423,0.9999134540557861,0.15506276488304138,0.3761793375015259,-0.6303152441978455,0.9998291730880737,0.5629162788391113,0.5086941719055176,0.024121470749378204,0.9797643423080444,0.1604805588722229,0.5598818063735962,-0.9373224973678589,0.990516722202301,0.6335595846176147,0.6400662064552307,-0.1261710226535797,0.9830243587493896,0.2405579686164856,0.48991191387176514,-1.5491256713867188,0.9918121099472046,0.6538429260253906,0.6820420622825623,-0.1685749590396881,0.9663816094398499,0.2645752429962158,0.4596835672855377,-1.6752254962921143,0.9859920144081116,0.6451650857925415,0.6817996501922607,-0.2570587396621704,0.9695481061935425,0.2501375675201416,0.4322948753833771,-1.7005083560943604,0.9861709475517273,0.637028694152832,0.671028196811676,-0.16009782254695892,0.970382571220398,0.24481607973575592,0.4387664198875427,-1.5664746761322021,0.9792130589485168,0.47671061754226685,0.6265960335731506,0.10121376067399979,0.9980024695396423,0.3008555471897125,0.64640212059021,-0.10112082958221436,0.9982494711875916,0.4809010624885559,0.8393551707267761,0.2501233220100403,0.950056254863739,0.33595409989356995,0.8719202876091003,0.03439343348145485,0.9628323912620544,0.4858766794204712,0.9620058536529541,1.0674697160720825,0.8552129864692688,0.3533838987350464,0.9902055263519287,0.6846083998680115,0.8755685687065125,0.4672887325286865,0.969317615032196,1.128993272781372,0.7955123782157898,0.34781867265701294,0.9881584048271179,0.735422670841217,0.6338909864425659,0.5413764715194702,1.024207353591919,0.8303412199020386,0.8017114400863647,0.3963508605957031,1.0903984308242798,0.33085790276527405,0.7562734484672546
19011.788028958108,0.4208589196205139,0.2368829846382141,-1.034327745437622,0.9999911785125732,0.42751097679138184,0.21170231699943542,-0.9799478650093079,0.9999833106994629,0.43677571415901184,0.21031498908996582,-0.9800016283988953,0.9999830722808838,0.4445018768310547,0.20910584926605225,-0.9800108671188354,0.9999762773513794,0.3928186595439911,0.2141130268573761,-1.0127516984939575,0.9999853372573853,0.3725065290927887,0.21406424045562744,-1.012923240661621,0.999987006187439,0.35297366976737976,0.21432676911354065,-1.0130276679992676,0.9999834299087524,0.43649011850357056,0.21798524260520935,-0.6204080581665039,0.9999850988388062,0.3052526116371155,0.22455987334251404,-0.7764449715614319,0.9999876022338867,0.4291731119155884,0.2592487633228302,-0.8958469033241272,0.9999940395355225,0.3935815691947937,0.2634843587875366,-0.9400012493133545,0.9999953508377075,0.5059789419174194,0.3485783338546753,-0.32279154658317566,0.9999274015426636,0.15496210753917694,0.375262588262558,-0.610500693321228,0.9998403787612915,0.5617654919624329,0.5065808296203613,-0.020861132070422173,0.9807650446891785,0.16420504450798035,0.5581347346305847,-0.9184012413024902,0.9888764023780823,0.6312606334686279,0.637502133846283,-0.19477617740631104,0.9837971329689026,0.2412668764591217,0.48865097761154175,-1.5419780015945435,0.9909528493881226,0.6522579193115234,0.6813830733299255,-0.24345917999744415,0.9677786827087402,0.2640373110771179,0.45966488122940063,-1.669938564300537,0.9848765134811401,0.6442636251449585,0.681439220905304,-0.3311297297477722,0.9705035090446472,0.24970433115959167,0.4313843250274658,-1.6963454484939575,0.9849187135696411,0.6361280083656311,0.67079097032547,-0.22945040464401245,0.9708957076072693,0.24546098709106445,0.4379417896270752,-1.5613092184066772,0.9777487516403198,0.47651028633117676,0.6255264282226562,0.10013961046934128,0.9981597065925598,0.3050859570503235,0.6468609571456909,-0.09995648264884949,0.9984526634216309,0.4795866012573242,0.8353332281112671,0.29702138900756836,0.9584060311317444,0.33709025382995605,0.8681094646453857,0.05843895301222801,0.9742584824562073,0.48416879773139954,0.9644216895103455,1.0459901094436646,0.889309287071228,0.3563946485519409,0.9884204864501953,0.6682351231575012,0.9052616357803345,0.46558621525764465,0.9744590520858765,1.0992788076400757,0.8277223110198975,0.35160765051841736,0.988135576248169,0.7142985463142395,0.6925137042999268,0.5488204956054688,1.0217170715332031,0.7986940741539001,0.8337773680686951,0.4020301103591919,1.083277702331543,0.3188735544681549,0.7965210676193237
19028.454695624776,0.4271646738052368,0.23367354273796082,-1.0706764459609985,0.9999946355819702,0.4325270354747772,0.20985132455825806,-1.0144520998001099,0.99998939037323,0.44055578112602234,0.2087564766407013,-1.0144761800765991,0.99998939037323,0.44744813442230225,0.20777735114097595,-1.0144739151000977,0.9999847412109375,0.4004882574081421,0.21117794513702393,-1.0486080646514893,0.9999910593032837,0.3811403512954712,0.2107340395450592,-1.0487936735153198,0.9999922513961792,0.3604857325553894,0.2106418013572693,-1.0488743782043457,0.9999898672103882,0.4353468418121338,0.21566244959831238,-0.6563432812690735,0.9999908208847046,0.3063870668411255,0.2215474545955658,-0.8190972208976746,0.9999926090240479,0.43358632922172546,0.2555282413959503,-0.9339617490768433,0.9999961853027344,0.3994097411632538,0.259660542011261,-0.9801493287086487,0.9999970197677612,0.5091010332107544,0.3494085371494293,-0.3674430251121521,0.9999319314956665,0.1535317450761795,0.3732273578643799,-0.6534432172775269,0.9998584985733032,0.5659215450286865,0.50916588306427,-0.058830149471759796,0.983704149723053,0.1568325161933899,0.5572579503059387,-0.9712242484092712,0.9912181496620178,0.6383439898490906,0.6417452692985535,-0.21582438051700592,0.9853970408439636,0.23405541479587555,0.49473780393600464,-1.599010705947876,0.9916302561759949,0.6566746830940247,0.6827771663665771,-0.2605549395084381,0.9693370461463928,0.25943344831466675,0.4681429862976074,-1.728882074356079,0.9851372241973877,0.6475820541381836,0.6824945211410522,-0.3476148247718811,0.97188401222229,0.2414601743221283,0.4355788230895996,-1.7526954412460327,0.9850659370422363,0.6403413414955139,0.6717492938041687,-0.24967128038406372,0.9723756313323975,0.23649898171424866,0.4415484666824341,-1.6177294254302979,0.977846622467041,0.47757184505462646,0.6256999373435974,0.09105619788169861,0.9984484910964966,0.3037963807582855,0.6449965238571167,-0.0909370481967926,0.9987736344337463,0.4785134196281433,0.8384315967559814,0.300911545753479,0.9694757461547852,0.3359105587005615,0.8681016564369202,0.0776316225528717,0.9806414246559143,0.4843498468399048,0.9659446477890015,1.0782488584518433,0.9132204055786133,0.35669833421707153,0.9904961585998535,0.7115451097488403,0.9291403293609619,0.467990517616272,0.9752893447875977,1.1340104341506958,0.8561490178108215,0.3542473018169403,0.9908515214920044,0.7592541575431824,0.7290115356445312,0.5514578819274902,1.0229969024658203,0.8311876058578491,0.871744692325592,0.3996644914150238,1.0858814716339111,0.3582752048969269,0.8418700695037842
19045.121362291444,0.42522215843200684,0.2339484989643097,-1.0970784425735474,0.9999935626983643,0.4313648045063019,0.20988285541534424,-1.0411046743392944,0.9999871253967285,0.4398043751716614,0.20879361033439636,-1.0411005020141602,0.9999872446060181,0.447012335062027,0.20786601305007935,-1.041038990020752,0.9999808073043823,0.39812347292900085,0.2113555669784546,-1.0772247314453125,0.9999885559082031,0.37833887338638306,0.21111804246902466,-1.0773935317993164,0.9999903440475464,0.3581612706184387,0.2112332284450531,-1.0774589776992798,0.9999866485595703,0.43709734082221985,0.21659475564956665,-0.6782289743423462,0.9999886751174927,0.3066617250442505,0.2217436134815216,-0.8514169454574585,0.9999899864196777,0.43228617310523987,0.25635549426078796,-0.9584771394729614,0.9999951124191284,0.3969208598136902,0.2601315379142761,-1.0074856281280518,0.9999960660934448,0.5073001384735107,0.34932392835617065,-0.3768812119960785,0.9999395608901978,0.15678025782108307,0.3747278153896332,-0.6825425624847412,0.9998282194137573,0.5658078193664551,0.5091487169265747,-0.03386659920215607,0.9855620861053467,0.16351483762264252,0.5571545362472534,-1.0018036365509033,0.990629255771637,0.6366562843322754,0.6391345858573914,-0.17218933999538422,0.9894720911979675,0.2391500473022461,0.4906652867794037,-1.6323590278625488,0.9924613833427429,0.6569936275482178,0.6802980899810791,-0.21059827506542206,0.9773005247116089,0.26048505306243896,0.4603935480117798,-1.764381766319275,0.9868395924568176,0.6466025114059448,0.6801295280456543,-0.30020853877067566,0.9791625738143921,0.24732105433940887,0.43169552087783813,-1.787735939025879,0.986831545829773,0.6375480890274048,0.670346736907959,-0.20589272677898407,0.9793161749839783,0.24283438920974731,0.43831726908683777,-1.650967001914978,0.9801340699195862,0.47894468903541565,0.6255640387535095,0.10036258399486542,0.9989748001098633,0.3026527166366577,0.646173894405365,-0.10028847306966782,0.9990360736846924,0.48162686824798584,0.8281822204589844,0.3407701253890991,0.9687860608100891,0.33481577038764954,0.8624343276023865,0.10329683870077133,0.9796468019485474,0.48454055190086365,0.955156683921814,1.1877156496047974,0.9121742248535156,0.3513675034046173,0.9805797338485718,0.8038555979728699,0.9289392232894897,0.4649949371814728,0.9645524621009827,1.2512104511260986,0.8695179224014282,0.3466811180114746,0.9813458323478699,0.8593388795852661,0.7486152052879333,0.5424726009368896,1.0158811807632446,0.9570119976997375,0.8762076497077942,0.39766576886177063,1.0681688785552979,0.4666607081890106,0.8480192422866821
19061.78802895811,0.42072346806526184,0.23414111137390137,-1.0605729818344116,0.9999911785125732,0.42720404267311096,0.20920467376708984,-1.0053919553756714,0.9999828338623047,0.4364858865737915,0.20786261558532715,-1.005434274673462,0.9999828338623047,0.44436734914779663,0.2067059874534607,-1.0054173469543457,0.9999755620956421,0.3918590843677521,0.21151039004325867,-1.035375714302063,0.999984622001648,0.3713993728160858,0.2116839587688446,-1.035547137260437,0.9999864101409912,0.3515816628932953,0.21224915981292725,-1.0356409549713135,0.9999823570251465,0.43793487548828125,0.2156587541103363,-0.6450623273849487,0.9999843835830688,0.3045978546142578,0.22333192825317383,-0.789178729057312,0.9999864101409912,0.4298667013645172,0.25664278864860535,-0.9228542447090149,0.9999938011169434,0.39248937368392944,0.26071369647979736,-0.9634629487991333,0.9999951124191284,0.5068249106407166,0.34843191504478455,-0.34594598412513733,0.9999186992645264,0.15893734991550446,0.37453019618988037,-0.620482861995697,0.9998241066932678,0.5627822875976562,0.5071977376937866,-0.043962642550468445,0.980270504951477,0.16400474309921265,0.5564471483230591,-0.9252076148986816,0.9880585074424744,0.631165623664856,0.6369147300720215,-0.21301765739917755,0.9839815497398376,0.24452738463878632,0.488896906375885,-1.549864411354065,0.9903274178504944,0.6519838571548462,0.6802424192428589,-0.2601199448108673,0.9681872725486755,0.26846322417259216,0.45926520228385925,-1.6776607036590576,0.9839443564414978,0.6432337760925293,0.6806990504264832,-0.3477119207382202,0.9705786108970642,0.2530398368835449,0.43049949407577515,-1.701576590538025,0.9837844371795654,0.6345463991165161,0.6701712012290955,-0.24709706008434296,0.9709460735321045,0.249123677611351,0.4377973675727844,-1.5684603452682495,0.9761019945144653,0.4769846200942993,0.6244809627532959,0.10261467099189758,0.9982571005821228,0.30651915073394775,0.6462563872337341,-0.10245933383703232,0.9985538125038147,0.47991761565208435,0.8294552564620972,0.32433021068573,0.9602225422859192,0.336559534072876,0.8674308061599731,0.07068364322185516,0.9790079593658447,0.48431962728500366,0.9603108763694763,1.0781104564666748,0.9029237031936646,0.35387372970581055,0.9856968522071838,0.6873771548271179,0.9219886064529419,0.4646720290184021,0.971301257610321,1.1319128274917603,0.8464718461036682,0.3527225852012634,1.0136765241622925,0.7340002059936523,0.7225078344345093,0.5488001704216003,1.0168581008911133,0.8340581655502319,0.8547705411911011,0.40495765209198,1.0810234546661377,0.33836987614631653,0.8245118856430054
19078.45469562478,0.42029768228530884,0.2344265580177307,-1.0908647775650024,0.9999912977218628,0.427590012550354,0.20756539702415466,-1.0374343395233154,0.9999829530715942,0.4370197057723999,0.20632007718086243,-1.037468671798706,0.9999828338623047,0.4450719654560089,0.20533093810081482,-1.037476658821106,0.999975323677063,0.3915996551513672,0.2104073464870453,-1.070791482925415,0.9999852180480957,0.3711450695991516,0.2111300826072693,-1.0709978342056274,0.9999871253967285,0.3517679274082184,0.21207845211029053,-1.071115493774414,0.9999833106994629,0.4385281503200531,0.21545475721359253,-0.6732245683670044,0.9999852180480957,0.3028857111930847,0.22448086738586426,-0.8316619396209717,0.9999878406524658,0.42964479327201843,0.25687456130981445,-0.9496041536331177,0.9999939203262329,0.39161133766174316,0.261158287525177,-0.9945549964904785,0.999995231628418,0.5073765516281128,0.34929147362709045,-0.3601205050945282,0.9999234676361084,0.15339739620685577,0.374781996011734,-0.6593403816223145,0.999842643737793,0.5649735927581787,0.5102880001068115,-0.037499044090509415,0.9810131192207336,0.16708983480930328,0.5584636926651001,-0.9611955881118774,0.9899420738220215,0.636201798915863,0.6395291090011597,-0.19079190492630005,0.9835811853408813,0.24500073492527008,0.48730146884918213,-1.565406084060669,0.9919075965881348,0.6561646461486816,0.6809599995613098,-0.23370318114757538,0.9669679999351501,0.26581430435180664,0.458446204662323,-1.6915863752365112,0.986012876033783,0.6469120979309082,0.6810027956962585,-0.3235167860984802,0.9697775840759277,0.24923159182071686,0.43009257316589355,-1.7168514728546143,0.9860267639160156,0.6390484571456909,0.6708481907844543,-0.22534160315990448,0.9706596732139587,0.2449493706226349,0.4358457922935486,-1.5835381746292114,0.9791042804718018,0.4772379398345947,0.6235899329185486,0.09791236370801926,0.9982232451438904,0.30291271209716797,0.6441468000411987,-0.0978207141160965,0.9985186457633972,0.47832563519477844,0.8366847634315491,0.30602148175239563,0.9637892842292786,0.33635765314102173,0.8691433072090149,0.07362265139818192,0.9765724539756775,0.4833144545555115,0.9635028839111328,1.095625400543213,0.9006505608558655,0.35804304480552673,0.9896278381347656,0.7165706157684326,0.9179298877716064,0.46553686261177063,0.9738633036613464,1.1528047323226929,0.8444658517837524,0.3577999174594879,0.9907268285751343,0.7658635377883911,0.7153218388557434,0.5449414253234863,1.022779941558838,0.8475983142852783,0.8537185788154602,0.40091872215270996,1.0881855487823486,0.36199161410331726,0.8251436352729797
19095.121362291447,0.421918660402298,0.23588886857032776,-1.0816850662231445,0.9999934434890747,0.4289974272251129,0.21145445108413696,-1.0289891958236694,0.9999867677688599,0.43788614869117737,0.21025410294532776,-1.0289969444274902,0.9999867677688599,0.44541674852371216,0.20917946100234985,-1.0289725065231323,0.9999808073043823,0.3944500684738159,0.2131502330303192,-1.0621280670166016,0.9999884366989136,0.3740876317024231,0.21291258931159973,-1.0622940063476562,0.9999899864196777,0.35404545068740845,0.21308505535125732,-1.0623754262924194,0.9999866485595703,0.4377386271953583,0.2171306610107422,-0.668792188167572,0.999988317489624,0.305042564868927,0.22351685166358948,-0.8277578949928284,0.9999901056289673,0.42939209938049316,0.25856897234916687,-0.9424158334732056,0.9999949932098389,0.39321112632751465,0.26220443844795227,-0.9874210357666016,0.9999960660934448,0.5082863569259644,0.34873485565185547,-0.3582127094268799,0.999941349029541,0.1533941924571991,0.37298858165740967,-0.65672367811203,0.999862790107727,0.5642209053039551,0.5081609487533569,-0.022514548152685165,0.9837680459022522,0.16529107093811035,0.5547955632209778,-0.974714457988739,0.9895881414413452,0.6346710324287415,0.6381888389587402,-0.15939699113368988,0.9872736930847168,0.2344651222229004,0.4892362952232361,-1.6103698015213013,0.9916971921920776,0.6543756723403931,0.6807951927185059,-0.19748011231422424,0.9736415147781372,0.25731247663497925,0.46083223819732666,-1.7410268783569336,0.9860854148864746,0.6452680826187134,0.6808536648750305,-0.28784847259521484,0.9758780598640442,0.24216942489147186,0.4325891137123108,-1.7674739360809326,0.9861859083175659,0.6375818848609924,0.6707102060317993,-0.19342704117298126,0.9761733412742615,0.23994122445583344,0.43885451555252075,-1.6304067373275757,0.9795194864273071,0.47712481021881104,0.6221058964729309,0.1026851087808609,0.9985939860343933,0.3036787807941437,0.6424747705459595,-0.10255998373031616,0.9988149404525757,0.47805920243263245,0.8303711414337158,0.3289274275302887,0.968765139579773,0.3346426486968994,0.8605926632881165,0.07468350976705551,0.9813247323036194,0.48366495966911316,0.9576941728591919,1.0964852571487427,0.9162777662277222,0.3558071255683899,0.9841526746749878,0.7046296000480652,0.9307853579521179,0.4660947620868683,0.9685230255126953,1.1517858505249023,0.8660463690757751,0.3601052165031433,1.0097358226776123,0.7528308033943176,0.7408182621002197,0.550660252571106,1.017696499824524,0.8524014353752136,0.8738438487052917,0.40555307269096375,1.0782620906829834,0.3572694659233093,0.8423337340354919
19111.788028958115,0.42044004797935486,0.23651394248008728,-1.1514918804168701,0.9999943971633911,0.42724257707595825,0.21016770601272583,-1.098836898803711,0.9999885559082031,0.43667882680892944,0.2086869478225708,-1.098832368850708,0.9999885559082031,0.444685697555542,0.20745980739593506,-1.0987848043441772,0.9999827146530151,0.3923332989215851,0.21305817365646362,-1.1310900449752808,0.9999902248382568,0.3717602491378784,0.21341881155967712,-1.1312931776046753,0.999991774559021,0.35210326313972473,0.2139776051044464,-1.1313891410827637,0.9999890327453613,0.43773791193962097,0.21711233258247375,-0.7337450385093689,0.99998939037323,0.3036697208881378,0.22502335906028748,-0.8872032165527344,0.9999921321868896,0.4293849468231201,0.2587432861328125,-1.0100966691970825,0.9999958276748657,0.3926433026790619,0.2632908821105957,-1.053526759147644,0.9999969005584717,0.5095285177230835,0.34992262721061707,-0.409699022769928,0.9999401569366455,0.15183819830417633,0.37480008602142334,-0.7142611145973206,0.9998886585235596,0.5654948949813843,0.5100734233856201,-0.07773257046937943,0.982788622379303,0.1640990823507309,0.559148371219635,-1.0051707029342651,0.9923989176750183,0.6358850002288818,0.6370638608932495,-0.23496639728546143,0.9866783618927002,0.24410857260227203,0.49208587408065796,-1.5978738069534302,0.9935895204544067,0.6573163270950317,0.6798436641693115,-0.27786779403686523,0.972262978553772,0.2682587206363678,0.4628453850746155,-1.726040244102478,0.9883916974067688,0.6476278305053711,0.6798730492591858,-0.3685429096221924,0.9745005369186401,0.251102477312088,0.43403929471969604,-1.7509970664978027,0.9883914589881897,0.6393437385559082,0.6700347661972046,-0.26989948749542236,0.9748059511184692,0.2470608800649643,0.44109833240509033,-1.6156162023544312,0.982501745223999,0.4773084223270416,0.6237380504608154,0.10214728116989136,0.998467743396759,0.30410659313201904,0.6456530690193176,-0.10206767171621323,0.9987772107124329,0.4777984023094177,0.8308594226837158,0.3647195100784302,0.964246392250061,0.335517942905426,0.862287700176239,0.10551318526268005,0.9816855192184448,0.4821487367153168,0.9575828313827515,1.157365322113037,0.9070945382118225,0.35537034273147583,0.9858414530754089,0.760527491569519,0.929835319519043,0.4631340503692627,0.9693390130996704,1.215240716934204,0.8577118515968323,0.35839176177978516,1.0135722160339355,0.8114220499992371,0.7499878406524658,0.5515899658203125,1.0177512168884277,0.9144106507301331,0.8716377019882202,0.4133288562297821,1.0816057920455933,0.4135110080242157,0.8480650186538696
19128.454695624783,0.4205528795719147,0.2368392050266266,-1.101219654083252,0.9999861717224121,0.4278312623500824,0.21016299724578857,-1.0486055612564087,0.999972939491272,0.43703556060791016,0.20871520042419434,-1.0486387014389038,0.9999721050262451,0.4449714422225952,0.20749685168266296,-1.0486366748809814,0.9999597072601318,0.3918512463569641,0.21290984749794006,-1.085030198097229,0.9999767541885376,0.3716394901275635,0.21331608295440674,-1.0852586030960083,0.9999802112579346,0.35253483057022095,0.2139509618282318,-1.085394024848938,0.9999747276306152,0.43892860412597656,0.21616607904434204,-0.6784680485725403,0.9999738931655884,0.30346840620040894,0.22477751970291138,-0.8520124554634094,0.9999815225601196,0.4299180507659912,0.2587633728981018,-0.9566662311553955,0.9999903440475464,0.3909691870212555,0.2628215551376343,-1.0059186220169067,0.9999932050704956,0.5057373046875,0.34873655438423157,-0.35055628418922424,0.9999135732650757,0.15174545347690582,0.37523478269577026,-0.6753758788108826,0.999830961227417,0.5623008012771606,0.5094376802444458,0.0004928145790472627,0.978405237197876,0.16231495141983032,0.559038519859314,-0.9706164002418518,0.990186333656311,0.6328132152557373,0.6359034776687622,-0.1461554914712906,0.9839211702346802,0.23880574107170105,0.48878711462020874,-1.5705537796020508,0.9918286204338074,0.6554220914840698,0.678622841835022,-0.18751466274261475,0.968306303024292,0.2584148347377777,0.460830420255661,-1.6978387832641602,0.9861059188842773,0.6461789608001709,0.6783644556999207,-0.27841660380363464,0.9711191654205322,0.2434728741645813,0.43244868516921997,-1.725818395614624,0.9863005876541138,0.6371309757232666,0.6685248017311096,-0.18084610998630524,0.9717344045639038,0.23905545473098755,0.4388619065284729,-1.5890940427780151,0.979390025138855,0.4767161011695862,0.6251810789108276,0.11018965393304825,0.9983440637588501,0.30034708976745605,0.6452484130859375,-0.11018659919500351,0.99847012758255,0.48062610626220703,0.8336201906204224,0.33692243695259094,0.9539920687675476,0.33350855112075806,0.8665546774864197,0.08494769036769867,0.9694015979766846,0.48343929648399353,0.9595059156417847,1.17600679397583,0.8701726794242859,0.350204199552536,0.9864498376846313,0.7709816098213196,0.8922309279441833,0.4630875289440155,0.9688433408737183,1.2397524118423462,0.817544162273407,0.3460211157798767,0.9847148656845093,0.8257052302360535,0.6773657202720642,0.5354344844818115,1.023389458656311,0.9400433897972107,0.8274597525596619,0.40119749307632446,1.0849413871765137,0.4208405911922455,0.7897298336029053
19145.12136229145,0.41985586285591125,0.23610270023345947,-1.1150380373001099,0.9999867677688599,0.4267953634262085,0.20925161242485046,-1.0624706745147705,0.9999744892120361,0.4361857771873474,0.20778480172157288,-1.062494158744812,0.9999740123748779,0.44430094957351685,0.20654842257499695,-1.0624821186065674,0.9999618530273438,0.3903718590736389,0.21206888556480408,-1.0965619087219238,0.9999775886535645,0.37028107047080994,0.21251338720321655,-1.0967764854431152,0.9999809265136719,0.35144442319869995,0.2131856381893158,-1.0968992710113525,0.999975323677063,0.4387473165988922,0.2152332365512848,-0.694991409778595,0.9999759197235107,0.3038352131843567,0.2243649661540985,-0.8578758239746094,0.9999823570251465,0.4297488331794739,0.25814807415008545,-0.9721588492393494,0.9999909400939941,0.3913070857524872,0.26215890049934387,-1.0182496309280396,0.9999934434890747,0.5072930455207825,0.3482217490673065,-0.37080487608909607,0.9999134540557861,0.15321719646453857,0.3750893473625183,-0.6835599541664124,0.9998272061347961,0.5616766810417175,0.5085665583610535,-0.026822343468666077,0.9783555269241333,0.16191020607948303,0.5572916865348816,-0.9794462323188782,0.9903576970100403,0.6326063871383667,0.6361711025238037,-0.17257803678512573,0.9833707809448242,0.2409062385559082,0.48900628089904785,-1.5746577978134155,0.9915123581886292,0.6562482118606567,0.6793275475502014,-0.21350426971912384,0.9674199819564819,0.2625586688518524,0.46145302057266235,-1.7007426023483276,0.9854334592819214,0.6467275619506836,0.6790408492088318,-0.3035850524902344,0.9701421856880188,0.24679487943649292,0.4327085018157959,-1.727056622505188,0.9855855107307434,0.6372462511062622,0.6692599654197693,-0.2069641798734665,0.9709385633468628,0.24220190942287445,0.4392552375793457,-1.5927953720092773,0.9786237478256226,0.476142942905426,0.6255257725715637,0.10786337405443192,0.9984740614891052,0.29933276772499084,0.6448364853858948,-0.10781953483819962,0.9985835552215576,0.4809228479862213,0.8315150737762451,0.33210518956184387,0.9568384885787964,0.3342651426792145,0.8661892414093018,0.08490737527608871,0.9735577702522278,0.48302674293518066,0.9597673416137695,1.1645662784576416,0.8810154795646667,0.34969833493232727,0.9829599857330322,0.7689391374588013,0.9026457071304321,0.4617473781108856,0.9694252014160156,1.2271490097045898,0.8309038281440735,0.345414400100708,0.9834656715393066,0.8234608173370361,0.6998324990272522,0.5366335511207581,1.0226500034332275,0.9291713833808899,0.8360333442687988,0.4003661572933197,1.0791893005371094,0.4249829351902008,0.803732693195343
19161.78802895812,0.42033565044403076,0.23259523510932922,-1.1386152505874634,0.9999918937683105,0.4258829951286316,0.20759886503219604,-1.0857254266738892,0.9999837875366211,0.43514177203178406,0.20616444945335388,-1.085729956626892,0.9999839067459106,0.44307172298431396,0.20493823289871216,-1.0856961011886597,0.999976396560669,0.3923792541027069,0.2098310887813568,-1.1175529956817627,0.9999858140945435,0.3734733462333679,0.20992425084114075,-1.1177496910095215,0.9999878406524658,0.35521990060806274,0.2104652225971222,-1.1178364753723145,0.9999839067459106,0.4354685842990875,0.21369749307632446,-0.7227980494499207,0.9999854564666748,0.3052709996700287,0.22163495421409607,-0.8760251402854919,0.9999878406524658,0.42967912554740906,0.2550431191921234,-0.9986840486526489,0.9999939203262329,0.3943638205528259,0.2586207389831543,-1.041966438293457,0.9999953508377075,0.5097032189369202,0.34737393260002136,-0.4099258780479431,0.9999243021011353,0.1539679616689682,0.3738175332546234,-0.6949241161346436,0.9998352527618408,0.5663376450538635,0.5089218616485596,-0.07854607701301575,0.9819946885108948,0.16213631629943848,0.5556634068489075,-1.0069977045059204,0.989909291267395,0.633799135684967,0.6377661824226379,-0.22209027409553528,0.9852370619773865,0.2397480458021164,0.49063313007354736,-1.6365762948989868,0.9905555844306946,0.6569938659667969,0.6790874600410461,-0.2623012363910675,0.9697738885879517,0.26049527525901794,0.4600673317909241,-1.766432762145996,0.9838252663612366,0.6481542587280273,0.6794376373291016,-0.352888822555542,0.9721782207489014,0.2449840009212494,0.43048644065856934,-1.7909678220748901,0.9838019609451294,0.6384561657905579,0.6695278286933899,-0.256397008895874,0.9727559685707092,0.24076589941978455,0.4382699728012085,-1.6556954383850098,0.9762316346168518,0.4775896668434143,0.6207235455513,0.09885016828775406,0.9984273910522461,0.304439902305603,0.6428910493850708,-0.09872767329216003,0.9986923336982727,0.48214665055274963,0.824637770652771,0.34980130195617676,0.9654507040977478,0.33473852276802063,0.8621325492858887,0.0982331782579422,0.981196939945221,0.48370587825775146,0.9568491578102112,1.1267725229263306,0.9095825552940369,0.3511276841163635,0.985529363155365,0.7373673915863037,0.9287205338478088,0.4640815258026123,0.9672922492027283,1.1830577850341797,0.8580739498138428,0.3567224442958832,1.0081961154937744,0.7863630056381226,0.7406944036483765,0.548873245716095,1.016202688217163,0.8836053609848022,0.8690102696418762,0.404474675655365,1.0765999555587769,0.38912078738212585,0.83946293592453
19178.454695624787,0.4213707447052002,0.23513829708099365,-1.152599573135376,0.9999946355819702,0.42724940180778503,0.2082458734512329,-1.0994881391525269,0.9999892711639404,0.4366496801376343,0.2068832516670227,-1.099444031715393,0.9999890327453613,0.44473573565483093,0.2057761549949646,-1.0993207693099976,0.9999833106994629,0.3919481039047241,0.21104174852371216,-1.132279396057129,0.9999905824661255,0.3714402914047241,0.21166598796844482,-1.1324363946914673,0.9999920129776001,0.3517697751522064,0.2126004695892334,-1.1324678659439087,0.9999892711639404,0.43712690472602844,0.21570563316345215,-0.7362756133079529,0.9999896287918091,0.3023017644882202,0.22496771812438965,-0.8944812417030334,0.9999916553497314,0.4307124614715576,0.2574935853481293,-1.012796401977539,0.9999955892562866,0.39337265491485596,0.26220983266830444,-1.0574167966842651,0.9999966621398926,0.5068073272705078,0.3489789664745331,-0.4251013398170471,0.9999440908432007,0.1511797457933426,0.37511706352233887,-0.721259593963623,0.9998716115951538,0.565077543258667,0.5083783864974976,-0.07611379772424698,0.9836597442626953,0.1605665385723114,0.553381085395813,-1.0454074144363403,0.9933284521102905,0.6348235607147217,0.6360028386116028,-0.20707054436206818,0.9899077415466309,0.24652697145938873,0.48531827330589294,-1.6655094623565674,0.9945875406265259,0.6561819314956665,0.6799266338348389,-0.24219883978366852,0.9782920479774475,0.2676277160644531,0.4551822543144226,-1.7959516048431396,0.9898638129234314,0.645228385925293,0.6797224879264832,-0.33063510060310364,0.9796793460845947,0.2520325183868408,0.4280373454093933,-1.8112285137176514,0.989648163318634,0.6361114978790283,0.6697059869766235,-0.2393200844526291,0.9795911312103271,0.24672041833400726,0.4358588457107544,-1.680067539215088,0.9838823080062866,0.47402918338775635,0.6272781491279602,0.09967680275440216,0.9992560744285583,0.3001694083213806,0.6463090777397156,-0.09971101582050323,0.9993056058883667,0.4801813066005707,0.8266454935073853,0.4349418580532074,0.9684187769889832,0.33712103962898254,0.8567699193954468,0.18014603853225708,0.9843212366104126,0.4792027175426483,0.9508891701698303,1.2739862203598022,0.9253318309783936,0.3461518883705139,0.9723854064941406,0.8977664113044739,0.9420655965805054,0.4577321410179138,0.9639502763748169,1.3380061388015747,0.8890857696533203,0.3411111831665039,0.9749231338500977,0.9570723176002502,0.7984634041786194,0.543714702129364,1.0145343542099,1.0566303730010986,0.9013361930847168,0.40277737379074097,1.058434009552002,0.5847606658935547,0.8778998851776123
19195.121362291455,0.42256540060043335,0.23428615927696228,-1.111992597579956,0.9999922513961792,0.4287550449371338,0.2069626748561859,-1.0594346523284912,0.9999852180480957,0.4379638433456421,0.20575428009033203,-1.0594255924224854,0.9999853372573853,0.4458153247833252,0.2047702968120575,-1.059366226196289,0.9999781847000122,0.3934839069843292,0.20995637774467468,-1.0940182209014893,0.9999874830245972,0.37294355034828186,0.21077728271484375,-1.0942046642303467,0.9999895095825195,0.35292336344718933,0.21182864904403687,-1.094299077987671,0.999985933303833,0.43846938014030457,0.21504157781600952,-0.6987229585647583,0.9999867677688599,0.3033272325992584,0.22447773814201355,-0.8632093667984009,0.9999901056289673,0.43161407113075256,0.25665855407714844,-0.9725028872489929,0.9999946355819702,0.39348945021629333,0.2614143192768097,-1.0189337730407715,0.9999959468841553,0.5073200464248657,0.3490065038204193,-0.3844448924064636,0.9999321699142456,0.15347418189048767,0.3754752576351166,-0.697694718837738,0.9998683929443359,0.5652961134910583,0.5083016753196716,-0.05029778182506561,0.981513500213623,0.16295263171195984,0.55326908826828,-1.0066213607788086,0.9923201203346252,0.6344755291938782,0.6385939717292786,-0.19255124032497406,0.9860115051269531,0.2420726865530014,0.4882037043571472,-1.6035581827163696,0.9930915832519531,0.6556560397148132,0.6805983185768127,-0.23207581043243408,0.9713882803916931,0.2663354277610779,0.4586676359176636,-1.7293592691421509,0.987704873085022,0.6460351943969727,0.6802799105644226,-0.31949639320373535,0.9738637208938599,0.2489241063594818,0.4299628436565399,-1.7542375326156616,0.9877868294715881,0.6370043158531189,0.670307457447052,-0.22587540745735168,0.9744040966033936,0.24351456761360168,0.43653300404548645,-1.621427059173584,0.9818539023399353,0.47705817222595215,0.6239922046661377,0.10659743845462799,0.9983886480331421,0.3047695457935333,0.6457260847091675,-0.10651317238807678,0.9986494183540344,0.4781922399997711,0.8290753960609436,0.38048475980758667,0.9543011784553528,0.33569061756134033,0.8636798858642578,0.11232353746891022,0.9747606515884399,0.48079660534858704,0.9587076902389526,1.1332134008407593,0.8864881992340088,0.350247859954834,0.985720694065094,0.7398775219917297,0.9022639989852905,0.45973721146583557,0.9682890772819519,1.1874972581863403,0.8393198251724243,0.34541648626327515,0.9868437647819519,0.7885226011276245,0.715419590473175,0.543113112449646,1.0178149938583374,0.8915484547615051,0.8395994901657104,0.4069725573062897,1.0775654315948486,0.39900514483451843,0.7968050837516785
19211.788028958123,0.42150744795799255,0.23507171869277954,-1.108193278312683,0.9999938011169434,0.42878663539886475,0.20969149470329285,-1.0552732944488525,0.9999877214431763,0.43794068694114685,0.20841774344444275,-1.055237889289856,0.9999874830245972,0.4456288814544678,0.20738041400909424,-1.0551475286483765,0.9999810457229614,0.3937792479991913,0.2118653655052185,-1.089167833328247,0.9999896287918091,0.37348970770835876,0.21212872862815857,-1.0893319845199585,0.9999912977218628,0.35429897904396057,0.21263906359672546,-1.0893900394439697,0.999988317489624,0.4379752278327942,0.2164098620414734,-0.695900559425354,0.9999884366989136,0.30458205938339233,0.22398459911346436,-0.8582829833030701,0.9999916553497314,0.43016549944877625,0.25744354724884033,-0.9698495268821716,0.9999954700469971,0.39255648851394653,0.2617998719215393,-1.0156009197235107,0.9999966621398926,0.5068904757499695,0.34859198331832886,-0.3835649788379669,0.9999376535415649,0.15414005517959595,0.37566107511520386,-0.6964330077171326,0.9998881816864014,0.5633455514907837,0.506830096244812,-0.042184051126241684,0.981181800365448,0.1632968783378601,0.5564579367637634,-1.0057077407836914,0.9924955368041992,0.6334994435310364,0.636958658695221,-0.1763915717601776,0.9864365458488464,0.24455353617668152,0.48701685667037964,-1.601345419883728,0.9936619997024536,0.6546593308448792,0.6801232099533081,-0.21252651512622833,0.9724029302597046,0.2676977813243866,0.4583437442779541,-1.7282018661499023,0.9887050986289978,0.6460566520690918,0.6800429821014404,-0.30103105306625366,0.9744582176208496,0.2514546513557434,0.4298749566078186,-1.7498878240585327,0.988669753074646,0.6374088525772095,0.669847309589386,-0.2098148614168167,0.9750334620475769,0.24682804942131042,0.4359481930732727,-1.6181895732879639,0.9830096364021301,0.4772041141986847,0.6236122250556946,0.10906559228897095,0.998838484287262,0.30589738488197327,0.6455525159835815,-0.1090097650885582,0.9990317821502686,0.48004084825515747,0.8268938064575195,0.39584940671920776,0.9632635116577148,0.3347032964229584,0.8603651523590088,0.12056992948055267,0.9817671179771423,0.48081648349761963,0.952985405921936,1.1755287647247314,0.9114863872528076,0.34978798031806946,0.9801968336105347,0.7750660181045532,0.9303158521652222,0.4594442546367645,0.9640663266181946,1.2328988313674927,0.8708187341690063,0.3460851013660431,0.9822171926498413,0.8267524242401123,0.7670429944992065,0.5494239926338196,1.0136439800262451,0.9469312429428101,0.8764244318008423,0.40384095907211304,1.0680527687072754,0.4453687071800232,0.848299503326416
19228.45469562479,0.42068254947662354,0.23572245240211487,-1.1446987390518188,0.9999918937683105,0.42710545659065247,0.20978543162345886,-1.0928269624710083,0.9999834299087524,0.4365800619125366,0.20847728848457336,-1.0928068161010742,0.9999831914901733,0.44447362422943115,0.2074112892150879,-1.0927766561508179,0.9999747276306152,0.39233359694480896,0.21231651306152344,-1.1279042959213257,0.9999862909317017,0.37194791436195374,0.21285554766654968,-1.1281225681304932,0.9999886751174927,0.3526665270328522,0.21372520923614502,-1.128251075744629,0.9999850988388062,0.43715035915374756,0.21729597449302673,-0.7260094881057739,0.9999849796295166,0.3035249710083008,0.2256290316581726,-0.8938555717468262,0.99998939037323,0.4294853210449219,0.2586019039154053,-1.0018856525421143,0.9999943971633911,0.39276015758514404,0.2627386152744293,-1.049454927444458,0.9999959468841553,0.5077833533287048,0.34983885288238525,-0.3939538896083832,0.9999289512634277,0.15545716881752014,0.3767855763435364,-0.718898594379425,0.9998719692230225,0.5630572438240051,0.5086365938186646,-0.03296482563018799,0.9812617897987366,0.1605382114648819,0.561936616897583,-1.0437602996826172,0.9928022027015686,0.6354257464408875,0.640177845954895,-0.16060777008533478,0.9862414598464966,0.23955389857292175,0.4868934452533722,-1.6713743209838867,0.9938051700592041,0.6560682058334351,0.6813490390777588,-0.19584108889102936,0.9720335602760315,0.26432475447654724,0.45714735984802246,-1.8027853965759277,0.9888267517089844,0.646098256111145,0.6805680394172668,-0.28579944372177124,0.9743561148643494,0.24973897635936737,0.4306819438934326,-1.8245218992233276,0.9888627529144287,0.6367130875587463,0.6702026128768921,-0.19383297860622406,0.9747128486633301,0.24411894381046295,0.4360336661338806,-1.6881089210510254,0.98297518491745,0.4781111776828766,0.6260010004043579,0.10686713457107544,0.9985407590866089,0.302942156791687,0.6464863419532776,-0.10688466578722,0.9987395405769348,0.4797341227531433,0.8380429744720459,0.3332214057445526,0.957672655582428,0.3356369435787201,0.8680119514465332,0.07996206730604172,0.9736449122428894,0.47927212715148926,0.9579813480377197,1.1545783281326294,0.8834888339042664,0.3511430621147156,0.9871214628219604,0.7522645592689514,0.9040067791938782,0.45708999037742615,0.9665469527244568,1.2159509658813477,0.8350451588630676,0.3444315791130066,0.9862068295478821,0.8049170970916748,0.6980066895484924,0.5385783314704895,1.0176643133163452,0.9147655963897705,0.8448294401168823,0.40526100993156433,1.0828557014465332,0.40028804540634155,0.8053650259971619
19245.12136229146,0.4194270372390747,0.23474574089050293,-1.0630040168762207,0.9999873638153076,0.42663800716400146,0.20743948221206665,-1.0087798833847046,0.999976634979248,0.43587544560432434,0.20651090145111084,-1.0088139772415161,0.9999759197235107,0.4439636468887329,0.20579606294631958,-1.0088350772857666,0.9999655485153198,0.39154189825057983,0.20984312891960144,-1.042938232421875,0.9999791383743286,0.37136906385421753,0.21039912104606628,-1.0431368350982666,0.9999819993972778,0.35150426626205444,0.21104642748832703,-1.0432831048965454,0.9999768733978271,0.43827182054519653,0.21619772911071777,-0.641346275806427,0.99997878074646,0.3023730516433716,0.22335946559906006,-0.8042206168174744,0.9999833106994629,0.4284931421279907,0.25727277994155884,-0.9207269549369812,0.9999914169311523,0.3899911046028137,0.2605271637439728,-0.9669233560562134,0.9999934434890747,0.5054186582565308,0.3498411774635315,-0.31871747970581055,0.9999138116836548,0.15410302579402924,0.3760226368904114,-0.634496808052063,0.9998216032981873,0.5635966658592224,0.5098593235015869,0.021717334166169167,0.9790555834770203,0.165093332529068,0.5571606755256653,-0.9568057656288147,0.988642156124115,0.6376521587371826,0.6420425176620483,-0.12570998072624207,0.983163058757782,0.23861221969127655,0.48877963423728943,-1.5967047214508057,0.9909822344779968,0.6574596762657166,0.6829475164413452,-0.16580696403980255,0.9666855335235596,0.2603158950805664,0.4586077332496643,-1.725876808166504,0.9849209189414978,0.648685097694397,0.6826762557029724,-0.2569458484649658,0.9699246883392334,0.24515889585018158,0.431642085313797,-1.7549059391021729,0.9851668477058411,0.6407954692840576,0.6719112992286682,-0.1607401818037033,0.9709241390228271,0.24000810086727142,0.4374997019767761,-1.6167924404144287,0.9780709147453308,0.47490060329437256,0.6244397759437561,0.10422433167695999,0.998391330242157,0.2990500032901764,0.6440464854240417,-0.10416045784950256,0.9985631108283997,0.4775237441062927,0.835963249206543,0.2589372396469116,0.947310209274292,0.335808664560318,0.8667465448379517,0.032164525240659714,0.9632635712623596,0.48370361328125,0.963821530342102,1.0528253316879272,0.8603891730308533,0.34899449348449707,0.9848659038543701,0.6787295937538147,0.8790819644927979,0.46654805541038513,0.9724099636077881,1.1101951599121094,0.8030639886856079,0.3416736423969269,0.9854109287261963,0.7280858159065247,0.6382879614830017,0.5434502363204956,1.0211644172668457,0.7974345088005066,0.8033493757247925,0.38292232155799866,1.0849782228469849,0.31671828031539917,0.763105571269989
19261.788028958126,0.42236098647117615,0.2347870171070099,-1.040579080581665,0.9999829530715942,0.42894247174263,0.2074730098247528,-0.9871106147766113,0.9999679327011108,0.437684565782547,0.20639681816101074,-0.9871510863304138,0.9999682903289795,0.4452895522117615,0.20550385117530823,-0.9871866106987,0.9999542236328125,0.39458829164505005,0.21031513810157776,-1.0251878499984741,0.9999698400497437,0.37462523579597473,0.21101850271224976,-1.0253959894180298,0.9999746084213257,0.35462236404418945,0.21183684468269348,-1.025545597076416,0.9999657869338989,0.4382757246494293,0.2158697545528412,-0.6227464079856873,0.9999743700027466,0.30473557114601135,0.22411733865737915,-0.8030922412872314,0.999975323677063,0.4310535192489624,0.25714293122291565,-0.8987134695053101,0.9999889135360718,0.39360567927360535,0.2613392174243927,-0.9499955177307129,0.9999905824661255,0.5071201324462891,0.34874439239501953,-0.30229830741882324,0.9999215602874756,0.15656667947769165,0.37488022446632385,-0.6358014345169067,0.9997658133506775,0.5637909173965454,0.5082629919052124,0.07158541679382324,0.9797323942184448,0.17306461930274963,0.5576906800270081,-0.9562856554985046,0.9864394664764404,0.6363446116447449,0.6412128210067749,-0.028427835553884506,0.9853075742721558,0.23523327708244324,0.48301148414611816,-1.5738352537155151,0.9903826117515564,0.6576002836227417,0.6835449934005737,-0.05743913725018501,0.9709214568138123,0.2574535608291626,0.4519732892513275,-1.6978609561920166,0.9845399260520935,0.6491613388061523,0.6832254528999329,-0.14696963131427765,0.9737920761108398,0.24066400527954102,0.42720481753349304,-1.7256656885147095,0.9848071336746216,0.6410002708435059,0.6722584962844849,-0.060978539288043976,0.9748554825782776,0.23657728731632233,0.4330408573150635,-1.5929858684539795,0.9774135947227478,0.47816723585128784,0.6238280534744263,0.10655227303504944,0.9985539317131042,0.30242249369621277,0.6450064778327942,-0.10650139302015305,0.9985232949256897,0.4801892638206482,0.8353480100631714,0.2489001303911209,0.9549233317375183,0.3354542851448059,0.8684792518615723,0.030995910987257957,0.9613269567489624,0.48509538173675537,0.9593614339828491,1.1100914478302002,0.8600228428840637,0.35290563106536865,0.9868558645248413,0.7233642339706421,0.8722671270370483,0.46705856919288635,0.96708744764328,1.1755449771881104,0.8005695343017578,0.34726181626319885,0.983663022518158,0.778309166431427,0.6238003969192505,0.5436071157455444,1.0223122835159302,0.8740682005882263,0.8028611540794373,0.38915592432022095,1.0858800411224365,0.3700236976146698,0.7560716271400452
19278.454695624794,0.42147165536880493,0.23420283198356628,-1.0854265689849854,0.9999872446060181,0.42808160185813904,0.2067548930644989,-1.0293676853179932,0.9999752044677734,0.4371539056301117,0.20573502779006958,-1.029390811920166,0.9999746084213257,0.44513899087905884,0.20489302277565002,-1.0293866395950317,0.9999631643295288,0.3928895592689514,0.2094820737838745,-1.067218542098999,0.9999786615371704,0.37291625142097473,0.21021348237991333,-1.0674583911895752,0.9999822378158569,0.3535197377204895,0.2110743522644043,-1.0676227807998657,0.9999772310256958,0.438484787940979,0.21525853872299194,-0.6561299562454224,0.9999759197235107,0.3042739927768707,0.22370228171348572,-0.8352552652359009,0.9999840259552002,0.43056362867355347,0.25665080547332764,-0.9411085844039917,0.9999912977218628,0.39279717206954956,0.26029589772224426,-0.9919779896736145,0.9999938011169434,0.5065402388572693,0.3492947816848755,-0.3233621120452881,0.9999139308929443,0.1563478261232376,0.37723830342292786,-0.6707429885864258,0.9998416900634766,0.561452329158783,0.5102748870849609,0.028178026899695396,0.9781025052070618,0.16539743542671204,0.5630616545677185,-0.9668869972229004,0.9914371371269226,0.6349376440048218,0.641578733921051,-0.12636548280715942,0.9841640591621399,0.2387373000383377,0.48797640204429626,-1.5608102083206177,0.9931651949882507,0.6553306579589844,0.6828728914260864,-0.16775789856910706,0.9685927629470825,0.25969719886779785,0.45820778608322144,-1.6875829696655273,0.9879447221755981,0.6465756297111511,0.682407021522522,-0.25949645042419434,0.9715147018432617,0.24594078958034515,0.43173059821128845,-1.7159217596054077,0.9880707263946533,0.6383914351463318,0.6717820763587952,-0.16192984580993652,0.9723754525184631,0.2407940775156021,0.437589555978775,-1.5788078308105469,0.9817729592323303,0.4776012897491455,0.6253055930137634,0.11679849773645401,0.9983905553817749,0.3027380108833313,0.6465836763381958,-0.11680758744478226,0.9985540509223938,0.480030357837677,0.8398047089576721,0.2855224013328552,0.9505415558815002,0.3363528847694397,0.8725258708000183,0.0340404249727726,0.9675034284591675,0.4809902012348175,0.9626391530036926,1.1298850774765015,0.8661944270133972,0.35037708282470703,0.9896582961082458,0.7150517702102661,0.8901275992393494,0.45947787165641785,0.9718183875083923,1.1929855346679688,0.8123174905776978,0.34514549374580383,0.9893847703933716,0.7680400609970093,0.6540272831916809,0.5417604446411133,1.0241942405700684,0.8847602009773254,0.824425458908081,0.3975965678691864,1.0903573036193848,0.35150888562202454,0.7895696759223938
19295.121362291462,0.42211928963661194,0.2342347800731659,-1.0438735485076904,0.9999831914901733,0.42854881286621094,0.20666134357452393,-0.9878478050231934,0.9999679327011108,0.43747034668922424,0.20562806725502014,-0.9878954887390137,0.9999674558639526,0.44533127546310425,0.2047654092311859,-0.9879164695739746,0.9999533891677856,0.3935549259185791,0.20947396755218506,-1.0262625217437744,0.9999716281890869,0.373567134141922,0.2102501392364502,-1.0264954566955566,0.9999759197235107,0.3540342152118683,0.21114704012870789,-1.0266597270965576,0.9999692440032959,0.43839380145072937,0.21498003602027893,-0.6179309487342834,0.9999700784683228,0.3047710061073303,0.22383010387420654,-0.7993053793907166,0.9999780654907227,0.43102002143859863,0.25649353861808777,-0.9006940126419067,0.9999886751174927,0.39341333508491516,0.2602466344833374,-0.9522392749786377,0.9999915361404419,0.5066519379615784,0.3490082323551178,-0.2936279773712158,0.9999064207077026,0.15727154910564423,0.3766702115535736,-0.6361884474754333,0.9998010993003845,0.5613000392913818,0.5100706815719604,0.05263486132025719,0.9771583080291748,0.16958865523338318,0.562644898891449,-0.9303994178771973,0.9891560077667236,0.6342976689338684,0.6411171555519104,-0.10036834329366684,0.9829794764518738,0.23879384994506836,0.4872618615627289,-1.5223596096038818,0.9917912483215332,0.6545494794845581,0.6827740669250488,-0.14204590022563934,0.9666991233825684,0.25945723056793213,0.45696067810058594,-1.646602988243103,0.9861593842506409,0.6457816958427429,0.6823768615722656,-0.23292534053325653,0.9698507785797119,0.2454543113708496,0.4305263161659241,-1.6766623258590698,0.9863308668136597,0.6377514600753784,0.6717506051063538,-0.13573294878005981,0.9709112048149109,0.2404295951128006,0.4364473819732666,-1.541164755821228,0.9793781638145447,0.4781457483768463,0.6255887150764465,0.1145649179816246,0.9983618855476379,0.3025152385234833,0.6463099718093872,-0.11453348398208618,0.9984550476074219,0.4794609546661377,0.8429256677627563,0.2570013701915741,0.948737621307373,0.33667629957199097,0.8721892833709717,0.021665560081601143,0.9625012874603271,0.4822832942008972,0.963092029094696,1.1047159433364868,0.8539299368858337,0.349947452545166,0.9888182282447815,0.7029330134391785,0.8759353756904602,0.46238479018211365,0.9716152548789978,1.168096899986267,0.7953621745109558,0.34526699781417847,0.9883034229278564,0.755990743637085,0.6296699047088623,0.5418991446495056,1.0252307653427124,0.8604446053504944,0.8024722933769226,0.39025434851646423,1.0891762971878052,0.34104713797569275,0.7660141587257385
19311.78802895813,0.421611487865448,0.23429831862449646,-1.1303926706314087,0.9999873638153076,0.42836153507232666,0.20635956525802612,-1.0786466598510742,0.9999731779098511,0.43732061982154846,0.20521003007888794,-1.0786371231079102,0.9999736547470093,0.4452381730079651,0.20430374145507812,-1.0786328315734863,0.999958872795105,0.39305007457733154,0.2100483775138855,-1.1136689186096191,0.9999768733978271,0.3724896311759949,0.21110880374908447,-1.113884687423706,0.9999815225601196,0.3522324562072754,0.21220964193344116,-1.1140367984771729,0.999974250793457,0.4387603998184204,0.21465057134628296,-0.7169971466064453,0.9999767541885376,0.30276551842689514,0.22537025809288025,-0.8845322132110596,0.9999822378158569,0.43070894479751587,0.25675836205482483,-0.9897986054420471,0.9999909400939941,0.39240631461143494,0.261130690574646,-1.0374372005462646,0.9999932050704956,0.5081857442855835,0.35085415840148926,-0.386213481426239,0.9999078512191772,0.15344589948654175,0.3762446641921997,-0.7072643637657166,0.9998096823692322,0.5652570724487305,0.5107942819595337,-0.005350527819246054,0.9809292554855347,0.16417139768600464,0.5610514283180237,-1.0379705429077148,0.9900804162025452,0.6376552581787109,0.642636239528656,-0.10211779922246933,0.9852771162986755,0.2278270274400711,0.4917754530906677,-1.685869574546814,0.9915589094161987,0.6569910645484924,0.6831722259521484,-0.13023202121257782,0.9702488780021667,0.2533756494522095,0.46384674310684204,-1.8152145147323608,0.9856337904930115,0.6475850343704224,0.682888925075531,-0.21956701576709747,0.9730413556098938,0.23923994600772858,0.4347562789916992,-1.842165470123291,0.9858739376068115,0.6401129961013794,0.6716200113296509,-0.13436102867126465,0.9739959239959717,0.23326599597930908,0.44066789746284485,-1.7053357362747192,0.9789066910743713,0.4766988754272461,0.620719313621521,0.09837844967842102,0.9986716508865356,0.29869967699050903,0.6407099366188049,-0.09841463714838028,0.9988129138946533,0.47670403122901917,0.8294284343719482,0.2525991201400757,0.96242356300354,0.3363933563232422,0.8641278743743896,0.045293714851140976,0.970262348651886,0.4821501672267914,0.9583181738853455,1.1144800186157227,0.8910964131355286,0.3504207134246826,0.9839843511581421,0.7479788661003113,0.9059600830078125,0.4647248387336731,0.9683704376220703,1.1786742210388184,0.8408598899841309,0.3486497700214386,0.9828129410743713,0.8024770617485046,0.6812341213226318,0.5374761819839478,1.0214691162109375,0.8679856657981873,0.8474944233894348,0.38227835297584534,1.0782430171966553,0.3891561031341553,0.8081958293914795
19328.454695624798,0.4210066497325897,0.23396554589271545,-1.1231709718704224,0.9999881982803345,0.4273644983768463,0.20646697282791138,-1.0692192316055298,0.9999768733978271,0.43626669049263,0.20546552538871765,-1.069228172302246,0.9999765157699585,0.44406548142433167,0.2046733796596527,-1.0692331790924072,0.9999656677246094,0.3923467695713043,0.20961534976959229,-1.1048572063446045,0.9999798536300659,0.37207552790641785,0.21059665083885193,-1.1050807237625122,0.9999829530715942,0.35224223136901855,0.21162202954292297,-1.105236530303955,0.9999778270721436,0.43735113739967346,0.2152143120765686,-0.6974010467529297,0.9999785423278809,0.30335304141044617,0.2243882715702057,-0.8668815493583679,0.9999843835830688,0.4297875761985779,0.2561299800872803,-0.9786441922187805,0.9999918937683105,0.3921337425708771,0.2599247694015503,-1.0267773866653442,0.9999940395355225,0.5076351165771484,0.3495100736618042,-0.3614908456802368,0.9999171495437622,0.1561313271522522,0.3755732476711273,-0.6905829310417175,0.9998315572738647,0.5619350671768188,0.5087600946426392,-0.0032748037483543158,0.9802877902984619,0.15931697189807892,0.5590317249298096,-0.9884673953056335,0.9908400177955627,0.6346781253814697,0.6411439180374146,-0.14558176696300507,0.984862208366394,0.2410741150379181,0.49070337414741516,-1.5921599864959717,0.9920077323913574,0.6535459756851196,0.6817208528518677,-0.18583743274211884,0.9695059061050415,0.26448726654052734,0.4629375636577606,-1.7203316688537598,0.9859325289726257,0.6444692611694336,0.6814675331115723,-0.2792213559150696,0.9724521040916443,0.25011807680130005,0.434161901473999,-1.7480498552322388,0.9860796332359314,0.6367890238761902,0.6706002950668335,-0.18135952949523926,0.9733698964118958,0.24464952945709229,0.44061148166656494,-1.6106690168380737,0.9791678190231323,0.4770798981189728,0.6210297346115112,0.10611242055892944,0.9985541701316833,0.30068349838256836,0.6416419744491577,-0.10610296577215195,0.9987126588821411,0.4775720536708832,0.8321187496185303,0.28155139088630676,0.9631792306900024,0.33654654026031494,0.8669537305831909,0.05229967087507248,0.974019467830658,0.48158130049705505,0.9585151076316833,1.1321396827697754,0.8971697688102722,0.35104966163635254,0.9869016408920288,0.7405478358268738,0.9148947596549988,0.4631539285182953,0.9675105214118958,1.1956959962844849,0.843612015247345,0.3477605879306793,0.9869344234466553,0.7941409349441528,0.6944840550422668,0.5370834469795227,1.0228512287139893,0.8819646239280701,0.8566691279411316,0.3876418471336365,1.084090232849121,0.3755957782268524,0.8247999548912048
19345.121362291466,0.41735783219337463,0.23491761088371277,-1.140274167060852,0.9999881982803345,0.42532992362976074,0.2083708643913269,-1.0874944925308228,0.999976634979248,0.4346342980861664,0.20732992887496948,-1.0875061750411987,0.9999755620956421,0.44351431727409363,0.20642197132110596,-1.087502121925354,0.999964714050293,0.38874486088752747,0.2116803228855133,-1.1199649572372437,0.9999803304672241,0.36858421564102173,0.2126757800579071,-1.1202176809310913,0.9999833106994629,0.34931498765945435,0.21355551481246948,-1.120387077331543,0.9999792575836182,0.44007396697998047,0.21567505598068237,-0.7166826725006104,0.9999771118164062,0.3010019361972809,0.22577089071273804,-0.8726614117622375,0.9999852180480957,0.42870214581489563,0.25706157088279724,-0.9960431456565857,0.9999922513961792,0.3876838982105255,0.2603248357772827,-1.0402631759643555,0.9999947547912598,0.5072780847549438,0.3496575355529785,-0.38365134596824646,0.9999129772186279,0.15596963465213776,0.37305939197540283,-0.6934198141098022,0.9998550415039062,0.5642256140708923,0.51053386926651,-0.041081443428993225,0.9801449775695801,0.155890554189682,0.559341549873352,-0.9990906119346619,0.9928021430969238,0.6341375112533569,0.6412814259529114,-0.1925835907459259,0.9850366115570068,0.232563316822052,0.4874345064163208,-1.6169655323028564,0.9934428930282593,0.6541744470596313,0.6832961440086365,-0.23578710854053497,0.969968855381012,0.25578975677490234,0.45993977785110474,-1.746429204940796,0.9880766868591309,0.6437762379646301,0.6824697256088257,-0.32573723793029785,0.9724946022033691,0.24100017547607422,0.4323822557926178,-1.771561622619629,0.9882098436355591,0.634763240814209,0.6717376112937927,-0.22660920023918152,0.9731672406196594,0.2370098978281021,0.4389018416404724,-1.6344821453094482,0.9823830127716064,0.4775252044200897,0.6230577826499939,0.10607653111219406,0.9982401132583618,0.30129826068878174,0.6437126398086548,-0.10608665645122528,0.9984918832778931,0.47897031903266907,0.8369289636611938,0.3009151518344879,0.9519948363304138,0.33258873224258423,0.8684613108634949,0.06107180938124657,0.969407320022583,0.4793740212917328,0.9576910138130188,1.1377496719360352,0.8665987253189087,0.34644806385040283,0.9856327772140503,0.7369230389595032,0.8912605047225952,0.4570733606815338,0.9666180610656738,1.2007230520248413,0.8114559650421143,0.342305064201355,0.982882559299469,0.7901010513305664,0.6620603799819946,0.5376666784286499,1.016516923904419,0.8978298306465149,0.8232528567314148,0.39942407608032227,1.083260416984558,0.38004517555236816,0.785682201385498
19361.788028958134,0.418510764837265,0.23531174659729004,-1.1065162420272827,0.9999904632568359,0.42668256163597107,0.20715412497520447,-1.0539326667785645,0.9999812841415405,0.43584683537483215,0.2060314118862152,-1.0539610385894775,0.9999806880950928,0.4441009759902954,0.20506981015205383,-1.0539748668670654,0.9999722242355347,0.3900771141052246,0.21079665422439575,-1.088475227355957,0.9999843835830688,0.36955735087394714,0.2118798792362213,-1.0886977910995483,0.9999864101409912,0.3498680591583252,0.21289122104644775,-1.0888510942459106,0.9999829530715942,0.43843114376068115,0.21483922004699707,-0.6931164860725403,0.999982476234436,0.30056893825531006,0.22515752911567688,-0.8571566343307495,0.9999878406524658,0.42867588996887207,0.2572875916957855,-0.9663096070289612,0.9999938011169434,0.3882661461830139,0.2616458535194397,-1.012931227684021,0.9999957084655762,0.5068681240081787,0.3488326370716095,-0.3752657473087311,0.999910831451416,0.1537928581237793,0.3756946921348572,-0.6866927742958069,0.9998584985733032,0.5623883008956909,0.5102131366729736,-0.05591173470020294,0.9782063961029053,0.15654920041561127,0.5591718554496765,-0.9864268898963928,0.9916955828666687,0.6340751051902771,0.6413418054580688,-0.2222064882516861,0.9822283387184143,0.23840399086475372,0.49240604043006897,-1.5917654037475586,0.9928601384162903,0.6548277735710144,0.6830803155899048,-0.26860377192497253,0.9651939868927002,0.26366370916366577,0.4627254009246826,-1.7197251319885254,0.9875260591506958,0.6462889313697815,0.6829777359962463,-0.3580872118473053,0.9682848453521729,0.24852225184440613,0.4348509609699249,-1.745836615562439,0.9876179695129395,0.6381638646125793,0.6718352437019348,-0.2574761211872101,0.9693175554275513,0.2423473596572876,0.44238653779029846,-1.6099299192428589,0.9814276099205017,0.4738980233669281,0.6209722757339478,0.10272619873285294,0.9980342984199524,0.2993530333042145,0.6415694355964661,-0.10268077999353409,0.9984354376792908,0.4794978201389313,0.8353772163391113,0.29637178778648376,0.9603371024131775,0.3376162648200989,0.8686700463294983,0.05770624428987503,0.9754706621170044,0.48293885588645935,0.9617332220077515,1.0890568494796753,0.8886971473693848,0.35540398955345154,0.9904617667198181,0.6980060935020447,0.9126110672950745,0.46374818682670593,0.9723089337348938,1.1471182107925415,0.8276761770248413,0.352712482213974,0.9915279746055603,0.7469473481178284,0.7001614570617676,0.5492428541183472,1.0193066596984863,0.8433163166046143,0.843712329864502,0.40332815051078796,1.0853815078735352,0.33978331089019775,0.8144703507423401
19378.4546956248,0.4183817505836487,0.23477551341056824,-1.150835394859314,0.9999872446060181,0.42610931396484375,0.20687595009803772,-1.0977120399475098,0.9999758005142212,0.43514084815979004,0.20574435591697693,-1.097724199295044,0.9999755620956421,0.44343575835227966,0.2047763466835022,-1.0977256298065186,0.9999645948410034,0.38943028450012207,0.21028876304626465,-1.1328917741775513,0.9999786615371704,0.36904284358024597,0.21127134561538696,-1.133136510848999,0.9999821186065674,0.3497646152973175,0.21218964457511902,-1.1332898139953613,0.999976634979248,0.4376124441623688,0.21405643224716187,-0.725299060344696,0.9999778270721436,0.30065426230430603,0.22482383251190186,-0.8928703665733337,0.9999831914901733,0.4283435642719269,0.25685012340545654,-1.0059350728988647,0.9999915361404419,0.389258474111557,0.260623574256897,-1.0534790754318237,0.9999936819076538,0.5069097876548767,0.3497820496559143,-0.3917340338230133,0.9999145269393921,0.15233996510505676,0.3748921751976013,-0.7129161953926086,0.9998162388801575,0.5653559565544128,0.5112380981445312,-0.04311942681670189,0.9809703230857849,0.16246861219406128,0.5591143369674683,-0.9984630942344666,0.9903934597969055,0.6327804327011108,0.6390055418014526,-0.18946199119091034,0.984621524810791,0.24003374576568604,0.4924127161502838,-1.5853954553604126,0.9909982681274414,0.6547180414199829,0.6817231178283691,-0.23187996447086334,0.9687923192977905,0.26058995723724365,0.46493440866470337,-1.7105002403259277,0.9845081567764282,0.6451314091682434,0.6812498569488525,-0.3219147026538849,0.9716615676879883,0.2443700134754181,0.4366220235824585,-1.7405815124511719,0.9847678542137146,0.6363378763198853,0.6709541082382202,-0.22359484434127808,0.9723950624465942,0.23981009423732758,0.4437395930290222,-1.6043365001678467,0.977512538433075,0.47575026750564575,0.6224172115325928,0.10715796053409576,0.998219907283783,0.29959195852279663,0.6432099342346191,-0.10712581127882004,0.9983803033828735,0.4802212417125702,0.830112874507904,0.3016109764575958,0.951263427734375,0.3333853781223297,0.865719199180603,0.06238769367337227,0.9685801267623901,0.4828312397003174,0.9581383466720581,1.1381375789642334,0.8665892481803894,0.3491458594799042,0.9835758805274963,0.7419275641441345,0.8879134654998779,0.4628412425518036,0.9675571918487549,1.2007702589035034,0.8114370107650757,0.3445357084274292,0.9840705990791321,0.7953222990036011,0.6563363075256348,0.5389134883880615,1.0198792219161987,0.8950412273406982,0.8182525634765625,0.3962753713130951,1.0824320316314697,0.38542965054512024,0.7774171829223633
19395.12136229147,0.4199059307575226,0.23337006568908691,-1.1185640096664429,0.9999855756759644,0.42668598890304565,0.20597177743911743,-1.0648319721221924,0.9999730587005615,0.43549758195877075,0.20496726036071777,-1.0648661851882935,0.999972939491272,0.443983793258667,0.2040744423866272,-1.0649105310440063,0.9999611377716064,0.3905564844608307,0.20958691835403442,-1.1000291109085083,0.999975323677063,0.3701135218143463,0.21088752150535583,-1.1002492904663086,0.9999790191650391,0.3503134548664093,0.21199241280555725,-1.1004130840301514,0.9999722242355347,0.4382581114768982,0.21323147416114807,-0.6942421197891235,0.9999771118164062,0.30057671666145325,0.22452327609062195,-0.8617908954620361,0.9999799728393555,0.43021678924560547,0.2557484805583954,-0.9744840860366821,0.9999909400939941,0.3904115557670593,0.2600284218788147,-1.0221185684204102,0.9999927282333374,0.5083639025688171,0.35074582695961,-0.3664158880710602,0.9999074935913086,0.15458056330680847,0.3746006488800049,-0.6821611523628235,0.9997608065605164,0.5647937059402466,0.5134438276290894,-0.012777904979884624,0.9813758134841919,0.16356050968170166,0.5590735673904419,-0.9935916066169739,0.9881165027618408,0.6341267824172974,0.6418939828872681,-0.1417321264743805,0.9855088591575623,0.23878918588161469,0.49199050664901733,-1.6189407110214233,0.9903712868690491,0.6535453796386719,0.6839711666107178,-0.18069922924041748,0.9707177877426147,0.25999122858047485,0.4648517370223999,-1.7468783855438232,0.9840636253356934,0.6438306570053101,0.683443009853363,-0.27066555619239807,0.9735803604125977,0.24495884776115417,0.43662893772125244,-1.7761098146438599,0.98439621925354,0.6359246373176575,0.6726053953170776,-0.17520707845687866,0.9742799401283264,0.23995248973369598,0.44350045919418335,-1.6386256217956543,0.9769721031188965,0.4768707752227783,0.6232324838638306,0.10031813383102417,0.9981870055198669,0.2984118163585663,0.6448196768760681,-0.10027856379747391,0.998272180557251,0.4780395030975342,0.8372984528541565,0.2509704530239105,0.9545493125915527,0.3349783718585968,0.8665624856948853,0.040117572993040085,0.9631196856498718,0.4832392632961273,0.9626132249832153,1.09492826461792,0.8621209263801575,0.3535071015357971,0.9885666370391846,0.7221463322639465,0.8769398927688599,0.46613019704818726,0.9704663157463074,1.1576045751571655,0.8016183972358704,0.35080188512802124,0.9894055128097534,0.7749680876731873,0.6259934306144714,0.5395119190216064,1.0229623317718506,0.8444250226020813,0.8046903610229492,0.38796284794807434,1.0866162776947021,0.35802480578422546,0.7589301466941833
19411.788028958137,0.4203105866909027,0.2345728874206543,-1.1219868659973145,0.9999879598617554,0.42714259028434753,0.20664110779762268,-1.0692442655563354,0.9999769926071167,0.43588879704475403,0.20556777715682983,-1.0692592859268188,0.999976396560669,0.443941205739975,0.2046658992767334,-1.069229006767273,0.9999656677246094,0.39122965931892395,0.2098659873008728,-1.104079246520996,0.9999806880950928,0.3707374930381775,0.21069008111953735,-1.104315996170044,0.9999837875366211,0.3508780300617218,0.2114180028438568,-1.10444974899292,0.9999792575836182,0.4370279908180237,0.21426662802696228,-0.7052872180938721,0.9999781847000122,0.3013773560523987,0.2234538197517395,-0.8713303804397583,0.999984860420227,0.429790735244751,0.2561893165111542,-0.9808914065361023,0.9999918937683105,0.3908172845840454,0.2596999406814575,-1.0279231071472168,0.9999943971633911,0.5073668360710144,0.34877875447273254,-0.3881469666957855,0.9999083280563354,0.15324413776397705,0.37459516525268555,-0.6992562413215637,0.9998433589935303,0.5602633953094482,0.5096813440322876,-0.05019143968820572,0.9795665144920349,0.16089919209480286,0.559992790222168,-0.9964331388473511,0.9923337697982788,0.6311557292938232,0.6373751163482666,-0.19515329599380493,0.9843839406967163,0.24398569762706757,0.48877811431884766,-1.5880303382873535,0.993168830871582,0.6536879539489746,0.6803309917449951,-0.23651951551437378,0.968432605266571,0.2640509605407715,0.46326425671577454,-1.713806390762329,0.9877495169639587,0.6444184184074402,0.6799383163452148,-0.3238128423690796,0.9710644483566284,0.25014013051986694,0.4360753297805786,-1.7377721071243286,0.9878732562065125,0.6349620819091797,0.6699856519699097,-0.2282230406999588,0.9716554880142212,0.2459307760000229,0.44188225269317627,-1.604762315750122,0.9817075133323669,0.4779874384403229,0.624458372592926,0.10405873507261276,0.9982792139053345,0.29966801404953003,0.6444370746612549,-0.1040404886007309,0.9985117316246033,0.48108261823654175,0.8336582779884338,0.352336585521698,0.9530801177024841,0.3349594473838806,0.8676627278327942,0.10340500622987747,0.9704539775848389,0.48199522495269775,0.9608144164085388,1.1711338758468628,0.8672067523002625,0.35107681155204773,0.9840563535690308,0.7771742939949036,0.8884362578392029,0.4617024064064026,0.9698964357376099,1.232900619506836,0.814954936504364,0.34639906883239746,0.9843754768371582,0.8309360146522522,0.6783730387687683,0.5369957089424133,1.0199742317199707,0.9371327757835388,0.8225428462028503,0.4062037467956543,1.0792059898376465,0.4340355396270752,0.7823262214660645
19428.454695624805,0.4207565188407898,0.23601526021957397,-1.102926254272461,0.999993085861206,0.42694100737571716,0.2110186517238617,-1.0496083498001099,0.9999866485595703,0.4357069432735443,0.20945534110069275,-1.0495926141738892,0.9999860525131226,0.4434789717197418,0.20817694067955017,-1.0494890213012695,0.9999798536300659,0.3921748995780945,0.21350020170211792,-1.0837599039077759,0.9999884366989136,0.37256017327308655,0.21360433101654053,-1.0839283466339111,0.9999898672103882,0.3539515435695648,0.21392926573753357,-1.083985686302185,0.9999868869781494,0.43518391251564026,0.21675345301628113,-0.6892402768135071,0.9999865293502808,0.3045955300331116,0.22414478659629822,-0.85308438539505,0.9999896287918091,0.4295693039894104,0.2580476403236389,-0.964319109916687,0.9999949932098389,0.39322754740715027,0.26204049587249756,-1.0105148553848267,0.9999963045120239,0.5049144625663757,0.3477155864238739,-0.38733887672424316,0.9999352693557739,0.1515321582555771,0.3738844692707062,-0.6933396458625793,0.9998691082000732,0.562969446182251,0.5078788995742798,-0.07236126810312271,0.9818300604820251,0.16476477682590485,0.5556445717811584,-0.9944364428520203,0.991746187210083,0.6332833766937256,0.6368334889411926,-0.23021775484085083,0.9873046278953552,0.24460715055465698,0.48919180035591125,-1.579777717590332,0.9933253526687622,0.6533492803573608,0.6819661855697632,-0.2757037580013275,0.9734854698181152,0.26507553458213806,0.46092885732650757,-1.7070661783218384,0.9883168339729309,0.6422426700592041,0.6817706227302551,-0.36164340376853943,0.9751606583595276,0.25135093927383423,0.4347354769706726,-1.7292604446411133,0.9882097244262695,0.6327402591705322,0.6712424159049988,-0.2632223963737488,0.9753507971763611,0.24810098111629486,0.4405948519706726,-1.5964573621749878,0.982191264629364,0.4761476516723633,0.6269683241844177,0.10913684219121933,0.998892605304718,0.3017823100090027,0.6468120217323303,-0.10905801504850388,0.9990243911743164,0.4785608947277069,0.830057680606842,0.4180954694747925,0.9597479701042175,0.3337767720222473,0.863240659236908,0.14357763528823853,0.980010449886322,0.4771994948387146,0.9516409635543823,1.2195968627929688,0.9055138826370239,0.3459067642688751,0.9799792170524597,0.8181654810905457,0.9250879883766174,0.45290109515190125,0.9636724591255188,1.280411958694458,0.8664475083351135,0.34023264050483704,0.9809938669204712,0.8729590177536011,0.7614219188690186,0.5413007736206055,1.0131186246871948,1.0022308826446533,0.8738630414009094,0.40934547781944275,1.0670716762542725,0.49787482619285583,0.8418782353401184
19445.121362291473,0.4190036654472351,0.23598560690879822,-1.1367307901382446,0.9999916553497314,0.4265047013759613,0.2096688151359558,-1.085532784461975,0.9999841451644897,0.435940146446228,0.20823723077774048,-1.0855118036270142,0.999983549118042,0.4442586898803711,0.20701032876968384,-1.0854201316833496,0.9999752044677734,0.38940441608428955,0.21220114827156067,-1.1188730001449585,0.9999865293502808,0.3689820468425751,0.21238595247268677,-1.1190550327301025,0.9999885559082031,0.3501550853252411,0.21277430653572083,-1.1191294193267822,0.9999849796295166,0.43892359733581543,0.21604469418525696,-0.7258749008178711,0.9999845027923584,0.3003387451171875,0.22388270497322083,-0.8862240314483643,0.9999891519546509,0.4289248585700989,0.2580712139606476,-0.9972875714302063,0.9999938011169434,0.3898540437221527,0.26158279180526733,-1.0425089597702026,0.9999957084655762,0.5046350955963135,0.3493819832801819,-0.4136981666088104,0.9999245405197144,0.14845478534698486,0.37615102529525757,-0.7136116623878479,0.9998613595962524,0.56036776304245,0.5109538435935974,-0.07676248252391815,0.9800662994384766,0.16086448729038239,0.5571446418762207,-1.0319041013717651,0.9925407767295837,0.6333853602409363,0.6393522620201111,-0.21817736327648163,0.9861391186714172,0.24750426411628723,0.4901723861694336,-1.646471619606018,0.993579626083374,0.654241144657135,0.681934118270874,-0.2574938237667084,0.9716081023216248,0.2671899199485779,0.4621121287345886,-1.7750388383865356,0.9884929060935974,0.6432009935379028,0.6813023090362549,-0.3442756235599518,0.9736012816429138,0.254056453704834,0.4335464537143707,-1.7948827743530273,0.9884902238845825,0.6336613893508911,0.671209454536438,-0.25065553188323975,0.9739997386932373,0.2497655153274536,0.44023650884628296,-1.6624629497528076,0.9827026128768921,0.4752351939678192,0.6251145601272583,0.10073573887348175,0.9988729357719421,0.2993048131465912,0.6459740996360779,-0.10068051517009735,0.9990146160125732,0.48012930154800415,0.8285236954689026,0.3997892141342163,0.9578845500946045,0.33777710795402527,0.8600991368293762,0.1479882001876831,0.9765382409095764,0.48204904794692993,0.9566391706466675,1.2023935317993164,0.8892091512680054,0.3465973734855652,0.9751522541046143,0.8263130784034729,0.9074723124504089,0.46156686544418335,0.9674723148345947,1.2625504732131958,0.8449498414993286,0.3405371606349945,0.9772510528564453,0.8813956379890442,0.7333554625511169,0.5411495566368103,1.015486717224121,0.9757232666015625,0.8443241119384766,0.3954528570175171,1.06504487991333,0.5036045908927917,0.8065956234931946
19461.78802895814,0.4191195070743561,0.23474204540252686,-1.0694622993469238,0.9999831914901733,0.4266031086444855,0.20781677961349487,-1.0171242952346802,0.9999678134918213,0.4359346628189087,0.20642909407615662,-1.0171698331832886,0.9999673366546631,0.44409582018852234,0.20527759194374084,-1.0171953439712524,0.9999537467956543,0.3904721140861511,0.2111276388168335,-1.0504469871520996,0.9999704360961914,0.37034857273101807,0.2118344008922577,-1.0506840944290161,0.9999744892120361,0.3512778878211975,0.21262460947036743,-1.0508358478546143,0.9999673366546631,0.4390910863876343,0.21468856930732727,-0.6552112698554993,0.9999707937240601,0.3035702109336853,0.22417253255844116,-0.8145986795425415,0.9999749660491943,0.42955493927001953,0.25680992007255554,-0.9286101460456848,0.9999886751174927,0.3907884955406189,0.26069194078445435,-0.9737789034843445,0.9999910593032837,0.506464958190918,0.34913331270217896,-0.3369951546192169,0.9999014139175415,0.15370623767375946,0.3753925561904907,-0.6401099562644958,0.9997802376747131,0.5601370930671692,0.5099291205406189,-0.002593654440715909,0.9783486723899841,0.16788657009601593,0.5594549179077148,-0.9397354125976562,0.9876749515533447,0.633325457572937,0.6413348913192749,-0.1431693285703659,0.9834079146385193,0.24320296943187714,0.48566973209381104,-1.5449811220169067,0.99086993932724,0.6535674333572388,0.6822839379310608,-0.18221695721149445,0.9671952128410339,0.2648289203643799,0.4530419111251831,-1.6675199270248413,0.9848345518112183,0.6443135738372803,0.6819582581520081,-0.27034029364585876,0.9700165390968323,0.2508293390274048,0.4284495413303375,-1.6911333799362183,0.9849174618721008,0.6355052590370178,0.6715787053108215,-0.17617438733577728,0.9710314869880676,0.24567578732967377,0.434614360332489,-1.5618363618850708,0.9775991439819336,0.4760604202747345,0.6236068606376648,0.10499058663845062,0.9981386661529541,0.3001944124698639,0.6450881958007812,-0.10494620352983475,0.9983065128326416,0.4805794358253479,0.834579586982727,0.26185300946235657,0.9455183148384094,0.33799493312835693,0.8658590912818909,0.033938322216272354,0.9633234143257141,0.4851338267326355,0.9582306742668152,1.0857889652252197,0.8485080599784851,0.3524027466773987,0.9870664477348328,0.6948208212852478,0.8770312070846558,0.466326504945755,0.9676802158355713,1.1476318836212158,0.7895874381065369,0.3481139540672302,0.9838764071464539,0.7466660737991333,0.6344215273857117,0.5438207387924194,1.0203421115875244,0.8516960144042969,0.7907683849334717,0.39346277713775635,1.0866470336914062,0.34376728534698486,0.7598305344581604
19478.45469562481,0.4172435700893402,0.23591899871826172,-1.0742528438568115,0.9999841451644897,0.42423418164253235,0.21056899428367615,-1.0209027528762817,0.9999692440032959,0.4334668517112732,0.2090279757976532,-1.0209356546401978,0.9999690055847168,0.4415535032749176,0.2077442705631256,-1.0209261178970337,0.9999560117721558,0.38854196667671204,0.2131246030330658,-1.0565048456192017,0.9999728202819824,0.3683464229106903,0.21325573325157166,-1.0567368268966675,0.9999768733978271,0.34965142607688904,0.21360766887664795,-1.0568907260894775,0.9999704360961914,0.43479976058006287,0.21663662791252136,-0.6527166962623596,0.9999710321426392,0.30103006958961487,0.22467872500419617,-0.8222756385803223,0.9999786615371704,0.42720720171928406,0.25827890634536743,-0.9309805631637573,0.9999892711639404,0.38997966051101685,0.26210781931877136,-0.9790310263633728,0.9999921321868896,0.5055372714996338,0.3479863405227661,-0.3282313346862793,0.999919056892395,0.15186496078968048,0.3749280869960785,-0.6535789966583252,0.9998252987861633,0.5606964826583862,0.5074142813682556,0.010181669145822525,0.9795747399330139,0.1680224984884262,0.5591174364089966,-0.928959310054779,0.9889681935310364,0.6337251663208008,0.6397424936294556,-0.14702090620994568,0.9840042591094971,0.2438250631093979,0.4916017949581146,-1.4953911304473877,0.9901283383369446,0.6557316780090332,0.6816479563713074,-0.19234247505664825,0.9683356881141663,0.26609569787979126,0.46074289083480835,-1.6160777807235718,0.9836570024490356,0.6450529098510742,0.6812435388565063,-0.28099024295806885,0.9710471034049988,0.2504105865955353,0.43370190262794495,-1.6465044021606445,0.9837524890899658,0.6354228258132935,0.6708221435546875,-0.18109586834907532,0.9717607498168945,0.2455729991197586,0.44011741876602173,-1.5136162042617798,0.9759248495101929,0.4768136739730835,0.6271471381187439,0.11377261579036713,0.9981769323348999,0.3019671142101288,0.648266077041626,-0.11364810168743134,0.9983353018760681,0.4779771864414215,0.837365984916687,0.3115471303462982,0.9382566213607788,0.33572763204574585,0.8685157299041748,0.05639215558767319,0.9639374613761902,0.4801877737045288,0.9571718573570251,1.119775414466858,0.8418506979942322,0.34888067841529846,0.9872645735740662,0.7140039801597595,0.8667060732841492,0.4580709636211395,0.9667791128158569,1.1802048683166504,0.7927058339118958,0.3420250117778778,0.9855481386184692,0.7657383680343628,0.635477602481842,0.5402946472167969,1.0190287828445435,0.8833534121513367,0.7899893522262573,0.40497028827667236,1.0859570503234863,0.3636131286621094,0.7449710369110107
19495.121362291477,0.41749560832977295,0.23618030548095703,-1.1635324954986572,0.9999895095825195,0.42520833015441895,0.21011480689048767,-1.1118463277816772,0.99997878074646,0.43452268838882446,0.20899218320846558,-1.1118255853652954,0.9999784231185913,0.44310951232910156,0.2080976963043213,-1.111770510673523,0.9999674558639526,0.38796359300613403,0.21235603094100952,-1.1457988023757935,0.9999821186065674,0.3674198389053345,0.21269315481185913,-1.146035075187683,0.9999853372573853,0.34833669662475586,0.2132452130317688,-1.1461833715438843,0.9999809265136719,0.4378981292247772,0.2175244688987732,-0.7414453625679016,0.9999796152114868,0.29903391003608704,0.22471389174461365,-0.9039342999458313,0.9999861717224121,0.4268842935562134,0.25799360871315,-1.0192359685897827,0.9999924898147583,0.3869141936302185,0.2613028585910797,-1.065273642539978,0.9999947547912598,0.5052524209022522,0.34888336062431335,-0.4008744955062866,0.9999179840087891,0.15246039628982544,0.37638938426971436,-0.7267915606498718,0.9998639822006226,0.5611570477485657,0.5109195709228516,-0.0401693731546402,0.9797288775444031,0.1684780865907669,0.5623236894607544,-1.0219680070877075,0.9919371604919434,0.6343985199928284,0.6403668522834778,-0.17883026599884033,0.9847326874732971,0.24029330909252167,0.48800110816955566,-1.6214637756347656,0.9931591153144836,0.6544504761695862,0.6815562844276428,-0.2172526866197586,0.9695558547973633,0.26127853989601135,0.45932015776634216,-1.7485237121582031,0.9880052208900452,0.6439391374588013,0.6812549829483032,-0.3071267604827881,0.9720115065574646,0.2449246644973755,0.43182212114334106,-1.7753705978393555,0.988115668296814,0.6347432136535645,0.6710083484649658,-0.2123824954032898,0.9726473689079285,0.2401493936777115,0.4382324814796448,-1.6391650438308716,0.9819698333740234,0.47834184765815735,0.6249246597290039,0.11170420050621033,0.9985089898109436,0.3030581772327423,0.6450194716453552,-0.11171427369117737,0.998713493347168,0.47910284996032715,0.8319494724273682,0.34260880947113037,0.9503030180931091,0.3357844948768616,0.8639711141586304,0.08152521401643753,0.9726830124855042,0.47726908326148987,0.9531031847000122,1.183087944984436,0.8731921911239624,0.3486747443675995,0.9823593497276306,0.7709431648254395,0.8991119861602783,0.4547170400619507,0.9632007479667664,1.246538519859314,0.8279231786727905,0.3432040810585022,0.9826440811157227,0.8260058760643005,0.6951407194137573,0.5396751165390015,1.01243257522583,0.9482611417770386,0.8354681134223938,0.4067124128341675,1.0755809545516968,0.4239327907562256,0.7996974587440491
19511.788028958144,0.4188633859157562,0.23544660210609436,-1.0604872703552246,0.9999834299087524,0.42649540305137634,0.20926421880722046,-1.0061182975769043,0.9999682903289795,0.43557870388031006,0.20813331007957458,-1.0061662197113037,0.9999676942825317,0.44383570551872253,0.20720791816711426,-1.0061800479888916,0.9999548196792603,0.38994571566581726,0.21172162890434265,-1.0418593883514404,0.9999723434448242,0.3694554567337036,0.21209174394607544,-1.0420997142791748,0.999976396560669,0.3501025140285492,0.2126268744468689,-1.0422687530517578,0.9999701976776123,0.4378972351551056,0.21662697196006775,-0.6361368894577026,0.9999700784683228,0.3002786636352539,0.22402465343475342,-0.806230902671814,0.9999785423278809,0.42840632796287537,0.2571069300174713,-0.9167659878730774,0.9999890327453613,0.3890911936759949,0.2608121931552887,-0.9650539755821228,0.9999921321868896,0.5045216083526611,0.3479994237422943,-0.31214961409568787,0.9999086856842041,0.15234632790088654,0.3746609687805176,-0.6376227736473083,0.9998210072517395,0.5609289407730103,0.5095623135566711,0.018665485084056854,0.9783746600151062,0.16780886054039001,0.5600631833076477,-0.9296243786811829,0.9888517260551453,0.6333431005477905,0.6409340500831604,-0.14806702733039856,0.9826095104217529,0.24287481606006622,0.49151599407196045,-1.531903862953186,0.9905980229377747,0.6544140577316284,0.6820604801177979,-0.19530589878559113,0.966158926486969,0.26442858576774597,0.46200668811798096,-1.6571191549301147,0.9846091270446777,0.6454770565032959,0.6820085048675537,-0.2842094302177429,0.9691486954689026,0.24593114852905273,0.4345637559890747,-1.6887521743774414,0.9847784638404846,0.6367032527923584,0.6718844175338745,-0.18270590901374817,0.969977855682373,0.24082961678504944,0.4406547248363495,-1.5515180826187134,0.9773475527763367,0.47789308428764343,0.6254796981811523,0.11338892579078674,0.9979660511016846,0.30367332696914673,0.6460872292518616,-0.11328627914190292,0.9981899857521057,0.4805929660797119,0.8356431722640991,0.282522976398468,0.9359992742538452,0.33713212609291077,0.8697973489761353,0.033046312630176544,0.9598056077957153,0.48189792037010193,0.9592127799987793,1.0762355327606201,0.8336646556854248,0.35154303908348083,0.9891122579574585,0.6737717986106873,0.8564795851707458,0.46097445487976074,0.9694931507110596,1.1345837116241455,0.774942934513092,0.344601571559906,0.9893313050270081,0.7230281829833984,0.6067423820495605,0.5399009585380554,1.0194032192230225,0.831585168838501,0.7762395143508911,0.402458131313324,1.0891923904418945,0.31383195519447327,0.7281808257102966
