time,X_NOSE,Y_NOSE,Z_NOSE,visibility_NOSE,X_LEFT_EYE_INNER,Y_LEFT_EYE_INNER,Z_LEFT_EYE_INNER,visibility_LEFT_EYE_INNER,X_LEFT_EYE,Y_LEFT_EYE,Z_LEFT_EYE,visibility_LEFT_EYE,X_LEFT_EYE_OUTER,Y_LEFT_EYE_OUTER,Z_LEFT_EYE_OUTER,visibility_LEFT_EYE_OUTER,X_RIGHT_EYE_OUTER,Y_RIGHT_EYE_OUTER,Z_RIGHT_EYE_OUTER,visibility_RIGHT_EYE_OUTER,X_RIGHT_EYE,Y_RIGHT_EYE,Z_RIGHT_EYE,visibility_RIGHT_EYE,X_RIGHT_EYE_OUTER,Y_RIGHT_EYE_OUTER,Z_RIGHT_EYE_OUTER,visibility_RIGHT_EYE_OUTER,X_LEFT_EAR,Y_LEFT_EAR,Z_LEFT_EAR,visibility_LEFT_EAR,X_RIGHT_EAR,Y_RIGHT_EAR,Z_RIGHT_EAR,visibility_RIGHT_EAR,X_MOUTH_LEFT,Y_MOUTH_LEFT,Z_MOUTH_LEFT,visibility_MOUTH_LEFT,X_MOUTH_RIGHT,Y_MOUTH_RIGHT,Z_MOUTH_RIGHT,visibility_MOUTH_RIGHT,X_LEFT_SHOULDER,Y_LEFT_SHOULDER,Z_LEFT_SHOULDER,visibility_LEFT_SHOULDER,X_RIGHT_SHOULDER,Y_RIGHT_SHOULDER,Z_RIGHT_SHOULDER,visibility_RIGHT_SHOULDER,X_LEFT_ELBOW,Y_LEFT_ELBOW,Z_LEFT_ELBOW,visibility_LEFT_ELBOW,X_RIGHT_ELBOW,Y_RIGHT_ELBOW,Z_RIGHT_ELBOW,visibility_RIGHT_ELBOW,X_LEFT_WRIST,Y_LEFT_WRIST,Z_LEFT_WRIST,visibility_LEFT_WRIST,X_RIGHT_WRIST,Y_RIGHT_WRIST,Z_RIGHT_WRIST,visibility_RIGHT_WRIST,X_LEFT_PINKY,Y_LEFT_PINKY,Z_LEFT_PINKY,visibility_LEFT_PINKY,X_RIGHT_PINKY,Y_RIGHT_PINKY,Z_RIGHT_PINKY,visibility_RIGHT_PINKY,X_LEFT_INDEX,Y_LEFT_INDEX,Z_LEFT_INDEX,visibility_LEFT_INDEX,X_RIGHT_INDEX,Y_RIGHT_INDEX,Z_RIGHT_INDEX,visibility_RIGHT_INDEX,X_LEFT_THUMB,Y_LEFT_THUMB,Z_LEFT_THUMB,visibility_LEFT_THUMB,X_RIGHT_THUMB,Y_RIGHT_THUMB,Z_RIGHT_THUMB,visibility_RIGHT_THUMB,X_LEFT_HIP,Y_LEFT_HIP,Z_LEFT_HIP,visibility_LEFT_HIP,X_RIGHT_HIP,Y_RIGHT_HIP,Z_RIGHT_HIP,visibility_RIGHT_HIP,X_LEFT_KNEE,Y_LEFT_KNEE,Z_LEFT_KNEE,visibility_LEFT_KNEE,X_RIGHT_KNEE,Y_RIGHT_KNEE,Z_RIGHT_KNEE,visibility_RIGHT_KNEE,X_LEFT_ANKLE,Y_LEFT_ANKLE,Z_LEFT_ANKLE,visibility_LEFT_ANKLE,X_RIGHT_ANKLE,Y_RIGHT_ANKLE,Z_RIGHT_ANKLE,visibility_RIGHT_ANKLE,X_LEFT_HEEL,Y_LEFT_HEEL,Z_LEFT_HEEL,visibility_LEFT_HEEL,X_RIGHT_HEEL,Y_RIGHT_HEEL,Z_RIGHT_HEEL,visibility_RIGHT_HEEL,X_LEFT_FOOT_INDEX,Y_LEFT_FOOT_INDEX,Z_LEFT_FOOT_INDEX,visibility_LEFT_FOOT_INDEX,X_RIGHT_FOOT_INDEX,Y_RIGHT_FOOT_INDEX,Z_RIGHT_FOOT_INDEX,visibility_RIGHT_FOOT_INDEX
19548.02461248524,0.4458746612071991,0.24026359617710114,-0.9882766604423523,0.999984860420227,0.45335331559181213,0.21552366018295288,-0.9415256977081299,0.9999697208404541,0.46186497807502747,0.21425789594650269,-0.9415385723114014,0.999969482421875,0.46933916211128235,0.21311169862747192,-0.9415208101272583,0.9999576807022095,0.4197920560836792,0.21676713228225708,-0.9763293266296387,0.9999728202819824,0.4009028673171997,0.21616780757904053,-0.9764917492866516,0.9999750852584839,0.382107675075531,0.21572241187095642,-0.9765346646308899,0.999968409538269,0.45770615339279175,0.2203664481639862,-0.6037839651107788,0.9999725818634033,0.33118876814842224,0.22390344738960266,-0.7735344171524048,0.9999736547470093,0.4515230357646942,0.26284709572792053,-0.8553519248962402,0.9999879598617554,0.41710299253463745,0.2670494318008423,-0.9031992554664612,0.9999903440475464,0.5264572501182556,0.34990057349205017,-0.3462482690811157,0.9999269247055054,0.17892509698867798,0.3693828880786896,-0.5926454663276672,0.999794065952301,0.5722548365592957,0.5139849781990051,-0.061417799443006516,0.9797098636627197,0.171511709690094,0.5534341335296631,-0.9048409461975098,0.987158477306366,0.6335181593894958,0.6464836597442627,-0.2161700278520584,0.9843440055847168,0.2623116374015808,0.4662177562713623,-1.4913291931152344,0.9884520173072815,0.6523000001907349,0.6894652247428894,-0.25967738032341003,0.9694018959999084,0.2915523946285248,0.43469107151031494,-1.6084331274032593,0.9815417528152466,0.6393591165542603,0.6894307136535645,-0.34560486674308777,0.9710726141929626,0.2790316939353943,0.4114871323108673,-1.6218546628952026,0.9812736511230469,0.6282479763031006,0.6802080869674683,-0.24834978580474854,0.9718062281608582,0.2748541831970215,0.41847357153892517,-1.504799246788025,0.973197340965271,0.4963538646697998,0.6282241940498352,0.08320244401693344,0.9982951283454895,0.31851842999458313,0.6472272276878357,-0.08295830339193344,0.9984819293022156,0.48790842294692993,0.8374829292297363,0.308967262506485,0.959519624710083,0.33994245529174805,0.8647278547286987,0.1020941287279129,0.9720646739006042,0.4836498498916626,0.9529681205749512,1.0545943975448608,0.8870663642883301,0.3519924283027649,0.9823036193847656,0.7076336741447449,0.9012266993522644,0.4626384675502777,0.9675634503364563,1.1106679439544678,0.8375421762466431,0.3527834117412567,0.9825538992881775,0.7559606432914734,0.7169322967529297,0.5415760278701782,1.020456075668335,0.8496715426445007,0.8315011262893677,0.38498014211654663,1.0729830265045166,0.40164852142333984,0.7864856719970703
19564.691279151906,0.44740983843803406,0.23857703804969788,-1.003836750984192,0.999982476234436,0.4553554952144623,0.21264201402664185,-0.9572915434837341,0.9999659061431885,0.4637640416622162,0.21169432997703552,-0.9572879672050476,0.9999648332595825,0.4711131155490875,0.21088296175003052,-0.9572545886039734,0.9999518394470215,0.4212111830711365,0.2132808268070221,-0.9937840700149536,0.9999703168869019,0.40261730551719666,0.21276548504829407,-0.9939516186714172,0.9999728202819824,0.38346752524375916,0.21260422468185425,-0.9940087199211121,0.9999661445617676,0.45989981293678284,0.21845349669456482,-0.6179117560386658,0.9999686479568481,0.3325720429420471,0.2218661904335022,-0.7946752905845642,0.9999716281890869,0.453285276889801,0.2607295513153076,-0.8701352477073669,0.9999873638153076,0.417062371969223,0.2634175717830658,-0.9199976921081543,0.9999899864196777,0.526543378829956,0.3499118387699127,-0.35171839594841003,0.9999184608459473,0.1764538288116455,0.3701063394546509,-0.6256830096244812,0.9997949004173279,0.5706962943077087,0.5127342343330383,-0.06478625535964966,0.9759467840194702,0.1717725396156311,0.555448055267334,-0.9455234408378601,0.9858943223953247,0.6333194971084595,0.6464865207672119,-0.21635913848876953,0.9800899028778076,0.2686033844947815,0.46538645029067993,-1.5167548656463623,0.9865597486495972,0.6506056189537048,0.689130425453186,-0.258277028799057,0.9620551466941833,0.29639720916748047,0.4330750107765198,-1.6336593627929688,0.9790264368057251,0.6392003297805786,0.6892082095146179,-0.34216609597206116,0.9640605449676514,0.28320300579071045,0.41113731265068054,-1.645062804222107,0.9786263704299927,0.6286556720733643,0.6801273822784424,-0.24764879047870636,0.9651110172271729,0.2803245186805725,0.41932839155197144,-1.5289483070373535,0.969197154045105,0.49527624249458313,0.6300001740455627,0.09570194780826569,0.9984979629516602,0.3181803524494171,0.6495630741119385,-0.09551744908094406,0.9986445307731628,0.4864862859249115,0.8408273458480835,0.33426958322525024,0.955993115901947,0.3407559394836426,0.866601824760437,0.10383378714323044,0.9733214378356934,0.4841632843017578,0.953816831111908,1.0908594131469727,0.8913773894309998,0.3511594235897064,0.9823514819145203,0.7271398305892944,0.9074355363845825,0.46330317854881287,0.9678744673728943,1.148494839668274,0.8460862636566162,0.3505784869194031,0.9826093912124634,0.7775289416313171,0.7305561900138855,0.5476493835449219,1.0212980508804321,0.887824296951294,0.8417463898658752,0.3888513445854187,1.073490858078003,0.42258158326148987,0.7987915873527527
19581.357945818574,0.4430431127548218,0.24004411697387695,-1.007516622543335,0.9999842643737793,0.45168057084083557,0.2147277593612671,-0.962263286113739,0.9999686479568481,0.46070027351379395,0.21353304386138916,-0.9622947573661804,0.9999696016311646,0.4686664342880249,0.21249991655349731,-0.962285578250885,0.9999581575393677,0.4169607162475586,0.21591269969940186,-0.9937682747840881,0.9999711513519287,0.3973497450351715,0.2153744101524353,-0.9939332008361816,0.9999734163284302,0.3788847327232361,0.21501609683036804,-0.993982195854187,0.9999650716781616,0.4601622521877289,0.22022715210914612,-0.6278943419456482,0.9999740123748779,0.3298577070236206,0.22388365864753723,-0.7817010283470154,0.9999688863754272,0.45015695691108704,0.26295071840286255,-0.8756648898124695,0.9999871253967285,0.4140278100967407,0.2664981484413147,-0.9189849495887756,0.9999885559082031,0.5267350673675537,0.3496153652667999,-0.3733442425727844,0.9999169111251831,0.17887431383132935,0.3701629638671875,-0.5967514514923096,0.9997255206108093,0.5686200857162476,0.5116627216339111,-0.09785770624876022,0.9795738458633423,0.174590066075325,0.5545946359634399,-0.9122808575630188,0.9819042086601257,0.6330618858337402,0.6447929739952087,-0.24114829301834106,0.9830422401428223,0.2750339210033417,0.46592554450035095,-1.5000747442245483,0.983546257019043,0.6508378982543945,0.6879448890686035,-0.28208547830581665,0.9669917225837708,0.30196303129196167,0.4297873377799988,-1.6148921251296997,0.9747094511985779,0.6401350498199463,0.6883723735809326,-0.3671838343143463,0.968904435634613,0.28881174325942993,0.40800851583480835,-1.6264370679855347,0.9742316603660583,0.6305419206619263,0.6791059374809265,-0.2724182605743408,0.9697506427764893,0.28498128056526184,0.41670700907707214,-1.513305902481079,0.9636839032173157,0.4975222945213318,0.6262965202331543,0.07584747672080994,0.9976091384887695,0.3151567578315735,0.6461929678916931,-0.07555561512708664,0.9979294538497925,0.48884809017181396,0.833845853805542,0.3090313971042633,0.9579690098762512,0.34234288334846497,0.8677580952644348,0.10698475688695908,0.9726028442382812,0.4830857217311859,0.9532663822174072,1.0306270122528076,0.8876793384552002,0.35545098781585693,0.9839289784431458,0.6842181086540222,0.9046757817268372,0.4616053104400635,0.9658552408218384,1.084194540977478,0.8358229994773865,0.3649803102016449,1.0068864822387695,0.7294067144393921,0.7198441028594971,0.5432024002075195,1.0201667547225952,0.822699785232544,0.8299860954284668,0.3909352719783783,1.0757362842559814,0.3739258050918579,0.7870023250579834
19598.024612485242,0.4487133026123047,0.2405019998550415,-1.0571746826171875,0.9999898672103882,0.45658206939697266,0.21505501866340637,-1.0092391967773438,0.9999796152114868,0.4646003544330597,0.21393045783042908,-1.0091969966888428,0.99997878074646,0.47153401374816895,0.2129439115524292,-1.0091183185577393,0.9999699592590332,0.42313823103904724,0.21555370092391968,-1.048173427581787,0.9999828338623047,0.4048280119895935,0.2146916687488556,-1.048345685005188,0.9999845027923584,0.38508233428001404,0.21407711505889893,-1.048369288444519,0.9999803304672241,0.4586341679096222,0.21964231133460999,-0.6630187034606934,0.9999806880950928,0.3336331248283386,0.22266793251037598,-0.8516525626182556,0.9999833106994629,0.45375221967697144,0.26211297512054443,-0.9212021827697754,0.9999918937683105,0.4193883240222931,0.26528990268707275,-0.9745177030563354,0.9999936819076538,0.5252847671508789,0.3510284125804901,-0.39270201325416565,0.9999324083328247,0.17514656484127045,0.37196049094200134,-0.6770299077033997,0.9998438358306885,0.5695904493331909,0.5146694779396057,-0.0868416279554367,0.9772242307662964,0.16933907568454742,0.5579966902732849,-1.0033979415893555,0.9888344407081604,0.6331090927124023,0.6466879844665527,-0.22690093517303467,0.9831175804138184,0.2622638940811157,0.4692818522453308,-1.5888687372207642,0.990154504776001,0.6514376401901245,0.6883233189582825,-0.2649826109409332,0.9669182896614075,0.29068484902381897,0.43491193652153015,-1.7107502222061157,0.9839919209480286,0.6395277976989746,0.6883864402770996,-0.35129109025001526,0.9685394167900085,0.2749975025653839,0.41324374079704285,-1.7221474647521973,0.9836642146110535,0.6286623477935791,0.679469883441925,-0.2587910592556,0.9692627787590027,0.27246806025505066,0.421154260635376,-1.6016240119934082,0.9757577776908875,0.4949861764907837,0.6312819123268127,0.09373150765895844,0.9987964630126953,0.3201022446155548,0.6515963077545166,-0.09362739324569702,0.9989442229270935,0.48731401562690735,0.8372774124145508,0.3779289722442627,0.9627684354782104,0.34161481261253357,0.8679380416870117,0.14218275249004364,0.9779015779495239,0.48423677682876587,0.9500879645347595,1.1637293100357056,0.9111173152923584,0.35292306542396545,0.9828226566314697,0.7943814992904663,0.9289889931678772,0.4629638195037842,0.9654704928398132,1.2245466709136963,0.8721024394035339,0.3542490601539612,0.9845080375671387,0.8476026654243469,0.7771928310394287,0.5472917556762695,1.018127202987671,0.9670389890670776,0.8788443803787231,0.3940054178237915,1.0715895891189575,0.49346697330474854,0.8453906774520874
19614.69127915191,0.44885340332984924,0.240677610039711,-1.060784101486206,0.99998939037323,0.4566209614276886,0.21524029970169067,-1.0129704475402832,0.9999786615371704,0.46460869908332825,0.21413543820381165,-1.0129281282424927,0.9999779462814331,0.47152143716812134,0.21315312385559082,-1.0128480195999146,0.9999687671661377,0.4232042133808136,0.21564224362373352,-1.0524781942367554,0.9999822378158569,0.40491747856140137,0.21472889184951782,-1.0526540279388428,0.9999840259552002,0.38521549105644226,0.21405574679374695,-1.0526821613311768,0.9999796152114868,0.45820116996765137,0.21979030966758728,-0.666425347328186,0.9999799728393555,0.33377349376678467,0.22257977724075317,-0.8573206067085266,0.9999827146530151,0.4536065459251404,0.26231467723846436,-0.9245366454124451,0.9999915361404419,0.419169545173645,0.2655283510684967,-0.9785141944885254,0.9999935626983643,0.5250070095062256,0.3510534465312958,-0.3941124677658081,0.9999313354492188,0.173940971493721,0.37228986620903015,-0.68299400806427,0.9998440742492676,0.5691705346107483,0.5147380232810974,-0.08567889034748077,0.977035403251648,0.16994474828243256,0.5587037205696106,-1.0072693824768066,0.9891186952590942,0.6328868865966797,0.6468161344528198,-0.22500431537628174,0.9830548763275146,0.262332022190094,0.47005990147590637,-1.5905210971832275,0.9904720783233643,0.6514101028442383,0.6886039972305298,-0.2630457282066345,0.9667928218841553,0.29041385650634766,0.43576565384864807,-1.7123242616653442,0.984473466873169,0.6394920349121094,0.6886500716209412,-0.3493451178073883,0.968468964099884,0.2746584415435791,0.4133310616016388,-1.7243423461914062,0.9841819405555725,0.6285762786865234,0.6796795725822449,-0.25689029693603516,0.969190776348114,0.2716844081878662,0.42192327976226807,-1.6033759117126465,0.9764199256896973,0.49481943249702454,0.6313968896865845,0.09490449726581573,0.9987609386444092,0.3201204240322113,0.65192049741745,-0.09479904919862747,0.9989224672317505,0.487128347158432,0.8375197649002075,0.38169822096824646,0.9618077278137207,0.34178632497787476,0.8682541251182556,0.14345009624958038,0.977256178855896,0.4841329753398895,0.9503825902938843,1.1683881282806396,0.908538818359375,0.35270896553993225,0.9826850891113281,0.7966111302375793,0.926665723323822,0.4627910554409027,0.9657162427902222,1.229360818862915,0.8692291378974915,0.3538682162761688,0.9843235611915588,0.8499951362609863,0.7738077640533447,0.5472091436386108,1.0185083150863647,0.9716252684593201,0.8757938146591187,0.3947765529155731,1.0720772743225098,0.4955821931362152,0.8412748575210571
19631.357945818578,0.4413321018218994,0.23926210403442383,-0.9953802227973938,0.9999841451644897,0.4497682750225067,0.21403521299362183,-0.9499920010566711,0.9999682903289795,0.45878294110298157,0.2128009796142578,-0.9500197172164917,0.9999688863754272,0.46654391288757324,0.21177390217781067,-0.9499992728233337,0.9999573230743408,0.41502609848976135,0.21538618206977844,-0.9825769662857056,0.9999713897705078,0.39582791924476624,0.21508118510246277,-0.9827075600624084,0.9999735355377197,0.3769821524620056,0.21514812111854553,-0.9827513694763184,0.9999662637710571,0.45880162715911865,0.22006911039352417,-0.6163332462310791,0.9999716281890869,0.3276614844799042,0.2248673141002655,-0.7767719030380249,0.9999698400497437,0.44952592253685,0.26155391335487366,-0.8638796806335449,0.9999874830245972,0.41268259286880493,0.26482173800468445,-0.9090692400932312,0.9999896287918091,0.5248727202415466,0.34865179657936096,-0.36717307567596436,0.9999197721481323,0.1771206557750702,0.3685966730117798,-0.585111141204834,0.9997381567955017,0.5742737650871277,0.5131731033325195,-0.09676310420036316,0.9823678731918335,0.17071062326431274,0.5509382486343384,-0.8875635862350464,0.9843150973320007,0.6310717463493347,0.647821843624115,-0.25748148560523987,0.9847874045372009,0.266356885433197,0.4671580195426941,-1.4656217098236084,0.9851406812667847,0.6504126787185669,0.6901240348815918,-0.30425092577934265,0.9693127274513245,0.2949160933494568,0.43389061093330383,-1.5804170370101929,0.9767598509788513,0.6382637023925781,0.6906831860542297,-0.38641396164894104,0.971070408821106,0.2843571901321411,0.41143131256103516,-1.5923761129379272,0.9764509201049805,0.6270188093185425,0.6817565560340881,-0.2880299389362335,0.971583366394043,0.2798314690589905,0.4197431802749634,-1.4781477451324463,0.9666941165924072,0.49269619584083557,0.6307233572006226,0.07386079430580139,0.9978389143943787,0.31755974888801575,0.6485746502876282,-0.07359336316585541,0.9979828596115112,0.48519471287727356,0.8412232995033264,0.32250016927719116,0.956001341342926,0.3433796167373657,0.8672465085983276,0.11295054852962494,0.969698965549469,0.4860045909881592,0.958740770816803,1.0226701498031616,0.8821117877960205,0.3564804196357727,0.9874410033226013,0.6789011359214783,0.8877029418945312,0.4684503376483917,0.9710277318954468,1.0742138624191284,0.8260159492492676,0.3532867729663849,0.9869599342346191,0.7235398292541504,0.6895959973335266,0.5400638580322266,1.0235365629196167,0.8073327541351318,0.8207466006278992,0.39863595366477966,1.0815815925598145,0.3652283549308777,0.7578919529914856
19648.024612485246,0.44805851578712463,0.2383066862821579,-1.0374748706817627,0.9999889135360718,0.45440220832824707,0.21158620715141296,-0.9905514121055603,0.999977707862854,0.4625120759010315,0.21093252301216125,-0.9905483722686768,0.9999772310256958,0.469748854637146,0.21028846502304077,-0.9905191659927368,0.9999678134918213,0.4211621582508087,0.21250545978546143,-1.0275453329086304,0.9999805688858032,0.4026508331298828,0.21245315670967102,-1.027717113494873,0.999982476234436,0.3829134404659271,0.21259251236915588,-1.0277693271636963,0.999977707862854,0.45716822147369385,0.21826627850532532,-0.6487597227096558,0.9999803304672241,0.32980337738990784,0.222090482711792,-0.8285667896270752,0.9999817609786987,0.4542216658592224,0.260517418384552,-0.9023565053939819,0.9999914169311523,0.417692095041275,0.26347222924232483,-0.9532425403594971,0.9999932050704956,0.525089681148529,0.3489497900009155,-0.3826018273830414,0.9999380111694336,0.1753690093755722,0.3696374297142029,-0.6437884569168091,0.9998114705085754,0.569324254989624,0.5126336216926575,-0.07384937256574631,0.9830652475357056,0.16719482839107513,0.557336151599884,-0.9687162637710571,0.9896479249000549,0.6323714852333069,0.6493062376976013,-0.2084273099899292,0.9877723455429077,0.25991618633270264,0.46974849700927734,-1.5646748542785645,0.9920448064804077,0.6506227254867554,0.6900485754013062,-0.24693851172924042,0.975145697593689,0.2881159782409668,0.43993914127349854,-1.6854195594787598,0.9866381883621216,0.6393814086914062,0.6897792816162109,-0.3319799602031708,0.9764536619186401,0.27730926871299744,0.4167688190937042,-1.694571614265442,0.9863560199737549,0.62827467918396,0.6811249852180481,-0.23908045887947083,0.976791501045227,0.27369821071624756,0.42365097999572754,-1.5760263204574585,0.9794595837593079,0.492879718542099,0.6310454607009888,0.0759827122092247,0.9987537860870361,0.31650108098983765,0.6501778960227966,-0.07581804692745209,0.9987881779670715,0.48412442207336426,0.8392542600631714,0.3214902877807617,0.9653251767158508,0.3405945599079132,0.8693477511405945,0.13073848187923431,0.9729719161987305,0.4834150969982147,0.9539627432823181,1.1086279153823853,0.9029092788696289,0.35374322533607483,0.9822831749916077,0.7754350304603577,0.9134157299995422,0.46429353952407837,0.9675425291061401,1.1689616441726685,0.857453465461731,0.3560227155685425,0.9827454686164856,0.828231692314148,0.7476457953453064,0.540206789970398,1.0224440097808838,0.9069228768348694,0.8559672236442566,0.38741055130958557,1.0719177722930908,0.4724765121936798,0.8155409097671509
19664.691279151913,0.4492110311985016,0.23844344913959503,-1.0680054426193237,0.9999884366989136,0.4560452103614807,0.21207961440086365,-1.0219722986221313,0.999976396560669,0.46407002210617065,0.21142062544822693,-1.0219519138336182,0.9999761581420898,0.4711313843727112,0.21072861552238464,-1.021919846534729,0.9999667406082153,0.42253419756889343,0.21261081099510193,-1.0591580867767334,0.999980092048645,0.40414923429489136,0.2122996747493744,-1.0593407154083252,0.9999819993972778,0.38466113805770874,0.21219053864479065,-1.0593750476837158,0.9999769926071167,0.45838046073913574,0.21849897503852844,-0.6817668080329895,0.99997878074646,0.3327310383319855,0.22158941626548767,-0.8615062832832336,0.9999799728393555,0.45407095551490784,0.26076218485832214,-0.9334270358085632,0.9999903440475464,0.41812533140182495,0.26299092173576355,-0.9842634797096252,0.9999923706054688,0.523833155632019,0.3492456376552582,-0.41246920824050903,0.9999247789382935,0.17562240362167358,0.37131956219673157,-0.6756644248962402,0.9997991919517517,0.5683236718177795,0.5142573118209839,-0.11401275545358658,0.9815940856933594,0.1664375513792038,0.5585698485374451,-0.987960696220398,0.9888207912445068,0.6340435147285461,0.6487411260604858,-0.253640741109848,0.9853826761245728,0.2685917317867279,0.4715452492237091,-1.5623639822006226,0.9900898933410645,0.6500906944274902,0.6909589171409607,-0.2930785119533539,0.9700928330421448,0.29819491505622864,0.4367716908454895,-1.6801913976669312,0.9833129048347473,0.638945460319519,0.6906758546829224,-0.3786855936050415,0.9717856049537659,0.28532230854034424,0.41587406396865845,-1.689064860343933,0.9829117059707642,0.6290011405944824,0.6814875602722168,-0.2850785255432129,0.9722368121147156,0.2808270752429962,0.4232771098613739,-1.5733052492141724,0.9744883179664612,0.4952895939350128,0.6293501257896423,0.08010425418615341,0.9984230995178223,0.31521978974342346,0.6484946012496948,-0.07994836568832397,0.9986494183540344,0.4855510890483856,0.8388758897781372,0.34629273414611816,0.9623988270759583,0.3418516218662262,0.870402991771698,0.1330668032169342,0.9748968482017517,0.483589231967926,0.9545444250106812,1.1005055904388428,0.9024195671081543,0.3500930964946747,0.9821866750717163,0.7548146843910217,0.9188462495803833,0.46235421299934387,0.9673555493354797,1.1575109958648682,0.8550105690956116,0.35086336731910706,0.9819931387901306,0.8047630190849304,0.7508729696273804,0.5622255802154541,1.022819995880127,0.8936343789100647,0.8593776822090149,0.38991105556488037,1.0726487636566162,0.44811514019966125,0.8233214020729065
19681.35794581858,0.4495616853237152,0.23896096646785736,-1.050594449043274,0.9999871253967285,0.45634615421295166,0.21265694499015808,-1.0042071342468262,0.9999738931655884,0.46433278918266296,0.21190407872200012,-1.0041964054107666,0.9999737739562988,0.4713968336582184,0.21114391088485718,-1.0041643381118774,0.9999632835388184,0.4230015277862549,0.21343564987182617,-1.0415641069412231,0.9999779462814331,0.4048958718776703,0.21315163373947144,-1.0417453050613403,0.999980092048645,0.3854838013648987,0.21304592490196228,-1.0417879819869995,0.9999747276306152,0.4588860869407654,0.21883440017700195,-0.6631569266319275,0.999976396560669,0.3332104980945587,0.2223309874534607,-0.843527615070343,0.9999783039093018,0.4549984037876129,0.2611753046512604,-0.9157337546348572,0.9999895095825195,0.41917383670806885,0.26354965567588806,-0.9667499661445618,0.999991774559021,0.5237840414047241,0.3487071096897125,-0.39278310537338257,0.9999266862869263,0.17857076227664948,0.37081995606422424,-0.6587108373641968,0.9997995495796204,0.5692172050476074,0.5138583183288574,-0.09027262032032013,0.981669008731842,0.16573117673397064,0.5580248236656189,-0.9692289233207703,0.9889794588088989,0.6340994834899902,0.6485544443130493,-0.2305830419063568,0.9856926202774048,0.2660205364227295,0.47116750478744507,-1.5449059009552002,0.9902530908584595,0.6504632234573364,0.6906746029853821,-0.27027133107185364,0.9709104299545288,0.29556336998939514,0.4376251697540283,-1.6625680923461914,0.9836171865463257,0.6393601894378662,0.6904601454734802,-0.3555039167404175,0.972579836845398,0.28316256403923035,0.4160436987876892,-1.672132134437561,0.9832215309143066,0.6293031573295593,0.6813425421714783,-0.2618546783924103,0.9729728698730469,0.2783270478248596,0.4238168001174927,-1.5559765100479126,0.9748886823654175,0.49560824036598206,0.6298292875289917,0.08240848779678345,0.9984065890312195,0.31637197732925415,0.6485461592674255,-0.08224786818027496,0.9985949397087097,0.4863768219947815,0.8392148017883301,0.34405967593193054,0.9603710770606995,0.34358203411102295,0.869846522808075,0.12881463766098022,0.9732339382171631,0.4841351807117462,0.9561294913291931,1.0977284908294678,0.8988566994667053,0.35171961784362793,0.9824963808059692,0.7496892213821411,0.9131150245666504,0.46251481771469116,0.9685162305831909,1.1547305583953857,0.8509567975997925,0.353166788816452,0.9823315739631653,0.7996907830238342,0.7413598299026489,0.5615628957748413,1.0240432024002075,0.8907535076141357,0.8546229600906372,0.39336809515953064,1.0735492706298828,0.44249624013900757,0.8140475749969482
19698.02461248525,0.4472987651824951,0.2376565933227539,-1.0368059873580933,0.999984860420227,0.4545159637928009,0.2108689546585083,-0.9873178601264954,0.9999706745147705,0.46273303031921387,0.21007823944091797,-0.9873532652854919,0.9999717473983765,0.47002485394477844,0.2093845009803772,-0.9873673319816589,0.9999613761901855,0.4204022288322449,0.21214896440505981,-1.0243488550186157,0.9999728202819824,0.40146467089653015,0.21212592720985413,-1.024531364440918,0.9999750852584839,0.381991982460022,0.21232998371124268,-1.0245957374572754,0.9999665021896362,0.4583457112312317,0.21835026144981384,-0.6392430663108826,0.9999778270721436,0.3314414322376251,0.22286221385002136,-0.8172624707221985,0.9999710321426392,0.4530766010284424,0.2599809467792511,-0.9005163311958313,0.9999885559082031,0.41666388511657715,0.2632848024368286,-0.9510302543640137,0.9999891519546509,0.5262115597724915,0.35148945450782776,-0.3739570379257202,0.9999204874038696,0.17934365570545197,0.3709203600883484,-0.6334038972854614,0.999660849571228,0.5732594728469849,0.5140009522438049,-0.07551246136426926,0.9830042123794556,0.17610372602939606,0.5565031170845032,-0.9577502012252808,0.9820404052734375,0.634989321231842,0.6459019780158997,-0.2066563218832016,0.9853297472000122,0.26995083689689636,0.4692726731300354,-1.5542117357254028,0.9840735197067261,0.6509915590286255,0.6894779205322266,-0.24519255757331848,0.9699882864952087,0.29656460881233215,0.4365651309490204,-1.673284888267517,0.9751635193824768,0.6389545202255249,0.68922358751297,-0.33321231603622437,0.9719482064247131,0.28611165285110474,0.4131452143192291,-1.6861478090286255,0.9746372103691101,0.6295439004898071,0.6796839833259583,-0.23855315148830414,0.9726668000221252,0.2827014923095703,0.42039817571640015,-1.5679655075073242,0.9632246494293213,0.49483004212379456,0.6292485594749451,0.07898111641407013,0.9981497526168823,0.313311904668808,0.6470255851745605,-0.07870440930128098,0.9982739686965942,0.4865032136440277,0.8411247134208679,0.2845873534679413,0.9685724973678589,0.3407878279685974,0.8663005232810974,0.0914711058139801,0.975716769695282,0.48529648780822754,0.9600453972816467,1.0630232095718384,0.9093273282051086,0.3583826422691345,0.9871690273284912,0.7219597697257996,0.9205513596534729,0.4650936722755432,0.970463752746582,1.1208571195602417,0.857833743095398,0.3642697036266327,0.9879986643791199,0.7711418867111206,0.730476438999176,0.538074791431427,1.0277657508850098,0.8422468304634094,0.8606407642364502,0.38787198066711426,1.07843017578125,0.39803361892700195,0.8229799270629883
19714.691279151917,0.4457662105560303,0.236162930727005,-1.055719017982483,0.9999879598617554,0.4533142149448395,0.2086806297302246,-1.0059797763824463,0.9999772310256958,0.46179720759391785,0.20800000429153442,-1.0060175657272339,0.9999781847000122,0.46948757767677307,0.2073848843574524,-1.0060116052627563,0.9999692440032959,0.4185938239097595,0.2104661464691162,-1.0413681268692017,0.9999793767929077,0.39916425943374634,0.21084100008010864,-1.0415425300598145,0.9999815225601196,0.3797060549259186,0.2113184630870819,-1.0416141748428345,0.9999752044677734,0.45994070172309875,0.2167581021785736,-0.6550636887550354,0.9999823570251465,0.3301290273666382,0.2220918834209442,-0.8250251412391663,0.999980092048645,0.45181265473365784,0.2588958144187927,-0.9184888601303101,0.9999909400939941,0.4154011607170105,0.26216378808021545,-0.96664959192276,0.9999918937683105,0.5265045166015625,0.350677490234375,-0.38022473454475403,0.999924898147583,0.17788057029247284,0.3706619143486023,-0.6449347138404846,0.9997511506080627,0.5698187947273254,0.5120742917060852,-0.08282271772623062,0.9804526567459106,0.1757580041885376,0.5529601573944092,-0.9717400074005127,0.9845808148384094,0.6330786347389221,0.6428371667861938,-0.22493571043014526,0.9836192727088928,0.2673811614513397,0.47024041414260864,-1.577003002166748,0.9865424633026123,0.6513147354125977,0.6859564781188965,-0.2643616795539856,0.967517614364624,0.2953200340270996,0.4348577558994293,-1.6982076168060303,0.9786598086357117,0.6410314440727234,0.6863150596618652,-0.3506528437137604,0.9698386788368225,0.28566601872444153,0.4132680594921112,-1.7130755186080933,0.9783963561058044,0.6319184899330139,0.6768867373466492,-0.2569427490234375,0.9705424308776855,0.28186917304992676,0.4204033613204956,-1.5918231010437012,0.9685938954353333,0.4929516017436981,0.6273081302642822,0.0834277868270874,0.9978834986686707,0.3128974139690399,0.6461490988731384,-0.08318459987640381,0.9980436563491821,0.4856528639793396,0.8340200781822205,0.33010774850845337,0.957566499710083,0.34163859486579895,0.8641531467437744,0.11307305842638016,0.9717959761619568,0.48336902260780334,0.9589836001396179,1.0640519857406616,0.8916546702384949,0.3613812029361725,0.9835215210914612,0.7150571942329407,0.9026911854743958,0.4627608358860016,0.9699012041091919,1.117390513420105,0.8405706882476807,0.3673613965511322,1.0094449520111084,0.7618922591209412,0.7153432965278625,0.5651937127113342,1.0269725322723389,0.8372618556022644,0.8385227918624878,0.4015462398529053,1.0770747661590576,0.3919859826564789,0.7916300296783447
19731.357945818585,0.44754084944725037,0.23659253120422363,-1.0214953422546387,0.9999798536300659,0.45397114753723145,0.20918256044387817,-0.9753813743591309,0.9999607801437378,0.4622843861579895,0.20817750692367554,-0.9754631519317627,0.9999624490737915,0.4698184132575989,0.2072540819644928,-0.9755075573921204,0.9999489784240723,0.4199257791042328,0.21126943826675415,-1.0072296857833862,0.9999650716781616,0.4008723199367523,0.2115420699119568,-1.0074259042739868,0.9999682903289795,0.38132211565971375,0.2119748592376709,-1.0075016021728516,0.9999598264694214,0.46003296971321106,0.21609452366828918,-0.6477201581001282,0.9999682903289795,0.3315863311290741,0.22293779253959656,-0.7990860342979431,0.9999651908874512,0.4539462625980377,0.2588105797767639,-0.8925548195838928,0.9999841451644897,0.41828951239585876,0.26255691051483154,-0.9353657960891724,0.9999864101409912,0.528654158115387,0.3494311571121216,-0.3970334231853485,0.9998779296875,0.1762429028749466,0.37304791808128357,-0.6141900420188904,0.9996652603149414,0.5704182386398315,0.5132930874824524,-0.13658897578716278,0.9770073890686035,0.1755041629076004,0.5585505962371826,-0.9017354249954224,0.9852340817451477,0.6344451904296875,0.6447293162345886,-0.28823399543762207,0.9770708084106445,0.27478718757629395,0.46962451934814453,-1.4556901454925537,0.9873535633087158,0.6511282324790955,0.6885948181152344,-0.3314465582370758,0.9557660818099976,0.30215251445770264,0.43059074878692627,-1.565768837928772,0.9791346788406372,0.6394892930984497,0.6886295676231384,-0.41211241483688354,0.9583118557929993,0.29063868522644043,0.4112122654914856,-1.5750352144241333,0.9785947203636169,0.6305961608886719,0.6791265606880188,-0.3185228109359741,0.9604377150535583,0.28959402441978455,0.4197348356246948,-1.4665073156356812,0.9688531756401062,0.49437853693962097,0.6294130682945251,0.06695900857448578,0.9970563650131226,0.31142184138298035,0.6466546058654785,-0.06670176982879639,0.9973872303962708,0.48475146293640137,0.8462185263633728,0.2867428958415985,0.9579238295555115,0.34267470240592957,0.8674830198287964,0.11012167483568192,0.9710389971733093,0.4860258996486664,0.9711962938308716,0.9813280701637268,0.8825883865356445,0.36198896169662476,0.9907411932945251,0.6696677803993225,0.8942379951477051,0.46575742959976196,0.9793329238891602,1.031011700630188,0.8146443367004395,0.3725677728652954,1.0179221630096436,0.7131079435348511,0.7022570371627808,0.5642969012260437,1.0375497341156006,0.761760413646698,0.8157286047935486,0.3997419476509094,1.0833566188812256,0.3599716126918793,0.7752406597137451
19748.024612485253,0.44532549381256104,0.23944035172462463,-1.0036170482635498,0.9999760389328003,0.4529505670070648,0.21321728825569153,-0.9542155265808105,0.9999544620513916,0.4613415598869324,0.2123011350631714,-0.9542945027351379,0.9999556541442871,0.46866536140441895,0.21150556206703186,-0.9543264508247375,0.9999407529830933,0.41931843757629395,0.2145230770111084,-0.9892086386680603,0.9999568462371826,0.4010078012943268,0.2143750786781311,-0.989401638507843,0.9999598264694214,0.3819343149662018,0.21444520354270935,-0.9894927144050598,0.9999481439590454,0.45893603563308716,0.2198038101196289,-0.6051928400993347,0.9999630451202393,0.33239081501960754,0.22402223944664001,-0.7728975415229797,0.9999532699584961,0.4517695903778076,0.2614603638648987,-0.8665534853935242,0.9999814033508301,0.4158986210823059,0.2646269202232361,-0.9141332507133484,0.9999830722808838,0.526954710483551,0.3516180217266083,-0.3429173529148102,0.999904990196228,0.17967358231544495,0.36913758516311646,-0.5886087417602539,0.9996302127838135,0.5692431330680847,0.5139834880828857,-0.07809742540121078,0.981975793838501,0.1768943965435028,0.5550939440727234,-0.9043183326721191,0.9824404716491699,0.6322710514068604,0.6448638439178467,-0.2508823573589325,0.9837009310722351,0.27522480487823486,0.4600672125816345,-1.4951586723327637,0.9855713844299316,0.649544358253479,0.6890184879302979,-0.2983672320842743,0.9670166373252869,0.30089515447616577,0.42697054147720337,-1.6128697395324707,0.9770574569702148,0.6374893188476562,0.6889098286628723,-0.3844175636768341,0.9692202210426331,0.2923300266265869,0.4064018726348877,-1.6247904300689697,0.9767146110534668,0.6278183460235596,0.6794866323471069,-0.2833631932735443,0.9701345562934875,0.2891373634338379,0.41412749886512756,-1.5078461170196533,0.9662266969680786,0.4940102696418762,0.6287667751312256,0.08154487609863281,0.9974525570869446,0.3140347898006439,0.6469022631645203,-0.08128379285335541,0.9975767731666565,0.48536691069602966,0.8417226672172546,0.2629038393497467,0.9549095034599304,0.3431795835494995,0.8682833313941956,0.06858381628990173,0.9661825895309448,0.48662737011909485,0.9624727368354797,1.0182464122772217,0.8785169720649719,0.3627556562423706,0.989194393157959,0.6696181893348694,0.8911939263343811,0.46775782108306885,0.9734489321708679,1.074175238609314,0.8220362067222595,0.36843323707580566,1.015511155128479,0.7167455554008484,0.6790751814842224,0.5353794693946838,1.0296473503112793,0.7951236367225647,0.8186703324317932,0.3924987018108368,1.0830974578857422,0.3441554605960846,0.7730870246887207
19764.69127915192,0.4424871504306793,0.2370031177997589,-0.9893677234649658,0.9999812841415405,0.45094621181488037,0.21043068170547485,-0.9400904774665833,0.9999645948410034,0.4599355459213257,0.20951569080352783,-0.9401919841766357,0.9999661445617676,0.46795663237571716,0.20880010724067688,-0.9402435421943665,0.9999542236328125,0.4153567850589752,0.2118200957775116,-0.9698577523231506,0.9999639987945557,0.3956340551376343,0.21178287267684937,-0.9700185060501099,0.999966025352478,0.3768133819103241,0.21200010180473328,-0.9700742959976196,0.9999552965164185,0.4614242613315582,0.2178719937801361,-0.5950415730476379,0.9999719858169556,0.32839709520339966,0.22276967763900757,-0.7402651906013489,0.9999597072601318,0.4506690502166748,0.2594722807407379,-0.8545898795127869,0.9999854564666748,0.41351181268692017,0.2626049816608429,-0.8955678343772888,0.999985933303833,0.5268337726593018,0.3510652482509613,-0.344237357378006,0.9999140501022339,0.1793813854455948,0.3711366355419159,-0.5435974597930908,0.9995918869972229,0.5699223279953003,0.5152761340141296,-0.07998047024011612,0.9821435809135437,0.17402483522891998,0.5564988851547241,-0.8424409627914429,0.9749335646629333,0.6341831088066101,0.646255373954773,-0.25166383385658264,0.9835218191146851,0.26937398314476013,0.4705013632774353,-1.452252745628357,0.9790734052658081,0.6499109864234924,0.689318060874939,-0.30139610171318054,0.9676921963691711,0.2953132390975952,0.43471574783325195,-1.5701640844345093,0.9692699909210205,0.6374342441558838,0.6891385912895203,-0.38943493366241455,0.9697980880737305,0.2836862802505493,0.4128000736236572,-1.5865510702133179,0.9689290523529053,0.6277545690536499,0.6798049807548523,-0.2846575677394867,0.9707090258598328,0.2806864380836487,0.42105650901794434,-1.4678455591201782,0.9566611051559448,0.49465253949165344,0.628983199596405,0.06966089457273483,0.997734546661377,0.3129926919937134,0.646540641784668,-0.0693245381116867,0.9977685213088989,0.48591482639312744,0.8431200385093689,0.24248339235782623,0.9591436386108398,0.34272024035453796,0.8690969944000244,0.07566268742084503,0.9687891602516174,0.4864543080329895,0.9614556431770325,1.0080103874206543,0.8811038136482239,0.36142411828041077,0.9876177906990051,0.6824363470077515,0.8923142552375793,0.46812474727630615,0.9716476798057556,1.064884066581726,0.8237631916999817,0.36665472388267517,0.9882258772850037,0.7301843762397766,0.6784688234329224,0.5347065329551697,1.0301475524902344,0.7888120412826538,0.8153619766235352,0.3894551694393158,1.0802339315414429,0.36284583806991577,0.768460214138031
19781.35794581859,0.4448474049568176,0.23749743402004242,-1.0249028205871582,0.9999843835830688,0.45251360535621643,0.21083900332450867,-0.9777666330337524,0.999969482421875,0.46128353476524353,0.2097475528717041,-0.9778351783752441,0.9999707937240601,0.46897000074386597,0.20884203910827637,-0.9778405427932739,0.9999595880508423,0.41776251792907715,0.21262463927268982,-1.0078204870224,0.9999717473983765,0.39837077260017395,0.21260032057762146,-1.0079938173294067,0.999974250793457,0.37922465801239014,0.21281078457832336,-1.0080560445785522,0.9999662637710571,0.4611109793186188,0.2178800106048584,-0.6423290967941284,0.9999754428863525,0.32996296882629395,0.22335225343704224,-0.7870333194732666,0.9999700784683228,0.4527031183242798,0.2596741318702698,-0.8937000632286072,0.9999878406524658,0.41607797145843506,0.26323437690734863,-0.9345347881317139,0.9999891519546509,0.5250411033630371,0.35058292746543884,-0.3876149654388428,0.9999027252197266,0.17882412672042847,0.3726462423801422,-0.6029523015022278,0.999717652797699,0.5689294934272766,0.5130655169487,-0.12557657063007355,0.977009654045105,0.17703339457511902,0.5574505925178528,-0.9073383808135986,0.9822703003883362,0.631225049495697,0.6427026391029358,-0.284435510635376,0.9786757826805115,0.2767449915409088,0.46635597944259644,-1.4928174018859863,0.98533034324646,0.6496316194534302,0.6869942545890808,-0.3287629783153534,0.9592204093933105,0.30251747369766235,0.43003523349761963,-1.6082359552383423,0.9769994616508484,0.6379978656768799,0.6871810555458069,-0.4117039740085602,0.96151202917099,0.29078274965286255,0.40917688608169556,-1.6196011304855347,0.9764452576637268,0.6282234191894531,0.6777352094650269,-0.3156341314315796,0.9628602266311646,0.2877521514892578,0.41802775859832764,-1.5058568716049194,0.9660162925720215,0.49261659383773804,0.6288353800773621,0.07470884919166565,0.997443675994873,0.31220701336860657,0.6474014520645142,-0.07445845007896423,0.9977224469184875,0.4865557551383972,0.8385204076766968,0.30984559655189514,0.9564975500106812,0.3437252938747406,0.8679780960083008,0.11578739434480667,0.9736190438270569,0.48445695638656616,0.961979866027832,1.0253221988677979,0.8858401775360107,0.36409157514572144,0.9871759414672852,0.6939165592193604,0.9046360850334167,0.4639861583709717,0.9727683663368225,1.0775209665298462,0.827509343624115,0.37015995383262634,1.011465311050415,0.7389035820960999,0.7241889834403992,0.5486382842063904,1.0258166790008545,0.8091396689414978,0.829395592212677,0.40694916248321533,1.077401876449585,0.38294175267219543,0.7942607402801514
19798.024612485257,0.45042315125465393,0.23867233097553253,-1.0723485946655273,0.9999850988388062,0.4570588171482086,0.21164536476135254,-1.0258430242538452,0.9999701976776123,0.4649934768676758,0.21072179079055786,-1.0258419513702393,0.9999703168869019,0.4719523787498474,0.20982453227043152,-1.025815486907959,0.9999586343765259,0.4235784709453583,0.2130327820777893,-1.0632822513580322,0.9999744892120361,0.4052635729312897,0.2129429578781128,-1.0634921789169312,0.9999771118164062,0.3854178786277771,0.21310949325561523,-1.063563585281372,0.9999706745147705,0.45859020948410034,0.2179087996482849,-0.6823320388793945,0.9999736547470093,0.33360958099365234,0.22318023443222046,-0.8624551892280579,0.999974250793457,0.4554234445095062,0.26119130849838257,-0.9363614916801453,0.9999879598617554,0.4194827377796173,0.2643854320049286,-0.9874009490013123,0.9999901056289673,0.5264762043952942,0.351447194814682,-0.4077833592891693,0.9999114274978638,0.17573657631874084,0.36969754099845886,-0.6789054870605469,0.9997631907463074,0.5666239261627197,0.5145361423492432,-0.11673714220523834,0.979871928691864,0.17572233080863953,0.5598462820053101,-0.9920451641082764,0.9884456396102905,0.6320026516914368,0.6484001874923706,-0.2635069787502289,0.9838861227035522,0.27706092596054077,0.4619539976119995,-1.562672734260559,0.9905202388763428,0.6484829187393188,0.6907265782356262,-0.30301159620285034,0.967531681060791,0.29983988404273987,0.4302214980125427,-1.679682731628418,0.9840531349182129,0.636672854423523,0.6904521584510803,-0.38806813955307007,0.9693869948387146,0.28903937339782715,0.4101269841194153,-1.6876068115234375,0.9836943745613098,0.6264264583587646,0.6814093589782715,-0.29479551315307617,0.9699052572250366,0.28588491678237915,0.4172726273536682,-1.5730016231536865,0.9754133820533752,0.49593886733055115,0.6284457445144653,0.08362407982349396,0.9980666041374207,0.31456321477890015,0.6477267742156982,-0.08347820490598679,0.9983009696006775,0.4862700402736664,0.8406130075454712,0.3285779058933258,0.9585913419723511,0.3439219892024994,0.8708217740058899,0.11329331994056702,0.9713767170906067,0.48367395997047424,0.9590253829956055,1.0866477489471436,0.891819179058075,0.3584975600242615,0.9875909686088562,0.7311469316482544,0.911095380783081,0.46201252937316895,0.9710261821746826,1.143874168395996,0.8445735573768616,0.36155936121940613,0.9880285263061523,0.7806576490402222,0.7374318838119507,0.5609484910964966,1.0273674726486206,0.8780745267868042,0.8458977341651917,0.39557385444641113,1.0770072937011719,0.4203953742980957,0.8115382790565491
19814.691279151924,0.44813084602355957,0.23743675649166107,-1.0195776224136353,0.9999829530715942,0.45483458042144775,0.2104925513267517,-0.9728226065635681,0.9999673366546631,0.4628627598285675,0.20953351259231567,-0.9728716611862183,0.9999685287475586,0.46997812390327454,0.20867738127708435,-0.9728808999061584,0.9999558925628662,0.42136359214782715,0.2121671736240387,-1.0084580183029175,0.9999712705612183,0.40246009826660156,0.2122088074684143,-1.008646011352539,0.9999744892120361,0.3828401267528534,0.21245035529136658,-1.0087225437164307,0.9999663829803467,0.4571349620819092,0.2170945405960083,-0.6369826197624207,0.9999740123748779,0.3317471146583557,0.222792387008667,-0.8076086640357971,0.9999725818634033,0.4535427987575531,0.2592867612838745,-0.887424647808075,0.9999873638153076,0.41735056042671204,0.26275166869163513,-0.9357701539993286,0.9999891519546509,0.5249394178390503,0.35026755928993225,-0.3751422166824341,0.9999096393585205,0.17771020531654358,0.3693927228450775,-0.6273059844970703,0.9997320771217346,0.5707381963729858,0.512112557888031,-0.08651430904865265,0.9791616201400757,0.16938917338848114,0.5554605722427368,-0.9376101493835449,0.984348475933075,0.6320739984512329,0.6452521085739136,-0.22482390701770782,0.9797365069389343,0.26257216930389404,0.4697914719581604,-1.5191848278045654,0.9860250353813171,0.6483449935913086,0.688886821269989,-0.2632213830947876,0.9601727724075317,0.2876812517642975,0.43486011028289795,-1.634220838546753,0.9780253767967224,0.6367489099502563,0.6888498067855835,-0.3458883464336395,0.9628748297691345,0.27744045853614807,0.4132712483406067,-1.6488432884216309,0.9777906537055969,0.627870500087738,0.6792999505996704,-0.2553940415382385,0.9644029140472412,0.27454090118408203,0.42089343070983887,-1.53312087059021,0.9679630398750305,0.4919776916503906,0.6296980977058411,0.07603030651807785,0.9977980852127075,0.3107334077358246,0.6474300026893616,-0.07577702403068542,0.997967541217804,0.48514416813850403,0.8399666547775269,0.2976277470588684,0.9575344324111938,0.34107401967048645,0.8647732138633728,0.10382260382175446,0.9689782857894897,0.48634734749794006,0.9662818908691406,1.00237238407135,0.8879727721214294,0.3636203110218048,0.9849697351455688,0.6830630302429199,0.8953918814659119,0.46702077984809875,0.9758495092391968,1.053118348121643,0.8338263034820557,0.3677925765514374,0.985175371170044,0.7279865145683289,0.7076001763343811,0.5701248645782471,1.0322105884552002,0.7796072363853455,0.8299846053123474,0.3978404402732849,1.0770548582077026,0.3703719973564148,0.781227171421051
19831.357945818592,0.4477223753929138,0.23690679669380188,-1.0236152410507202,0.9999840259552002,0.4546375274658203,0.20967864990234375,-0.9769918322563171,0.9999690055847168,0.46281132102012634,0.20879173278808594,-0.977033793926239,0.9999699592590332,0.47008565068244934,0.2079964578151703,-0.9770328998565674,0.999957799911499,0.42078763246536255,0.21150314807891846,-1.011940360069275,0.999972939491272,0.4018687307834625,0.2116890251636505,-1.0121251344680786,0.9999760389328003,0.3824690580368042,0.21202677488327026,-1.0122003555297852,0.9999685287475586,0.45802026987075806,0.21667993068695068,-0.6427537798881531,0.9999752044677734,0.33181482553482056,0.22245964407920837,-0.8099449276924133,0.9999744892120361,0.45355701446533203,0.2588209807872772,-0.892288327217102,0.999988317489624,0.41694656014442444,0.26204392313957214,-0.939609944820404,0.9999901056289673,0.5255916714668274,0.35011520981788635,-0.38069283962249756,0.9999099969863892,0.1772775948047638,0.36940571665763855,-0.6330047845840454,0.9997557997703552,0.5701307654380798,0.5115968585014343,-0.09176208823919296,0.9778652191162109,0.1693463921546936,0.5562354922294617,-0.944027841091156,0.9852450489997864,0.6320782899856567,0.6448338627815247,-0.227608785033226,0.9787443280220032,0.2639826536178589,0.46929341554641724,-1.5228537321090698,0.9867575168609619,0.6484602093696594,0.688569962978363,-0.26565688848495483,0.9588377475738525,0.2889716625213623,0.4329702854156494,-1.637679100036621,0.9790874719619751,0.6367572546005249,0.6885977983474731,-0.34773045778274536,0.9615574479103088,0.27838683128356934,0.41237831115722656,-1.6519339084625244,0.978821873664856,0.6279492378234863,0.6790467500686646,-0.25792068243026733,0.9632685780525208,0.27567800879478455,0.4200168251991272,-1.536582589149475,0.9694191813468933,0.4920487701892853,0.6296405792236328,0.0785311684012413,0.9978846907615662,0.3105035722255707,0.6476923823356628,-0.07828866690397263,0.9980864524841309,0.48544859886169434,0.8403734564781189,0.3084438741207123,0.9575979709625244,0.34122952818870544,0.8654563426971436,0.10927662998437881,0.9712920188903809,0.48530513048171997,0.9661794304847717,1.012269377708435,0.8908512592315674,0.3635600209236145,0.9858095645904541,0.6888745427131653,0.900664210319519,0.46480119228363037,0.9769991040229797,1.0630550384521484,0.8380359411239624,0.3682354688644409,0.986803412437439,0.7339274883270264,0.719886839389801,0.5730739235877991,1.0310724973678589,0.792108416557312,0.8353614807128906,0.40100669860839844,1.0770528316497803,0.37864580750465393,0.7898016571998596
19848.02461248526,0.445438027381897,0.23875322937965393,-1.0056002140045166,0.9999817609786987,0.45355963706970215,0.2124062478542328,-0.957571804523468,0.999964714050293,0.4621044397354126,0.21156662702560425,-0.9576417207717896,0.9999657869338989,0.4697549343109131,0.210762619972229,-0.9576749205589294,0.9999527931213379,0.4193685054779053,0.21389368176460266,-0.9920669198036194,0.9999686479568481,0.40061694383621216,0.21395951509475708,-0.992252767086029,0.9999715089797974,0.38129326701164246,0.21419724822044373,-0.9923415780067444,0.9999634027481079,0.4609462320804596,0.2190355360507965,-0.6183509230613708,0.9999717473983765,0.3309294581413269,0.22407880425453186,-0.7828751802444458,0.9999703168869019,0.4526897370815277,0.26065966486930847,-0.8720870614051819,0.9999860525131226,0.415457546710968,0.26326027512550354,-0.918795645236969,0.9999880790710449,0.527981162071228,0.35091671347618103,-0.35780251026153564,0.9998985528945923,0.17778097093105316,0.3703746199607849,-0.6018503904342651,0.9997230172157288,0.5687944293022156,0.5124725103378296,-0.08219335973262787,0.975640058517456,0.17387698590755463,0.5557426810264587,-0.9058171510696411,0.9839106798171997,0.6306777596473694,0.6449676752090454,-0.2366577386856079,0.9758480191230774,0.2698008418083191,0.46674779057502747,-1.4831607341766357,0.9851381778717041,0.6475863456726074,0.6879655122756958,-0.27864062786102295,0.9542735815048218,0.29658791422843933,0.4322353005409241,-1.5976895093917847,0.9764777421951294,0.6367751359939575,0.6879487633705139,-0.36202481389045715,0.9570835828781128,0.2874615490436554,0.4126608967781067,-1.6107581853866577,0.97603839635849,0.6275149583816528,0.6788136959075928,-0.2680906057357788,0.9588745832443237,0.28394296765327454,0.4203338623046875,-1.4961766004562378,0.9653195738792419,0.49339038133621216,0.6281095147132874,0.07357016205787659,0.9974422454833984,0.3095223307609558,0.6456235647201538,-0.07326070219278336,0.9977795481681824,0.48650792241096497,0.8440269231796265,0.2718766927719116,0.9598101377487183,0.3414553999900818,0.8671776056289673,0.08832822740077972,0.9707363247871399,0.4865758717060089,0.9681914448738098,0.9835590720176697,0.8881178498268127,0.3637104630470276,0.9930556416511536,0.6623183488845825,0.9004495739936829,0.4666935205459595,0.9772734642028809,1.0348092317581177,0.8309541940689087,0.36762475967407227,0.9937728047370911,0.7062874436378479,0.7106678485870361,0.569005012512207,1.0308812856674194,0.7596668601036072,0.8288931250572205,0.4003371000289917,1.0803470611572266,0.3433789014816284,0.7869477272033691
19864.691279151928,0.44298845529556274,0.23909012973308563,-1.0594074726104736,0.9999884366989136,0.4516621232032776,0.21184074878692627,-1.0120047330856323,0.9999768733978271,0.460502028465271,0.21096843481063843,-1.012036681175232,0.9999773502349854,0.4683919847011566,0.21013614535331726,-1.012026071548462,0.9999680519104004,0.4166145920753479,0.2136838734149933,-1.0448410511016846,0.9999794960021973,0.39716896414756775,0.21388179063796997,-1.0450234413146973,0.9999817609786987,0.3780256509780884,0.21408876776695251,-1.0451003313064575,0.999976396560669,0.46091246604919434,0.2187044620513916,-0.6718931794166565,0.9999810457229614,0.3287699818611145,0.22400778532028198,-0.8280760049819946,0.9999803304672241,0.4505383372306824,0.26137176156044006,-0.9260091185569763,0.9999912977218628,0.4123462438583374,0.26410746574401855,-0.9702252745628357,0.9999927282333374,0.5272525548934937,0.3511423170566559,-0.3968682289123535,0.9999216794967651,0.17812466621398926,0.3723447024822235,-0.6537982225418091,0.9998077750205994,0.5661866664886475,0.5121362209320068,-0.10652980953454971,0.976880669593811,0.17839907109737396,0.5598617196083069,-0.9692003130912781,0.9885435104370117,0.6315022706985474,0.6442259550094604,-0.2496088743209839,0.9803239107131958,0.27288109064102173,0.4682888090610504,-1.55451500415802,0.9902556538581848,0.6472973823547363,0.6887001991271973,-0.28957030177116394,0.9618389010429382,0.2992441952228546,0.4317539632320404,-1.6737613677978516,0.9836480021476746,0.6362022161483765,0.6883600950241089,-0.3728044033050537,0.9641385674476624,0.28784051537513733,0.412289023399353,-1.685665488243103,0.9832814335823059,0.6278035640716553,0.6782755255699158,-0.28050312399864197,0.965038537979126,0.2860250473022461,0.4204910099506378,-1.5672084093093872,0.9749714732170105,0.49186572432518005,0.6298530101776123,0.08613450825214386,0.998094379901886,0.3112042248249054,0.6468732953071594,-0.08594406396150589,0.9983493089675903,0.4842844605445862,0.8431381583213806,0.32621729373931885,0.9619215130805969,0.342377632856369,0.8640586733818054,0.11100342124700546,0.9778998494148254,0.4824152886867523,0.962443470954895,1.067509412765503,0.8995158076286316,0.36175668239593506,0.9888262748718262,0.7171067595481873,0.9191258549690247,0.4597799777984619,0.9732211828231812,1.1221301555633545,0.8445066809654236,0.36550161242485046,0.9898826479911804,0.7647039890289307,0.7455431818962097,0.5545420050621033,1.023359775543213,0.848767101764679,0.8546923398971558,0.40879637002944946,1.076719880104065,0.4020942151546478,0.8249409198760986
19881.357945818596,0.44354048371315,0.23574092984199524,-1.107886791229248,0.9999871253967285,0.45148804783821106,0.20810040831565857,-1.060699462890625,0.9999735355377197,0.46049052476882935,0.2072313129901886,-1.0607010126113892,0.9999732971191406,0.4686744213104248,0.20647385716438293,-1.0606704950332642,0.9999619722366333,0.4156545102596283,0.21021097898483276,-1.0912913084030151,0.9999768733978271,0.39588358998298645,0.21066799759864807,-1.0915234088897705,0.9999794960021973,0.3766164481639862,0.2111915647983551,-1.0916240215301514,0.999974250793457,0.46169713139533997,0.21601581573486328,-0.7156069874763489,0.9999759197235107,0.3282117545604706,0.22301965951919556,-0.8649352192878723,0.9999769926071167,0.45225393772125244,0.2584678828716278,-0.9727027416229248,0.9999895095825195,0.41356348991394043,0.2620895206928253,-1.0148526430130005,0.9999918937683105,0.5281918048858643,0.3512994647026062,-0.433047890663147,0.9998975992202759,0.1776227504014969,0.37166640162467957,-0.6738343834877014,0.9997802376747131,0.5695600509643555,0.5156150460243225,-0.1295272260904312,0.9780585765838623,0.17162208259105682,0.5599505305290222,-0.993340253829956,0.988579511642456,0.6284712553024292,0.6487051248550415,-0.26477596163749695,0.9828788042068481,0.26740241050720215,0.46857115626335144,-1.6003413200378418,0.9904083013534546,0.6469839811325073,0.6911620497703552,-0.3024899959564209,0.966520369052887,0.2928534746170044,0.43072259426116943,-1.721834659576416,0.983770489692688,0.6350873708724976,0.6909926533699036,-0.38901546597480774,0.9683342576026917,0.2801406979560852,0.4095560312271118,-1.730261206626892,0.9833609461784363,0.6249843835830688,0.6803606152534485,-0.2959257960319519,0.9692234992980957,0.27752596139907837,0.41770273447036743,-1.6117621660232544,0.9752875566482544,0.49475419521331787,0.6268037557601929,0.08124226331710815,0.9979462027549744,0.313899964094162,0.6452991366386414,-0.08111242204904556,0.9983294606208801,0.4886998236179352,0.8353806138038635,0.31696951389312744,0.9588285684585571,0.3425283432006836,0.8642085790634155,0.10568475723266602,0.9751880764961243,0.4839215576648712,0.9568723440170288,1.0896859169006348,0.8914654850959778,0.3555208146572113,0.984847366809845,0.7269129753112793,0.9170323014259338,0.4628016948699951,0.9681093692779541,1.147896409034729,0.8400338292121887,0.36312830448150635,1.0078327655792236,0.7759014368057251,0.7316217422485352,0.543757975101471,1.0195958614349365,0.8773758411407471,0.8507019877433777,0.39871513843536377,1.0767799615859985,0.40563520789146423,0.8194823265075684
19898.024612485264,0.4451621174812317,0.23890459537506104,-1.0976638793945312,0.9999866485595703,0.4540430009365082,0.21257340908050537,-1.0524498224258423,0.9999711513519287,0.4624597728252411,0.21172156929969788,-1.052433967590332,0.9999706745147705,0.46974635124206543,0.2109823226928711,-1.0523934364318848,0.9999587535858154,0.42025548219680786,0.21351885795593262,-1.0888080596923828,0.9999756813049316,0.4017934203147888,0.2132631540298462,-1.0890321731567383,0.9999780654907227,0.3827086091041565,0.2132880687713623,-1.0891093015670776,0.9999721050262451,0.4595170319080353,0.21923679113388062,-0.7085128426551819,0.9999734163284302,0.33284345269203186,0.2224220633506775,-0.884546160697937,0.9999752044677734,0.45122790336608887,0.26155605912208557,-0.9611986875534058,0.9999887943267822,0.41448456048965454,0.26418331265449524,-1.0111082792282104,0.9999915361404419,0.5264977216720581,0.3504723310470581,-0.42581412196159363,0.9999150037765503,0.17907463014125824,0.3695036768913269,-0.6892455816268921,0.9998027682304382,0.5688583850860596,0.5160210728645325,-0.11693019419908524,0.9817355275154114,0.1722174733877182,0.5583335161209106,-0.9944252371788025,0.9893996119499207,0.6310005784034729,0.6520739793777466,-0.2580684721469879,0.9856411814689636,0.27205777168273926,0.4639259874820709,-1.5814439058303833,0.991441547870636,0.6480566263198853,0.693607747554779,-0.29826781153678894,0.9708622694015503,0.2950994074344635,0.4306655824184418,-1.7014130353927612,0.9856047034263611,0.6354132890701294,0.6929793357849121,-0.38746562600135803,0.9725033640861511,0.28425589203834534,0.4089495539665222,-1.7142876386642456,0.985284149646759,0.6252384185791016,0.6823034286499023,-0.29074639081954956,0.9730927348136902,0.2809929847717285,0.4167126417160034,-1.5940121412277222,0.9777101278305054,0.4942384660243988,0.6267688274383545,0.08214050531387329,0.9983104467391968,0.3134664297103882,0.6451007127761841,-0.08199571073055267,0.9985987544059753,0.4880613088607788,0.8346792459487915,0.337004154920578,0.9675465226173401,0.3420111835002899,0.8637487292289734,0.12318578362464905,0.9782828092575073,0.4831651747226715,0.9556493759155273,1.1111539602279663,0.9132610559463501,0.3539809584617615,0.9819527864456177,0.7567916512489319,0.9315277934074402,0.46110859513282776,0.9665582776069641,1.169643521308899,0.8678366541862488,0.35369983315467834,0.9833670258522034,0.8070774674415588,0.7694125175476074,0.5400054454803467,1.0166500806808472,0.9001172780990601,0.8788868188858032,0.3907018303871155,1.0694713592529297,0.44122594594955444,0.8498727679252625
19914.69127915193,0.44595518708229065,0.237131267786026,-1.053403615951538,0.9999825954437256,0.4533657133579254,0.2106437087059021,-1.0070796012878418,0.9999642372131348,0.46183833479881287,0.20967206358909607,-1.0070819854736328,0.9999637603759766,0.4693268835544586,0.2088322937488556,-1.007066011428833,0.9999498128890991,0.41894713044166565,0.21220886707305908,-1.0442843437194824,0.9999691247940063,0.3998921513557434,0.2122804820537567,-1.0444974899291992,0.9999719858169556,0.3806019723415375,0.21267825365066528,-1.0445774793624878,0.9999644756317139,0.45997628569602966,0.21752765774726868,-0.6634536385536194,0.9999672174453735,0.33029308915138245,0.22315514087677002,-0.8433722257614136,0.9999697208404541,0.45335349440574646,0.25934767723083496,-0.9172877073287964,0.9999854564666748,0.41570615768432617,0.2627227008342743,-0.9683095812797546,0.9999885559082031,0.5251293182373047,0.3500591218471527,-0.3868860602378845,0.9998968839645386,0.1758870929479599,0.36932408809661865,-0.6594873666763306,0.9997571110725403,0.5675358176231384,0.5149589776992798,-0.0852046012878418,0.9767826199531555,0.17720727622509003,0.555954098701477,-0.9696525931358337,0.9866913557052612,0.6286557912826538,0.6500325798988342,-0.21784961223602295,0.9810216426849365,0.2712613344192505,0.4631887972354889,-1.535923957824707,0.988454282283783,0.6489626169204712,0.6921893954277039,-0.25490137934684753,0.9629637002944946,0.2960624396800995,0.4316350519657135,-1.6512320041656494,0.9812172651290894,0.6362066268920898,0.6920221447944641,-0.3415735960006714,0.9649653434753418,0.28450560569763184,0.40880444645881653,-1.6619218587875366,0.9807944297790527,0.6252232193946838,0.6824512481689453,-0.24969786405563354,0.9662798643112183,0.2808276414871216,0.41642528772354126,-1.5473812818527222,0.9717262983322144,0.4931029677391052,0.6258282661437988,0.08565014600753784,0.9981479644775391,0.3133375942707062,0.6440547704696655,-0.08548573404550552,0.9984179735183716,0.4869987964630127,0.8382406234741211,0.3243749737739563,0.9644887447357178,0.3425283432006836,0.8669540286064148,0.10752171277999878,0.9749998450279236,0.48525041341781616,0.9568279981613159,1.0820682048797607,0.905908465385437,0.3543136417865753,0.9854365587234497,0.7247510552406311,0.9209820032119751,0.4639139771461487,0.9683199524879456,1.13896644115448,0.8568755984306335,0.35802608728408813,0.986653745174408,0.7736617922782898,0.7434855699539185,0.5382735133171082,1.0238431692123413,0.8699518442153931,0.8614265322685242,0.39120158553123474,1.0762073993682861,0.40783947706222534,0.8258579969406128
19931.3579458186,0.4481464624404907,0.2372741997241974,-1.0934045314788818,0.9999871253967285,0.4548698365688324,0.2104296088218689,-1.0465327501296997,0.999972939491272,0.4630737900733948,0.20952054858207703,-1.0465173721313477,0.9999727010726929,0.470411092042923,0.20870047807693481,-1.0464751720428467,0.9999611377716064,0.42068201303482056,0.21191036701202393,-1.0827698707580566,0.9999772310256958,0.40193670988082886,0.211868017911911,-1.082984447479248,0.9999798536300659,0.3824726343154907,0.2121051549911499,-1.083077073097229,0.9999741315841675,0.46023449301719666,0.21755537390708923,-0.6979518532752991,0.9999760389328003,0.33256012201309204,0.22246024012565613,-0.8726344108581543,0.9999779462814331,0.4550969898700714,0.2596883773803711,-0.9558372497558594,0.9999901056289673,0.4186015725135803,0.26312491297721863,-1.0053379535675049,0.9999926090240479,0.52601557970047,0.34973764419555664,-0.4080287218093872,0.9999197721481323,0.17978043854236603,0.3712804317474365,-0.6852126121520996,0.9998055100440979,0.5675698518753052,0.5135531425476074,-0.08401352912187576,0.981495201587677,0.16582654416561127,0.5575637221336365,-1.0041359663009644,0.9903623461723328,0.6283726096153259,0.6495615839958191,-0.21125555038452148,0.985983669757843,0.26800337433815,0.466017484664917,-1.5957655906677246,0.9909850358963013,0.6464332342147827,0.6921725273132324,-0.2478792816400528,0.9716665148735046,0.2926845848560333,0.432869553565979,-1.7168068885803223,0.9844122529029846,0.6340650916099548,0.6921127438545227,-0.33587193489074707,0.9734082221984863,0.2796933948993683,0.40943077206611633,-1.727007269859314,0.9840564727783203,0.623812198638916,0.6812519431114197,-0.2429841160774231,0.9738309383392334,0.27668383717536926,0.41584742069244385,-1.6072181463241577,0.975964367389679,0.49395883083343506,0.6278288960456848,0.09223703294992447,0.9982300400733948,0.313774973154068,0.6454859375953674,-0.09211473166942596,0.9984993934631348,0.48999500274658203,0.8349933624267578,0.3311939835548401,0.9656978845596313,0.3420044779777527,0.8665003776550293,0.1015508696436882,0.9779719114303589,0.48311159014701843,0.9580103158950806,1.1224374771118164,0.9064244031906128,0.35588979721069336,0.9856724739074707,0.7388185262680054,0.9268590211868286,0.4606856405735016,0.9669978618621826,1.182837724685669,0.8585502505302429,0.35192111134529114,0.9861760139465332,0.7892675995826721,0.7544936537742615,0.5397403240203857,1.0207513570785522,0.9093470573425293,0.8715962171554565,0.40439093112945557,1.0764470100402832,0.4128061532974243,0.8385353088378906
19948.024612485267,0.4456354081630707,0.23894517123699188,-1.066420316696167,0.9999796152114868,0.45411622524261475,0.21250516176223755,-1.020793080329895,0.9999582767486572,0.46249857544898987,0.21172693371772766,-1.0208072662353516,0.9999579191207886,0.4696808457374573,0.2110324501991272,-1.0208003520965576,0.9999428987503052,0.42043179273605347,0.213422030210495,-1.0577596426010132,0.9999642372131348,0.4020138382911682,0.21322306990623474,-1.0579930543899536,0.9999674558639526,0.3825972080230713,0.2133026123046875,-1.0580966472625732,0.9999592304229736,0.4591856598854065,0.2194201946258545,-0.6748703718185425,0.999962329864502,0.33166447281837463,0.22283053398132324,-0.8526069521903992,0.9999634027481079,0.4520965814590454,0.261386513710022,-0.9289619326591492,0.9999839067459106,0.41572996973991394,0.26402759552001953,-0.9794310331344604,0.9999873638153076,0.5259871482849121,0.35058510303497314,-0.3932564854621887,0.999895453453064,0.17684613168239594,0.3684045970439911,-0.6625500321388245,0.9997385144233704,0.5695888996124268,0.5159573554992676,-0.10052845627069473,0.9788931012153625,0.17795738577842712,0.5577295422554016,-0.9643752574920654,0.9868192672729492,0.6301002502441406,0.6500449776649475,-0.24971139430999756,0.9815372228622437,0.2707326412200928,0.46121200919151306,-1.5320525169372559,0.9873731732368469,0.6463230848312378,0.691752016544342,-0.29135334491729736,0.9627498388290405,0.29601821303367615,0.42819929122924805,-1.647670030593872,0.9793223738670349,0.6344191431999207,0.6914001703262329,-0.37678414583206177,0.9650900363922119,0.28331997990608215,0.4056861400604248,-1.6588391065597534,0.9789735674858093,0.6248084306716919,0.6814143061637878,-0.2812740206718445,0.9661030173301697,0.2797403633594513,0.41340798139572144,-1.5432771444320679,0.9690743684768677,0.4936528503894806,0.6262874603271484,0.08963697403669357,0.9972516894340515,0.3133733868598938,0.6442093253135681,-0.08944553136825562,0.9977278113365173,0.48816990852355957,0.8393920063972473,0.30630210041999817,0.9538035988807678,0.34325265884399414,0.8678097128868103,0.08065802603960037,0.9693104028701782,0.48448634147644043,0.9610610604286194,1.0547113418579102,0.8760221600532532,0.3558862507343292,0.9897855520248413,0.6812373399734497,0.8967549204826355,0.4634191691875458,0.9710635542869568,1.110972285270691,0.8194547891616821,0.36131319403648376,1.0139158964157104,0.7280744314193726,0.689186692237854,0.5410528779029846,1.0244805812835693,0.8356438279151917,0.827221155166626,0.402170330286026,1.08152174949646,0.3527888357639313,0.7810273170471191
19964.691279151935,0.44474220275878906,0.2402946799993515,-1.041329264640808,0.9999759197235107,0.4520770013332367,0.21392565965652466,-0.9945034384727478,0.9999523162841797,0.46036648750305176,0.21285533905029297,-0.9945461750030518,0.9999520778656006,0.46766847372055054,0.21191450953483582,-0.9945635795593262,0.9999364614486694,0.4186950922012329,0.2152654528617859,-1.0306729078292847,0.9999572038650513,0.40018391609191895,0.21509698033332825,-1.030893087387085,0.99996018409729,0.381025493144989,0.2151416838169098,-1.03099524974823,0.9999501705169678,0.4577646255493164,0.2197127640247345,-0.6466370224952698,0.9999576807022095,0.3308742642402649,0.22467899322509766,-0.8207091689109802,0.9999538660049438,0.45121389627456665,0.26220232248306274,-0.9033817648887634,0.999981164932251,0.41503459215164185,0.26569414138793945,-0.9527820944786072,0.9999840259552002,0.5270820260047913,0.349648654460907,-0.3726706802845001,0.9999024868011475,0.1771446317434311,0.37041348218917847,-0.6280288696289062,0.9996744394302368,0.5691816210746765,0.515556275844574,-0.09098992496728897,0.9816102981567383,0.1811700016260147,0.5594751834869385,-0.9257095456123352,0.9841529726982117,0.633289098739624,0.6505329608917236,-0.2540985941886902,0.9841210246086121,0.27374786138534546,0.4639071226119995,-1.5006396770477295,0.9862048029899597,0.6475356817245483,0.6919468641281128,-0.30023619532585144,0.967589795589447,0.2967095971107483,0.4296073913574219,-1.6171622276306152,0.9779562950134277,0.635149359703064,0.6915104985237122,-0.38601043820381165,0.9697228670120239,0.285236120223999,0.40962499380111694,-1.629536509513855,0.9776694178581238,0.626059889793396,0.6817684769630432,-0.2860088348388672,0.9703811407089233,0.2843083143234253,0.4181736409664154,-1.5125631093978882,0.9671886563301086,0.49634435772895813,0.6263930201530457,0.08292561769485474,0.9974143505096436,0.3142807185649872,0.644647479057312,-0.0827033594250679,0.9976430535316467,0.48789143562316895,0.8384231925010681,0.27714550495147705,0.9480218291282654,0.3435569405555725,0.866349995136261,0.07569916546344757,0.9614790081977844,0.4824982285499573,0.9605708122253418,1.0380637645721436,0.8570524454116821,0.3560830354690552,0.9871450066566467,0.6844994425773621,0.8779155611991882,0.4609973430633545,0.9704214334487915,1.0955898761749268,0.8034834861755371,0.36560019850730896,1.0110588073730469,0.7326011061668396,0.661617636680603,0.538650631904602,1.025428295135498,0.821299135684967,0.8023785948753357,0.39633041620254517,1.078370213508606,0.36062106490135193,0.7541130185127258
19981.357945818603,0.4475538432598114,0.23798729479312897,-1.045405387878418,0.9999865293502808,0.4552600383758545,0.21127712726593018,-0.9977028369903564,0.999972939491272,0.46334463357925415,0.2104824185371399,-0.9977054595947266,0.9999725818634033,0.47039487957954407,0.20971709489822388,-0.9976891875267029,0.999962329864502,0.4219090938568115,0.2122136354446411,-1.0361857414245605,0.9999756813049316,0.4037025570869446,0.2120341956615448,-1.0363752841949463,0.9999774694442749,0.38401931524276733,0.21216994524002075,-1.0364259481430054,0.9999707937240601,0.4585462808609009,0.21777522563934326,-0.6521124243736267,0.9999755620956421,0.3329432010650635,0.22223424911499023,-0.838436484336853,0.999974250793457,0.45325571298599243,0.26027512550354004,-0.9091484546661377,0.9999891519546509,0.4172603189945221,0.26295992732048035,-0.9619854092597961,0.9999909400939941,0.5251055955886841,0.3504524230957031,-0.3840996026992798,0.9999299049377441,0.17541652917861938,0.3700805604457855,-0.6506237387657166,0.9997625946998596,0.5687813758850098,0.5136042833328247,-0.08781684190034866,0.9818782210350037,0.1736171692609787,0.5568773746490479,-0.9573140144348145,0.9850073456764221,0.6319146156311035,0.6502089500427246,-0.23951563239097595,0.9859803915023804,0.26048749685287476,0.46733468770980835,-1.5418301820755005,0.9870957136154175,0.6483955383300781,0.6916069984436035,-0.2818775177001953,0.9715761542320251,0.2864827811717987,0.4355655908584595,-1.6613889932632446,0.9796565771102905,0.6368286609649658,0.6915574073791504,-0.37062764167785645,0.9732398390769958,0.2739308476448059,0.4135056734085083,-1.6762313842773438,0.9792933464050293,0.626908004283905,0.6823817491531372,-0.27258554100990295,0.9736552834510803,0.27052736282348633,0.4209323823451996,-1.555808663368225,0.9696048498153687,0.4954870045185089,0.6270412802696228,0.08349621295928955,0.9984822869300842,0.3153218924999237,0.6455998420715332,-0.08330128341913223,0.9985931515693665,0.4880124032497406,0.8371281027793884,0.3135438561439514,0.9657456874847412,0.34177812933921814,0.8654618263244629,0.10638963431119919,0.975264310836792,0.4850655496120453,0.954521894454956,1.0891180038452148,0.9074140191078186,0.35376885533332825,0.9836240410804749,0.742121160030365,0.9241530895233154,0.46275418996810913,0.9665095806121826,1.1477341651916504,0.8612447381019592,0.3562428057193756,0.9845704436302185,0.7925593256950378,0.7507422566413879,0.5451908111572266,1.0189452171325684,0.8803502917289734,0.8687089681625366,0.3887827694416046,1.068777084350586,0.4302181899547577,0.8362500071525574
19998.02461248527,0.4471423029899597,0.23688557744026184,-1.0625746250152588,0.9999842643737793,0.45431143045425415,0.20958173274993896,-1.0150657892227173,0.9999686479568481,0.4628662168979645,0.20858854055404663,-1.0150738954544067,0.9999674558639526,0.4704824686050415,0.20763126015663147,-1.0150413513183594,0.9999550580978394,0.41949835419654846,0.21123406291007996,-1.0512813329696655,0.9999728202819824,0.4004915952682495,0.21134653687477112,-1.0515028238296509,0.9999754428863525,0.3810114860534668,0.21176794171333313,-1.0515954494476318,0.9999698400497437,0.46071454882621765,0.2160000503063202,-0.6681943535804749,0.9999691247940063,0.33125200867652893,0.22222858667373657,-0.8435645699501038,0.9999738931655884,0.45505815744400024,0.25881266593933105,-0.9260346293449402,0.9999880790710449,0.41783028841018677,0.2623938024044037,-0.9756089448928833,0.9999911785125732,0.5249744057655334,0.34934017062187195,-0.38832563161849976,0.9999120235443115,0.17499497532844543,0.37114623188972473,-0.6613085269927979,0.9997972846031189,0.5669807195663452,0.5146766304969788,-0.09607593715190887,0.9778932929039001,0.17174457013607025,0.5610946416854858,-0.9685136675834656,0.9891268610954285,0.6276545524597168,0.6498355865478516,-0.25641530752182007,0.9837955236434937,0.26040786504745483,0.46591681241989136,-1.549526333808899,0.9908849596977234,0.6467924118041992,0.6915668249130249,-0.2997024655342102,0.9683210849761963,0.28740233182907104,0.4341123700141907,-1.668807864189148,0.9849890470504761,0.633496880531311,0.6916471719741821,-0.38531294465065,0.9700877666473389,0.2731613516807556,0.41074055433273315,-1.6810003519058228,0.9848343133926392,0.6219820380210876,0.6820052862167358,-0.28828561305999756,0.9706482291221619,0.26914486289024353,0.41849642992019653,-1.5615192651748657,0.9775130152702332,0.4925684630870819,0.6273185610771179,0.09544520825147629,0.9981319308280945,0.3153749406337738,0.646138608455658,-0.09533530473709106,0.998362123966217,0.4861791431903839,0.8400595188140869,0.3315123915672302,0.9520735740661621,0.3436008095741272,0.8671667575836182,0.09141497313976288,0.9695395231246948,0.4838513433933258,0.9563385844230652,1.087555170059204,0.8792009353637695,0.35452455282211304,0.985450804233551,0.7046793103218079,0.8999153971672058,0.462103933095932,0.9681515097618103,1.1449681520462036,0.8275294303894043,0.353005051612854,0.9872843623161316,0.7537468671798706,0.7045316696166992,0.5439824461936951,1.02253258228302,0.8797585368156433,0.8339547514915466,0.40190666913986206,1.0783958435058594,0.38877174258232117,0.790616512298584
20014.69127915194,0.4398408830165863,0.23850227892398834,-1.0962228775024414,0.9999899864196777,0.4481273591518402,0.2126215696334839,-1.0504546165466309,0.9999780654907227,0.45749640464782715,0.21139174699783325,-1.0504170656204224,0.9999772310256958,0.465580552816391,0.21037912368774414,-1.0503218173980713,0.9999668598175049,0.4131225347518921,0.2140936255455017,-1.0800904035568237,0.9999815225601196,0.39355912804603577,0.21384784579277039,-1.0802946090698242,0.999983549118042,0.3756285011768341,0.2138197422027588,-1.080338716506958,0.9999793767929077,0.45817551016807556,0.2187274992465973,-0.7105854749679565,0.9999779462814331,0.3284672498703003,0.223530113697052,-0.8566175699234009,0.9999812841415405,0.4478938579559326,0.2611920237541199,-0.9630300402641296,0.9999910593032837,0.4113862216472626,0.2646460235118866,-1.0041121244430542,0.9999934434890747,0.5247570872306824,0.35054194927215576,-0.431931734085083,0.9999092817306519,0.1790284365415573,0.37132149934768677,-0.6653108596801758,0.9998304843902588,0.5674954056739807,0.5127037763595581,-0.12691126763820648,0.9804872870445251,0.16785341501235962,0.557735800743103,-0.9760470986366272,0.9909794330596924,0.6295126676559448,0.6485530138015747,-0.25430822372436523,0.9850561618804932,0.2616730332374573,0.4623469114303589,-1.5662614107131958,0.9928086996078491,0.6474030017852783,0.6897018551826477,-0.2899392247200012,0.9697189331054688,0.2878541350364685,0.4312155246734619,-1.684082269668579,0.9872893691062927,0.6344726085662842,0.6897805333137512,-0.3736993670463562,0.9709292054176331,0.2748185992240906,0.40832069516181946,-1.691798210144043,0.9868148565292358,0.6243031024932861,0.6795213222503662,-0.28412508964538574,0.9716677665710449,0.2710300087928772,0.4150196313858032,-1.5770050287246704,0.9802588224411011,0.49186766147613525,0.6262331604957581,0.08047477900981903,0.9986345171928406,0.31238240003585815,0.6434498429298401,-0.08042288571596146,0.9988566637039185,0.4858371913433075,0.8277865052223206,0.3577735126018524,0.9664861559867859,0.3403182029724121,0.8557929396629333,0.14071160554885864,0.9814157485961914,0.4775828421115875,0.9496593475341797,1.104006290435791,0.9237537980079651,0.35014790296554565,0.9775200486183167,0.7575218081474304,0.9398198127746582,0.4523884057998657,0.963945746421814,1.1595267057418823,0.8794069290161133,0.3486185669898987,0.9821173548698425,0.8065674901008606,0.7907195091247559,0.5370008945465088,1.0175999402999878,0.8957399129867554,0.8927254676818848,0.3925555944442749,1.0670385360717773,0.44964876770973206,0.8666268587112427
20031.357945818607,0.4457162916660309,0.23792648315429688,-1.020110845565796,0.9999896287918091,0.45387986302375793,0.2115945816040039,-0.9715542197227478,0.9999790191650391,0.462642103433609,0.2106674611568451,-0.9715536236763,0.9999783039093018,0.47034952044487,0.2098982334136963,-0.9715059399604797,0.9999698400497437,0.4192037582397461,0.21234485507011414,-1.0069531202316284,0.999981164932251,0.40040916204452515,0.21197620034217834,-1.0071152448654175,0.9999823570251465,0.381405770778656,0.21203196048736572,-1.0071488618850708,0.9999778270721436,0.46148881316185,0.21790918707847595,-0.6278740167617798,0.9999788999557495,0.33176887035369873,0.22200268507003784,-0.8013249039649963,0.9999802112579346,0.45283523201942444,0.2600427567958832,-0.8857115507125854,0.9999911785125732,0.41613614559173584,0.2628909945487976,-0.9346844553947449,0.9999932050704956,0.5242811441421509,0.35107290744781494,-0.3687090277671814,0.9999334812164307,0.17707829177379608,0.36994126439094543,-0.6173943877220154,0.9998096823692322,0.5670053362846375,0.5150575637817383,-0.09138074517250061,0.9813016653060913,0.1701389104127884,0.5566900372505188,-0.9310282468795776,0.987307608127594,0.6269629001617432,0.6500664353370667,-0.261699914932251,0.9863826036453247,0.2599492371082306,0.46688956022262573,-1.5236330032348633,0.9894383549690247,0.6459642648696899,0.6909415125846863,-0.3084564208984375,0.9727478623390198,0.28574851155281067,0.4359944462776184,-1.6444525718688965,0.9828837513923645,0.6323139667510986,0.6914018392562866,-0.3948880732059479,0.9741136431694031,0.27319982647895813,0.41386309266090393,-1.6559113264083862,0.9825432300567627,0.6203103065490723,0.682244062423706,-0.29421791434288025,0.9743615388870239,0.2697688937187195,0.4204593896865845,-1.5361775159835815,0.9744695425033569,0.4938611388206482,0.6281126737594604,0.08631643652915955,0.9986225366592407,0.3168581426143646,0.6462395191192627,-0.08617519587278366,0.9987366795539856,0.48746752738952637,0.8381689786911011,0.3261224031448364,0.9627137184143066,0.3419838547706604,0.8648967742919922,0.1057077944278717,0.9755926728248596,0.48318445682525635,0.9525039196014404,1.0851659774780273,0.9047885537147522,0.3552117347717285,0.9828658699989319,0.7267991304397583,0.9215107560157776,0.4603084623813629,0.9673160314559937,1.1423654556274414,0.8588930368423462,0.35664457082748413,0.9844186305999756,0.776430070400238,0.7466511726379395,0.5462383031845093,1.0165235996246338,0.8798129558563232,0.8650983572006226,0.3885708153247833,1.0702192783355713,0.41907650232315063,0.8295191526412964
20048.024612485275,0.4438723027706146,0.23859506845474243,-1.0009926557540894,0.9999879598617554,0.4527113139629364,0.2128191888332367,-0.9530658721923828,0.9999752044677734,0.4617789387702942,0.21169039607048035,-0.9530817270278931,0.9999747276306152,0.469525545835495,0.2107963263988495,-0.9530428051948547,0.9999644756317139,0.4174315929412842,0.21375903487205505,-0.9865464568138123,0.9999772310256958,0.3981710374355316,0.21326982975006104,-0.9867053031921387,0.9999788999557495,0.3796163499355316,0.21315771341323853,-0.9867408871650696,0.9999734163284302,0.46175500750541687,0.21852323412895203,-0.6149108409881592,0.9999756813049316,0.33136022090911865,0.22253665328025818,-0.7795132994651794,0.9999761581420898,0.4518684148788452,0.2607825994491577,-0.8687079548835754,0.9999901056289673,0.4152071177959442,0.26348578929901123,-0.9151424765586853,0.9999922513961792,0.5244719386100769,0.3513104319572449,-0.3626692593097687,0.9999271631240845,0.1794520914554596,0.370095819234848,-0.5919154286384583,0.9997922778129578,0.5687180161476135,0.5156757235527039,-0.0845600888133049,0.9807267785072327,0.17258748412132263,0.5579673051834106,-0.8961485624313354,0.9862884283065796,0.6274647116661072,0.6513800621032715,-0.24886108934879303,0.9855157136917114,0.2604917585849762,0.4657769799232483,-1.4901784658432007,0.9891604781150818,0.6453467607498169,0.6914864182472229,-0.294795960187912,0.9714500308036804,0.28742367029190063,0.4353490471839905,-1.608747959136963,0.9827831983566284,0.6327241659164429,0.6917376518249512,-0.37953585386276245,0.9728743433952332,0.2740976810455322,0.41232362389564514,-1.6202720403671265,0.9824491739273071,0.6211773157119751,0.6823903918266296,-0.28054192662239075,0.973438024520874,0.2701265215873718,0.4187617897987366,-1.5027610063552856,0.9744186997413635,0.49259400367736816,0.6296550035476685,0.07968657463788986,0.9985847473144531,0.3163797855377197,0.6472747921943665,-0.07951567322015762,0.9986720085144043,0.487582802772522,0.8404425978660583,0.30019789934158325,0.9638176560401917,0.34058746695518494,0.8666706085205078,0.10207898169755936,0.9757733941078186,0.4847662150859833,0.9549888372421265,1.0653698444366455,0.9037349820137024,0.355508416891098,0.985298216342926,0.7240718603134155,0.9195279479026794,0.4647893011569977,0.9683365225791931,1.1232799291610718,0.8547172546386719,0.35417497158050537,0.9855782985687256,0.7737981677055359,0.7409541010856628,0.5438482761383057,1.0198643207550049,0.8631782531738281,0.8618536591529846,0.39481690526008606,1.0706396102905273,0.4196825921535492,0.8262521028518677
20064.691279151943,0.44692090153694153,0.23732158541679382,-1.0461859703063965,0.9999808073043823,0.4540348947048187,0.2102043628692627,-0.9991723299026489,0.99996018409729,0.46249428391456604,0.20915070176124573,-0.9991899728775024,0.9999592304229736,0.4700343608856201,0.20816928148269653,-0.999184787273407,0.9999428987503052,0.4196552038192749,0.21180057525634766,-1.0366621017456055,0.999964714050293,0.40067344903945923,0.21180719137191772,-1.0368547439575195,0.9999678134918213,0.3811773657798767,0.21213656663894653,-1.0369337797164917,0.9999592304229736,0.4601570963859558,0.21668991446495056,-0.6514920592308044,0.999964714050293,0.331062912940979,0.2225646674633026,-0.8327661752700806,0.9999662637710571,0.45442816615104675,0.2595439851284027,-0.9084296226501465,0.9999847412109375,0.41737955808639526,0.26296818256378174,-0.9598269462585449,0.9999879598617554,0.524355411529541,0.34866154193878174,-0.37269505858421326,0.9999123811721802,0.17829576134681702,0.369531512260437,-0.6405153274536133,0.9997550845146179,0.5660730004310608,0.5137221813201904,-0.050880514085292816,0.9793291091918945,0.16845472157001495,0.5565367937088013,-0.9551904797554016,0.9872627854347229,0.625611424446106,0.6507813930511475,-0.17800655961036682,0.983710527420044,0.26316553354263306,0.4597087502479553,-1.544580101966858,0.9903455376625061,0.6455049514770508,0.6929319500923157,-0.21497023105621338,0.968117892742157,0.29102998971939087,0.4305851459503174,-1.663422703742981,0.9840819835662842,0.6331098079681396,0.692916989326477,-0.30336594581604004,0.9697978496551514,0.27979475259780884,0.40697601437568665,-1.6741105318069458,0.9836869835853577,0.6218254566192627,0.6827474236488342,-0.2099788337945938,0.9709380865097046,0.27549901604652405,0.41322290897369385,-1.5562334060668945,0.9755129814147949,0.49308720231056213,0.6278003454208374,0.08239259570837021,0.9986187219619751,0.31291499733924866,0.6470695734024048,-0.08220145106315613,0.9986894726753235,0.48713910579681396,0.83763587474823,0.29607489705085754,0.9664382934570312,0.34279748797416687,0.8673927187919617,0.10523197054862976,0.9731326699256897,0.4847615361213684,0.956159234046936,1.1121487617492676,0.9022476673126221,0.35528358817100525,0.9794408679008484,0.7696043252944946,0.9156312346458435,0.4637812674045563,0.9674317240715027,1.1749368906021118,0.8566144704818726,0.3574032187461853,0.9815852642059326,0.8236628770828247,0.7398073077201843,0.5374552011489868,1.02285635471344,0.9053187370300293,0.8557629585266113,0.38479918241500854,1.0703709125518799,0.45775437355041504,0.8201478719711304
20081.35794581861,0.44815194606781006,0.2373238205909729,-1.0595139265060425,0.9999828338623047,0.45508575439453125,0.21022221446037292,-1.0132884979248047,0.9999645948410034,0.46324482560157776,0.20929551124572754,-1.0132968425750732,0.9999638795852661,0.47055840492248535,0.20840618014335632,-1.0132931470870972,0.9999490976333618,0.42135438323020935,0.21157342195510864,-1.0517557859420776,0.9999688863754272,0.4027769863605499,0.21155193448066711,-1.051952600479126,0.999971866607666,0.3829987943172455,0.21185335516929626,-1.0520281791687012,0.9999642372131348,0.4592214822769165,0.21656405925750732,-0.6664908528327942,0.9999685287475586,0.3320978581905365,0.22213298082351685,-0.8522621989250183,0.9999701976776123,0.45475783944129944,0.25956660509109497,-0.9215990304946899,0.9999858140945435,0.41822731494903564,0.26248404383659363,-0.9743163585662842,0.9999886751174927,0.5240664482116699,0.3484160006046295,-0.38588747382164,0.999913215637207,0.17580029368400574,0.3696242570877075,-0.659443736076355,0.9997575879096985,0.5658985376358032,0.5127976536750793,-0.06430905312299728,0.9792897701263428,0.17185576260089874,0.5586590766906738,-0.9770214557647705,0.987671971321106,0.626484751701355,0.648831307888031,-0.19146747887134552,0.9837303161621094,0.26412567496299744,0.4621008038520813,-1.5663230419158936,0.9904086589813232,0.6458719968795776,0.6913152933120728,-0.2270805984735489,0.9679524302482605,0.291034460067749,0.43164145946502686,-1.6853278875350952,0.9841195940971375,0.6335983276367188,0.6913110017776489,-0.31529438495635986,0.9697594046592712,0.27942270040512085,0.40893054008483887,-1.6953725814819336,0.9837982058525085,0.6227269768714905,0.6817582249641418,-0.22339332103729248,0.9708690047264099,0.2753341794013977,0.4158918261528015,-1.5776982307434082,0.9756639003753662,0.492765337228775,0.626945436000824,0.07996279746294022,0.9985594153404236,0.3123866021633148,0.6453178524971008,-0.07979918271303177,0.9986504912376404,0.48704156279563904,0.8385928869247437,0.3001420795917511,0.9669262170791626,0.3432874381542206,0.866867184638977,0.10815560072660446,0.9729143977165222,0.48479247093200684,0.9570361971855164,1.101393461227417,0.9054387211799622,0.35478246212005615,0.9804399013519287,0.7611974477767944,0.9177622199058533,0.464254766702652,0.9679818749427795,1.1627088785171509,0.8588971495628357,0.3582099378108978,0.9825088977813721,0.8142396211624146,0.7413018941879272,0.5342308878898621,1.024666428565979,0.8940948843955994,0.861005425453186,0.3818432092666626,1.071277141571045,0.45017948746681213,0.8246633410453796
20098.02461248528,0.4469268321990967,0.23731350898742676,-1.000227928161621,0.9999793767929077,0.4541082978248596,0.21066078543663025,-0.9520891308784485,0.9999599456787109,0.4626571238040924,0.20959025621414185,-0.9521703124046326,0.9999604225158691,0.47017595171928406,0.2086731493473053,-0.9521892070770264,0.9999464750289917,0.41937097907066345,0.21203532814979553,-0.9858368039131165,0.9999634027481079,0.3999745845794678,0.21190482378005981,-0.986046314239502,0.9999663829803467,0.38042590022087097,0.2121431827545166,-0.9861295819282532,0.9999579191207886,0.4607491195201874,0.2168496549129486,-0.6084843277931213,0.9999643564224243,0.33050286769866943,0.22211208939552307,-0.7700215578079224,0.9999620914459229,0.45403650403022766,0.25939664244651794,-0.8651458621025085,0.9999834299087524,0.41759973764419556,0.26327112317085266,-0.9108873605728149,0.9999856948852539,0.5233027935028076,0.34965917468070984,-0.3447130620479584,0.999893069267273,0.17561188340187073,0.37155312299728394,-0.5821306705474854,0.9997126460075378,0.5664258003234863,0.5148808360099792,-0.08515410870313644,0.9769498109817505,0.1788114309310913,0.5578659176826477,-0.877803385257721,0.983749270439148,0.6256517171859741,0.6469807028770447,-0.2738676369190216,0.9785978198051453,0.2776726186275482,0.46023470163345337,-1.4694247245788574,0.9875719547271729,0.6429451704025269,0.689833402633667,-0.32324111461639404,0.9587193131446838,0.2998340427875519,0.426094651222229,-1.587048888206482,0.9805363416671753,0.6321173906326294,0.6900268793106079,-0.4080660045146942,0.9612839818000793,0.2892497777938843,0.40720558166503906,-1.601759672164917,0.9803926348686218,0.622050940990448,0.6805470585823059,-0.30655598640441895,0.9624338150024414,0.28575417399406433,0.4147531986236572,-1.483276128768921,0.9713883996009827,0.49530866742134094,0.6284095644950867,0.08021902292966843,0.9972122311592102,0.31543105840682983,0.6477463841438293,-0.08000671863555908,0.9975464940071106,0.4864870309829712,0.8453126549720764,0.2741847634315491,0.9509220123291016,0.3431031405925751,0.8707635998725891,0.07603158801794052,0.9644797444343567,0.48810723423957825,0.966491162776947,0.9961311221122742,0.8672643899917603,0.3616325557231903,0.993743360042572,0.6537380814552307,0.8794887661933899,0.4683922231197357,0.9759124517440796,1.0488327741622925,0.8065874576568604,0.3680887520313263,1.0186831951141357,0.6984905004501343,0.6680428385734558,0.542820394039154,1.0307258367538452,0.7727531790733337,0.8066615462303162,0.39988720417022705,1.084541916847229,0.33235734701156616,0.7562907934188843
20114.691279151946,0.4434514343738556,0.23725241422653198,-1.0011365413665771,0.9999819993972778,0.4511411488056183,0.21122565865516663,-0.9521801471710205,0.9999635219573975,0.46009209752082825,0.21007907390594482,-0.9522213935852051,0.9999634027481079,0.46768468618392944,0.20916160941123962,-0.9521976113319397,0.9999496936798096,0.416261225938797,0.21253091096878052,-0.985317051410675,0.9999665021896362,0.3967053294181824,0.21223652362823486,-0.985481858253479,0.9999688863754272,0.3780479431152344,0.21224379539489746,-0.9855399131774902,0.9999604225158691,0.4593563973903656,0.21764296293258667,-0.6100295186042786,0.9999667406082153,0.3296773433685303,0.22217002511024475,-0.7711260914802551,0.9999645948410034,0.4514739513397217,0.25946733355522156,-0.8678725361824036,0.9999856948852539,0.4147590398788452,0.26279565691947937,-0.9132850170135498,0.9999880790710449,0.5253512263298035,0.3505063056945801,-0.3527833819389343,0.9999032020568848,0.1795234978199005,0.37181612849235535,-0.5854896903038025,0.9997301697731018,0.5668320655822754,0.5129953622817993,-0.07396800071001053,0.9771143794059753,0.17302808165550232,0.5548713803291321,-0.8850494027137756,0.9826420545578003,0.627068042755127,0.6496475338935852,-0.23597609996795654,0.9805004596710205,0.2634047567844391,0.4624946117401123,-1.4759044647216797,0.9859448671340942,0.6453761458396912,0.691016674041748,-0.28217989206314087,0.9629434943199158,0.29384323954582214,0.4294586181640625,-1.5938770771026611,0.9785082936286926,0.633232831954956,0.6915241479873657,-0.3684269189834595,0.9648576974868774,0.2813517451286316,0.40719884634017944,-1.6095247268676758,0.9781103730201721,0.6220957040786743,0.6818701028823853,-0.2684279680252075,0.9660996198654175,0.27631479501724243,0.4143800437450409,-1.490617036819458,0.9685882925987244,0.49510934948921204,0.63027024269104,0.08361237496137619,0.9982336759567261,0.3170703053474426,0.649255633354187,-0.08337228000164032,0.9984276294708252,0.4855813980102539,0.8428747653961182,0.31441572308540344,0.9642866253852844,0.34142833948135376,0.8686129450798035,0.10628799349069595,0.9761115312576294,0.4824223220348358,0.956265389919281,1.0767661333084106,0.9027276039123535,0.353334903717041,0.9847434759140015,0.7313985824584961,0.9150586724281311,0.4598243534564972,0.9688885807991028,1.133473515510559,0.8493240475654602,0.35341447591781616,0.9871960878372192,0.7806207537651062,0.7302743792533875,0.540654182434082,1.021040678024292,0.8632826805114746,0.8549399375915527,0.38869473338127136,1.072738528251648,0.41914743185043335,0.8162627220153809
20131.357945818614,0.4430042505264282,0.23866543173789978,-0.9618668556213379,0.9999830722808838,0.45186540484428406,0.21300733089447021,-0.9134992361068726,0.9999665021896362,0.4607066214084625,0.21207749843597412,-0.9135326743125916,0.9999662637710571,0.4683115482330322,0.21135100722312927,-0.9135231971740723,0.9999544620513916,0.41738393902778625,0.21349141001701355,-0.948498547077179,0.9999688863754272,0.39837536215782166,0.21280062198638916,-0.9486362934112549,0.999970555305481,0.37983232736587524,0.2124795913696289,-0.9486678242683411,0.9999626874923706,0.45910459756851196,0.21936741471290588,-0.574851393699646,0.9999687671661377,0.3302980363368988,0.22143813967704773,-0.7458871006965637,0.9999668598175049,0.44899168610572815,0.2611940801143646,-0.8293882608413696,0.9999865293502808,0.41320106387138367,0.26347970962524414,-0.8776825070381165,0.9999887943267822,0.5210562348365784,0.35078874230384827,-0.3286385238170624,0.9999274015426636,0.18103204667568207,0.36885321140289307,-0.5611402988433838,0.9997437596321106,0.5678625702857971,0.5145897269248962,-0.06334719061851501,0.9816492199897766,0.1702764630317688,0.5535377264022827,-0.8683228492736816,0.9833850860595703,0.6277593374252319,0.6488599181175232,-0.2382117360830307,0.984548807144165,0.26301124691963196,0.4634285271167755,-1.4573031663894653,0.9848695993423462,0.6454322338104248,0.6900841593742371,-0.2880643308162689,0.9690051674842834,0.28755128383636475,0.4349789619445801,-1.5749541521072388,0.9765150547027588,0.6322271823883057,0.6903313994407654,-0.3725721836090088,0.9706293940544128,0.27527981996536255,0.4119468331336975,-1.5886393785476685,0.9760620594024658,0.620419979095459,0.6814215183258057,-0.2702435553073883,0.9711921215057373,0.27326592803001404,0.4181099236011505,-1.4709020853042603,0.9660667777061462,0.4938943386077881,0.6289222240447998,0.08297564834356308,0.9984037280082703,0.31637829542160034,0.6472310423851013,-0.0827527567744255,0.9984622001647949,0.48700883984565735,0.8394613862037659,0.2869108021259308,0.9608026146888733,0.3435722589492798,0.8670975565910339,0.08736525475978851,0.9719593524932861,0.48383036255836487,0.9555564522743225,1.0292640924453735,0.893319308757782,0.3546428382396698,0.9827733635902405,0.6944486498832703,0.9038373231887817,0.4627048075199127,0.96925288438797,1.0841641426086426,0.838674008846283,0.3552396297454834,0.9845060110092163,0.7421127557754517,0.7068732380867004,0.5425755977630615,1.0218201875686646,0.815371572971344,0.8402756452560425,0.38638198375701904,1.0714998245239258,0.38360434770584106,0.7955851554870605
20148.024612485282,0.4468459188938141,0.2400251030921936,-0.9471256732940674,0.9999817609786987,0.4535868167877197,0.21548214554786682,-0.898420512676239,0.9999639987945557,0.4615793824195862,0.21435269713401794,-0.8984619975090027,0.9999644756317139,0.46864163875579834,0.21325963735580444,-0.898430585861206,0.9999512434005737,0.4215215742588043,0.21646171808242798,-0.9332689046859741,0.9999662637710571,0.4040062725543976,0.2157113254070282,-0.9334018230438232,0.9999685287475586,0.3849683105945587,0.21502742171287537,-0.9334337115287781,0.9999594688415527,0.4558379054069519,0.21978545188903809,-0.5664567947387695,0.9999669790267944,0.3338513970375061,0.2235148847103119,-0.7364822626113892,0.999962329864502,0.45141103863716125,0.2624359130859375,-0.8181605935096741,0.999984860420227,0.41893571615219116,0.26641398668289185,-0.8661001324653625,0.999987006187439,0.5235887765884399,0.3499771058559418,-0.33380791544914246,0.9999082088470459,0.18101441860198975,0.3705984354019165,-0.5619239807128906,0.9996873140335083,0.5659918189048767,0.5145120620727539,-0.08212621510028839,0.9778565764427185,0.1779918521642685,0.5559759140014648,-0.8774850964546204,0.981270968914032,0.6246960759162903,0.648876965045929,-0.2502575218677521,0.981584906578064,0.27616631984710693,0.4624031186103821,-1.4556695222854614,0.9840367436408997,0.6453602910041809,0.6900336146354675,-0.29656821489334106,0.9641981720924377,0.3019678592681885,0.4260963201522827,-1.5700370073318481,0.9758828282356262,0.6337717771530151,0.6909648180007935,-0.37780165672302246,0.9659725427627563,0.2875378429889679,0.40460923314094543,-1.5811786651611328,0.9754036664962769,0.6216828227043152,0.6819906830787659,-0.28109362721443176,0.9671571850776672,0.28437539935112,0.4135324954986572,-1.4684419631958008,0.965268075466156,0.49221986532211304,0.6318769454956055,0.08157870173454285,0.9981122016906738,0.31664082407951355,0.6498191952705383,-0.08134551346302032,0.9981837868690491,0.49017494916915894,0.836320161819458,0.3131420612335205,0.9589101076126099,0.34094253182411194,0.8680415749549866,0.10519412904977798,0.9732317924499512,0.4838908910751343,0.9524140357971191,1.03965163230896,0.8926705121994019,0.3550053834915161,0.9801228642463684,0.698359489440918,0.9055380821228027,0.4631030559539795,0.9668599367141724,1.0934972763061523,0.839528501033783,0.3553914427757263,0.9821619987487793,0.7451052069664001,0.717877984046936,0.5451714992523193,1.0188114643096924,0.8360645771026611,0.8426940441131592,0.3915632367134094,1.0704069137573242,0.39716991782188416,0.7996130585670471
20164.69127915195,0.4427871108055115,0.23914481699466705,-0.9899837374687195,0.9999805688858032,0.4504147469997406,0.21463966369628906,-0.9418772459030151,0.9999608993530273,0.4591163396835327,0.21337923407554626,-0.94193035364151,0.9999610185623169,0.46678632497787476,0.21225184202194214,-0.9419159293174744,0.9999474287033081,0.41670656204223633,0.21600624918937683,-0.975669264793396,0.9999635219573975,0.39780688285827637,0.21541815996170044,-0.9758296012878418,0.9999656677246094,0.3799359202384949,0.2150442898273468,-0.9758861660957336,0.9999563694000244,0.4571450352668762,0.21963295340538025,-0.6009531021118164,0.9999639987945557,0.331840455532074,0.223971426486969,-0.7651230096817017,0.9999586343765259,0.4496297240257263,0.2618083357810974,-0.8566737771034241,0.9999840259552002,0.4155665338039398,0.26571929454803467,-0.9030264019966125,0.9999861717224121,0.5227972865104675,0.34915870428085327,-0.34497717022895813,0.9999039173126221,0.18105976283550262,0.3711380660533905,-0.5793463587760925,0.9996999502182007,0.5666138529777527,0.5136118531227112,-0.07486660778522491,0.9778646230697632,0.17833109200000763,0.5565549731254578,-0.879726231098175,0.9798986911773682,0.6260273456573486,0.6484946012496948,-0.24251988530158997,0.9818020462989807,0.26936057209968567,0.4626992344856262,-1.4719144105911255,0.9848922491073608,0.6454901695251465,0.6900463700294495,-0.29021477699279785,0.9647589325904846,0.2968849539756775,0.4256136417388916,-1.5903385877609253,0.9774944186210632,0.6324238777160645,0.6908371448516846,-0.3764331638813019,0.9666112065315247,0.28005683422088623,0.4037257432937622,-1.6071666479110718,0.9771484136581421,0.6209276914596558,0.6813557744026184,-0.27512794733047485,0.9675660729408264,0.27582645416259766,0.41219574213027954,-1.4872548580169678,0.9672659039497375,0.495335191488266,0.6289071440696716,0.08632902055978775,0.9979895353317261,0.31809377670288086,0.6484860181808472,-0.08610546588897705,0.9981974959373474,0.4880085587501526,0.8391822576522827,0.3205144703388214,0.9610063433647156,0.34343937039375305,0.8685371279716492,0.1003580391407013,0.9743457436561584,0.4850567877292633,0.9541290402412415,1.0651507377624512,0.8952012062072754,0.3566787540912628,0.9837601184844971,0.7083078622817993,0.91038578748703,0.4630017578601837,0.968093752861023,1.1203510761260986,0.8405693173408508,0.3580843508243561,0.9858008623123169,0.7559097409248352,0.7186758518218994,0.5441157221794128,1.0183913707733154,0.8519561290740967,0.847457230091095,0.3958958387374878,1.073251485824585,0.3939996063709259,0.8080282807350159
20181.357945818618,0.44270971417427063,0.2393832504749298,-0.9295390248298645,0.9999774694442749,0.45064619183540344,0.2146407961845398,-0.878812313079834,0.999955415725708,0.4594612717628479,0.21351966261863708,-0.8788998126983643,0.9999562501907349,0.4673042893409729,0.21251022815704346,-0.8789064288139343,0.999941349029541,0.41627830266952515,0.21564313769340515,-0.9108116030693054,0.9999558925628662,0.39719095826148987,0.214990496635437,-0.9109402894973755,0.999957799911499,0.37943902611732483,0.2145913541316986,-0.9109830260276794,0.9999456405639648,0.4578470289707184,0.21947115659713745,-0.5390865206718445,0.9999606609344482,0.3314793109893799,0.22348865866661072,-0.6956488490104675,0.9999465942382812,0.44973063468933105,0.26191702485084534,-0.7979633808135986,0.9999815225601196,0.41481778025627136,0.26537442207336426,-0.8421621918678284,0.9999828338623047,0.524685263633728,0.3505590856075287,-0.3085957169532776,0.9999010562896729,0.18065036833286285,0.36971908807754517,-0.5117153525352478,0.9995765089988708,0.567477822303772,0.5142446756362915,-0.06309693306684494,0.9779065847396851,0.17799875140190125,0.5556471347808838,-0.8208634853363037,0.9718934893608093,0.626898467540741,0.6496323347091675,-0.24530498683452606,0.9800870418548584,0.27185767889022827,0.4668179750442505,-1.4216121435165405,0.9767846465110779,0.6467972993850708,0.6905401945114136,-0.2964596450328827,0.9617182016372681,0.29873138666152954,0.42749860882759094,-1.5387517213821411,0.9667354226112366,0.6341463923454285,0.6910049319267273,-0.3799782693386078,0.9638425707817078,0.28278326988220215,0.40717118978500366,-1.5522267818450928,0.9661194086074829,0.6222844123840332,0.6816988587379456,-0.2772434651851654,0.9649691581726074,0.27983397245407104,0.4151769280433655,-1.4362058639526367,0.9528008103370667,0.4960477352142334,0.6326282024383545,0.07579877227544785,0.9980446100234985,0.3162246346473694,0.6500415802001953,-0.07551978528499603,0.9980462789535522,0.4878155589103699,0.8435647487640381,0.26805782318115234,0.9616137742996216,0.34235918521881104,0.8713749647140503,0.08752737939357758,0.9726414084434509,0.48553842306137085,0.9564612507820129,1.0472179651260376,0.8918752074241638,0.35579219460487366,0.986773669719696,0.7143478989601135,0.9070606827735901,0.4653947651386261,0.9693828225135803,1.1058834791183472,0.8351694345474243,0.35976114869117737,0.9868831038475037,0.763889729976654,0.703765869140625,0.5396937727928162,1.0225363969802856,0.8374903798103333,0.8417326211929321,0.3889208436012268,1.0745859146118164,0.4028773307800293,0.8033492565155029
20198.024612485286,0.44408488273620605,0.23757728934288025,-0.9751816987991333,0.9999806880950928,0.45043182373046875,0.21315538883209229,-0.925096333026886,0.9999605417251587,0.4589051306247711,0.2120589017868042,-0.9251513481140137,0.999961256980896,0.46658480167388916,0.211014062166214,-0.9251389503479004,0.9999477863311768,0.41654056310653687,0.21426129341125488,-0.9558050036430359,0.999962568283081,0.3969477415084839,0.21368134021759033,-0.9559452533721924,0.9999644756317139,0.37826988101005554,0.21346265077590942,-0.9559954404830933,0.9999545812606812,0.45595449209213257,0.21884211897850037,-0.5886150002479553,0.9999649524688721,0.32997041940689087,0.22338590025901794,-0.739212155342102,0.9999536275863647,0.4506264626979828,0.26029932498931885,-0.8452802896499634,0.9999837875366211,0.4163528084754944,0.2641586661338806,-0.887772798538208,0.999984860420227,0.5235966444015503,0.3507218360900879,-0.35542261600494385,0.9998939037322998,0.18379241228103638,0.3695313036441803,-0.5500355362892151,0.9996185302734375,0.5693700313568115,0.5142250657081604,-0.10561022907495499,0.9788998365402222,0.1731710284948349,0.5570498108863831,-0.8633547425270081,0.9753742814064026,0.6251499652862549,0.6500117182731628,-0.27672919631004333,0.9805046916007996,0.26858294010162354,0.46330732107162476,-1.4748867750167847,0.9804229736328125,0.6444427967071533,0.6905984282493591,-0.3255649209022522,0.9619253873825073,0.2917925715446472,0.42907771468162537,-1.5933969020843506,0.9711164832115173,0.6319494247436523,0.6914300322532654,-0.4082116186618805,0.9638539552688599,0.27769121527671814,0.4061874449253082,-1.6052926778793335,0.9703307151794434,0.6202446222305298,0.6819151043891907,-0.30768007040023804,0.9649072289466858,0.27503710985183716,0.41292065382003784,-1.4890762567520142,0.9579899311065674,0.49612513184547424,0.630719006061554,0.0702897310256958,0.9979593753814697,0.31945154070854187,0.6493701934814453,-0.070030078291893,0.9981485605239868,0.4864066243171692,0.8403367400169373,0.2798595428466797,0.9630579948425293,0.340866357088089,0.8679988980293274,0.09871581941843033,0.9752395749092102,0.48240014910697937,0.953559160232544,1.0398898124694824,0.8995905518531799,0.3548315167427063,0.9858254790306091,0.7149454355239868,0.9144562482833862,0.46017125248908997,0.9676005244255066,1.0959787368774414,0.8416890501976013,0.357515811920166,0.9879210591316223,0.7629193663597107,0.7167221903800964,0.5404825210571289,1.0175989866256714,0.8257280588150024,0.853073239326477,0.38339635729789734,1.0729044675827026,0.402476966381073,0.8164672255516052
20214.691279151953,0.4460901916027069,0.23796570301055908,-0.9690738320350647,0.9999815225601196,0.45186418294906616,0.21372923254966736,-0.9191834330558777,0.999962568283081,0.45990094542503357,0.21264398097991943,-0.9192314147949219,0.9999632835388184,0.46720945835113525,0.21160563826560974,-0.9192144274711609,0.9999500513076782,0.4190463721752167,0.21477869153022766,-0.9522532224655151,0.9999651908874512,0.4000937044620514,0.21419504284858704,-0.9523938894271851,0.9999672174453735,0.38093146681785583,0.2138727307319641,-0.9524428844451904,0.9999580383300781,0.45494726300239563,0.2190573513507843,-0.5838534832000732,0.9999669790267944,0.3311074674129486,0.22364377975463867,-0.7450050115585327,0.9999582767486572,0.451707124710083,0.26062095165252686,-0.8393133878707886,0.9999842643737793,0.418112576007843,0.2646358609199524,-0.8848475217819214,0.9999855756759644,0.5230723023414612,0.3508152663707733,-0.34987273812294006,0.999895453453064,0.18323464691638947,0.36992910504341125,-0.5600400567054749,0.999639630317688,0.5688078999519348,0.5136486291885376,-0.09455227851867676,0.9783057570457458,0.1734626442193985,0.5577530860900879,-0.8760393857955933,0.9773128032684326,0.6243690848350525,0.6498399376869202,-0.26000332832336426,0.9802160859107971,0.26783987879753113,0.4630427658557892,-1.480737328529358,0.982320249080658,0.6440328359603882,0.6901572346687317,-0.3063134551048279,0.9613922834396362,0.29146847128868103,0.4272270202636719,-1.5985068082809448,0.9736363291740417,0.6316882371902466,0.6910623908042908,-0.38853517174720764,0.9633532166481018,0.2782086431980133,0.4058939218521118,-1.6098228693008423,0.9729241132736206,0.619907557964325,0.681618332862854,-0.2907869219779968,0.9645418524742126,0.2751348614692688,0.41272982954978943,-1.4944064617156982,0.9612579941749573,0.49581196904182434,0.6304308772087097,0.07162776589393616,0.9979686141014099,0.3195224404335022,0.6492842435836792,-0.07136484235525131,0.9981581568717957,0.48674753308296204,0.8396682143211365,0.28547972440719604,0.9635173082351685,0.34072816371917725,0.8674764633178711,0.09997580945491791,0.9746522903442383,0.4832780659198761,0.9531136751174927,1.0398881435394287,0.9006176590919495,0.3549604117870331,0.9857650399208069,0.7126842737197876,0.9140964150428772,0.4611663818359375,0.9671799540519714,1.0955612659454346,0.8451766967773438,0.3574562072753906,0.9878312945365906,0.7604168057441711,0.7214505672454834,0.5408801436424255,1.0174767971038818,0.8279391527175903,0.8548499345779419,0.38269153237342834,1.0724244117736816,0.40202099084854126,0.8164795637130737
20231.35794581862,0.44730427861213684,0.23856234550476074,-0.9097424745559692,0.9999734163284302,0.45413750410079956,0.2144828736782074,-0.8609187602996826,0.9999475479125977,0.46214330196380615,0.2134467363357544,-0.8609986305236816,0.9999477863311768,0.46919044852256775,0.2124982476234436,-0.8610056638717651,0.9999310970306396,0.4217841625213623,0.21523705124855042,-0.8974032998085022,0.999951958656311,0.4042462408542633,0.2145434319972992,-0.8975629210472107,0.9999542236328125,0.3849606513977051,0.2140463888645172,-0.8976333737373352,0.9999432563781738,0.4571036398410797,0.219264954328537,-0.5270317792892456,0.999953031539917,0.33374810218811035,0.22278058528900146,-0.7028319835662842,0.9999451637268066,0.45176878571510315,0.2610221803188324,-0.7792735695838928,0.9999784231185913,0.4186818301677704,0.2648892104625702,-0.8289990425109863,0.9999812841415405,0.5245825052261353,0.3498873710632324,-0.29298147559165955,0.9998887777328491,0.18135249614715576,0.3685738742351532,-0.5291537046432495,0.9996271133422852,0.5687496662139893,0.5137704610824585,-0.04841681197285652,0.9781692028045654,0.17629288136959076,0.5546987056732178,-0.8294995427131653,0.978706955909729,0.6285742521286011,0.6486340761184692,-0.2347600907087326,0.980049729347229,0.27625811100006104,0.4604993462562561,-1.3989319801330566,0.9825569987297058,0.6476210951805115,0.6905679702758789,-0.28625214099884033,0.9610366225242615,0.2999838590621948,0.4277515709400177,-1.512481451034546,0.9739190340042114,0.6347953081130981,0.6910335421562195,-0.3690483570098877,0.9633018970489502,0.28824037313461304,0.4074620306491852,-1.5252039432525635,0.9735055565834045,0.6236225366592407,0.6816614866256714,-0.26687756180763245,0.9647248983383179,0.28512540459632874,0.41435497999191284,-1.4116994142532349,0.9624031186103821,0.49686652421951294,0.6322300434112549,0.08109523355960846,0.9973884224891663,0.3170188069343567,0.6503384113311768,-0.08080584555864334,0.9976490139961243,0.4874185621738434,0.8423486948013306,0.27270200848579407,0.9534509181976318,0.34138810634613037,0.8718499541282654,0.07363629341125488,0.9650307297706604,0.4858950972557068,0.9562098979949951,1.0225387811660767,0.8642012476921082,0.35613390803337097,0.988425612449646,0.6718165874481201,0.878426730632782,0.46505823731422424,0.9675217270851135,1.0790789127349854,0.8087091445922852,0.3665310740470886,1.012618064880371,0.7189347743988037,0.6627594828605652,0.5401113033294678,1.0197808742523193,0.8145021200180054,0.8078535199165344,0.390741229057312,1.0801016092300415,0.3569537103176117,0.7540039420127869
20248.02461248529,0.4467650055885315,0.2353678047657013,-0.9573660492897034,0.9999781847000122,0.4529418349266052,0.21134412288665771,-0.9067521095275879,0.999957799911499,0.46100470423698425,0.21051320433616638,-0.9068061709403992,0.9999587535858154,0.4681687653064728,0.20973309874534607,-0.9067883491516113,0.9999451637268066,0.42062509059906006,0.21133628487586975,-0.9408472180366516,0.9999599456787109,0.40228644013404846,0.21029099822044373,-0.9409898519515991,0.9999618530273438,0.3828415870666504,0.20967364311218262,-0.9410334229469299,0.9999513626098633,0.455024778842926,0.21710878610610962,-0.5717733502388,0.9999622106552124,0.3311762809753418,0.22002333402633667,-0.7376490831375122,0.9999514818191528,0.45151278376579285,0.25858044624328613,-0.8282225131988525,0.9999817609786987,0.41822007298469543,0.261111319065094,-0.8750676512718201,0.9999830722808838,0.5254905223846436,0.35076314210891724,-0.3459770083427429,0.9998828172683716,0.18088757991790771,0.36892837285995483,-0.5582550764083862,0.9995906949043274,0.5677677989006042,0.5141319632530212,-0.10870382934808731,0.9756999015808105,0.17177711427211761,0.5547933578491211,-0.8708767890930176,0.974622368812561,0.6249998211860657,0.6496028304100037,-0.290420264005661,0.9767087697982788,0.2759132385253906,0.46341603994369507,-1.4551979303359985,0.9767727255821228,0.6445614099502563,0.6897701025009155,-0.340960830450058,0.9551690816879272,0.3028847873210907,0.4279232621192932,-1.5704079866409302,0.9657295346260071,0.6334408521652222,0.6907770037651062,-0.42247843742370605,0.9575121402740479,0.29162195324897766,0.40714502334594727,-1.5802769660949707,0.9647124409675598,0.6219708919525146,0.6814002394676208,-0.32182028889656067,0.9588234424591064,0.2880314588546753,0.41493260860443115,-1.467942714691162,0.95050448179245,0.4959828853607178,0.6295024156570435,0.07423929870128632,0.9978675842285156,0.3181799054145813,0.6485446691513062,-0.07398061454296112,0.9980401396751404,0.4863268733024597,0.8389944434165955,0.29400721192359924,0.9585292339324951,0.34213727712631226,0.8672918677330017,0.10381124913692474,0.9723305702209473,0.48485463857650757,0.9564313888549805,1.0372133255004883,0.8908737301826477,0.35442763566970825,0.9831812977790833,0.7143518328666687,0.901864230632782,0.4622209072113037,0.9707313776016235,1.091709852218628,0.8307572603225708,0.356090247631073,0.984479546546936,0.7617383003234863,0.6973131895065308,0.5447731018066406,1.0198259353637695,0.8198689818382263,0.840617299079895,0.3836265504360199,1.0717467069625854,0.4030541479587555,0.7955991625785828
20264.691279151957,0.4466526210308075,0.235275000333786,-0.9836611747741699,0.9999796152114868,0.452948659658432,0.21124395728111267,-0.9336796998977661,0.9999599456787109,0.46103471517562866,0.21042346954345703,-0.9337232708930969,0.9999608993530273,0.4682447910308838,0.20964199304580688,-0.9336979389190674,0.9999473094940186,0.4205889403820038,0.21114948391914368,-0.9669340252876282,0.999962329864502,0.4022422134876251,0.21004337072372437,-0.9670820832252502,0.9999644756317139,0.3827805519104004,0.20934411883354187,-0.9671209454536438,0.9999547004699707,0.4554224908351898,0.21690985560417175,-0.5972723960876465,0.9999641180038452,0.3311607241630554,0.2196679413318634,-0.759233832359314,0.9999545812606812,0.45114758610725403,0.2586236000061035,-0.8537084460258484,0.9999827146530151,0.41783764958381653,0.2610372304916382,-0.8994336128234863,0.9999842643737793,0.5254133343696594,0.35071465373039246,-0.36563706398010254,0.9998817443847656,0.18025104701519012,0.3691534101963043,-0.5756397247314453,0.9996179342269897,0.5673926472663879,0.5144962668418884,-0.12418750673532486,0.9755536317825317,0.1720270961523056,0.5563992261886597,-0.8892867565155029,0.9764753580093384,0.6246541738510132,0.6497310400009155,-0.30329424142837524,0.9763615131378174,0.27694183588027954,0.46292999386787415,-1.4787203073501587,0.978773295879364,0.6439367532730103,0.690022349357605,-0.3529907464981079,0.9544070363044739,0.3041381239891052,0.42511609196662903,-1.5949851274490356,0.9681872725486755,0.632858157157898,0.6910325884819031,-0.43479594588279724,0.956680953502655,0.29202592372894287,0.4063531756401062,-1.60408616065979,0.9671921133995056,0.6214335560798645,0.6815956234931946,-0.3345847427845001,0.9579729437828064,0.28854209184646606,0.41440528631210327,-1.491208553314209,0.9535707831382751,0.49597448110580444,0.6295737028121948,0.07440769672393799,0.9978759288787842,0.31804463267326355,0.648588240146637,-0.07416961342096329,0.9980833530426025,0.4866981506347656,0.8387277722358704,0.30437228083610535,0.9591529965400696,0.3421524465084076,0.8668504357337952,0.11027954518795013,0.9738174676895142,0.4846644699573517,0.9556472301483154,1.0513674020767212,0.8926694989204407,0.35445109009742737,0.983177900314331,0.7246372103691101,0.9055530428886414,0.4619075357913971,0.9700854420661926,1.1062453985214233,0.832682728767395,0.356099009513855,0.9844776391983032,0.7724977731704712,0.7051189541816711,0.5443123579025269,1.0196384191513062,0.8339155912399292,0.8444629907608032,0.3857733905315399,1.0715351104736328,0.41330790519714355,0.8022662997245789
20281.357945818625,0.44295603036880493,0.2388136088848114,-0.9311086535453796,0.999971866607666,0.45030638575553894,0.2143324315547943,-0.8853639364242554,0.9999415874481201,0.45901986956596375,0.21313604712486267,-0.8854531645774841,0.999942421913147,0.4667854309082031,0.2120170295238495,-0.8854851126670837,0.9999243021011353,0.4169633090496063,0.2154182493686676,-0.9180010557174683,0.9999457597732544,0.39809125661849976,0.21474900841712952,-0.9181815981864929,0.9999483823776245,0.3800450563430786,0.2143765687942505,-0.9182655215263367,0.9999358654022217,0.45720696449279785,0.21911820769309998,-0.5530146360397339,0.9999481439590454,0.33137059211730957,0.223297119140625,-0.7102635502815247,0.9999374151229858,0.4496277868747711,0.2613074481487274,-0.7995629906654358,0.9999756813049316,0.41509246826171875,0.26520922780036926,-0.8440616130828857,0.9999785423278809,0.5246986746788025,0.34860414266586304,-0.3060452342033386,0.9998917579650879,0.17924371361732483,0.3692684471607208,-0.5243828892707825,0.9996533393859863,0.566868245601654,0.5128616094589233,-0.051929086446762085,0.9804866909980774,0.1776646226644516,0.5562765002250671,-0.8095572590827942,0.9809389114379883,0.6274905204772949,0.6479790806770325,-0.23127606511116028,0.9829186201095581,0.2788344621658325,0.4612482786178589,-1.3836636543273926,0.9858869910240173,0.6452739238739014,0.69037264585495,-0.28156861662864685,0.9660711288452148,0.3044292628765106,0.4257175326347351,-1.49601149559021,0.9784066081047058,0.6332241296768188,0.6907768845558167,-0.3657408356666565,0.968183159828186,0.29232606291770935,0.4059021770954132,-1.5106490850448608,0.9781873226165771,0.6229173541069031,0.6815027594566345,-0.2631502151489258,0.9692070484161377,0.28924116492271423,0.4131327271461487,-1.3968273401260376,0.9687128663063049,0.4970947504043579,0.6278423070907593,0.07466781139373779,0.9970381259918213,0.3159322738647461,0.647566556930542,-0.07440492510795593,0.9974421262741089,0.4890305995941162,0.8397247195243835,0.24089926481246948,0.954100489616394,0.3452952206134796,0.8732994198799133,0.06060701981186867,0.964356541633606,0.4874483048915863,0.9634331464767456,0.9762410521507263,0.8618683815002441,0.36155253648757935,0.9909977912902832,0.6388164162635803,0.8771893978118896,0.46725770831108093,0.9738426804542542,1.031104564666748,0.8005238771438599,0.37190496921539307,1.0184664726257324,0.6840760111808777,0.651890754699707,0.5387402176856995,1.0269885063171387,0.7632675766944885,0.7991659045219421,0.39474815130233765,1.085850715637207,0.32135307788848877,0.7499852776527405
