time,X_NOSE,Y_NOSE,Z_NOSE,visibility_NOSE,X_LEFT_EYE_INNER,Y_LEFT_EYE_INNER,Z_LEFT_EYE_INNER,visibility_LEFT_EYE_INNER,X_LEFT_EYE,Y_LEFT_EYE,Z_LEFT_EYE,visibility_LEFT_EYE,X_LEFT_EYE_OUTER,Y_LEFT_EYE_OUTER,Z_LEFT_EYE_OUTER,visibility_LEFT_EYE_OUTER,X_RIGHT_EYE_OUTER,Y_RIGHT_EYE_OUTER,Z_RIGHT_EYE_OUTER,visibility_RIGHT_EYE_OUTER,X_RIGHT_EYE,Y_RIGHT_EYE,Z_RIGHT_EYE,visibility_RIGHT_EYE,X_RIGHT_EYE_OUTER,Y_RIGHT_EYE_OUTER,Z_RIGHT_EYE_OUTER,visibility_RIGHT_EYE_OUTER,X_LEFT_EAR,Y_LEFT_EAR,Z_LEFT_EAR,visibility_LEFT_EAR,X_RIGHT_EAR,Y_RIGHT_EAR,Z_RIGHT_EAR,visibility_RIGHT_EAR,X_MOUTH_LEFT,Y_MOUTH_LEFT,Z_MOUTH_LEFT,visibility_MOUTH_LEFT,X_MOUTH_RIGHT,Y_MOUTH_RIGHT,Z_MOUTH_RIGHT,visibility_MOUTH_RIGHT,X_LEFT_SHOULDER,Y_LEFT_SHOULDER,Z_LEFT_SHOULDER,visibility_LEFT_SHOULDER,X_RIGHT_SHOULDER,Y_RIGHT_SHOULDER,Z_RIGHT_SHOULDER,visibility_RIGHT_SHOULDER,X_LEFT_ELBOW,Y_LEFT_ELBOW,Z_LEFT_ELBOW,visibility_LEFT_ELBOW,X_RIGHT_ELBOW,Y_RIGHT_ELBOW,Z_RIGHT_ELBOW,visibility_RIGHT_ELBOW,X_LEFT_WRIST,Y_LEFT_WRIST,Z_LEFT_WRIST,visibility_LEFT_WRIST,X_RIGHT_WRIST,Y_RIGHT_WRIST,Z_RIGHT_WRIST,visibility_RIGHT_WRIST,X_LEFT_PINKY,Y_LEFT_PINKY,Z_LEFT_PINKY,visibility_LEFT_PINKY,X_RIGHT_PINKY,Y_RIGHT_PINKY,Z_RIGHT_PINKY,visibility_RIGHT_PINKY,X_LEFT_INDEX,Y_LEFT_INDEX,Z_LEFT_INDEX,visibility_LEFT_INDEX,X_RIGHT_INDEX,Y_RIGHT_INDEX,Z_RIGHT_INDEX,visibility_RIGHT_INDEX,X_LEFT_THUMB,Y_LEFT_THUMB,Z_LEFT_THUMB,visibility_LEFT_THUMB,X_RIGHT_THUMB,Y_RIGHT_THUMB,Z_RIGHT_THUMB,visibility_RIGHT_THUMB,X_LEFT_HIP,Y_LEFT_HIP,Z_LEFT_HIP,visibility_LEFT_HIP,X_RIGHT_HIP,Y_RIGHT_HIP,Z_RIGHT_HIP,visibility_RIGHT_HIP,X_LEFT_KNEE,Y_LEFT_KNEE,Z_LEFT_KNEE,visibility_LEFT_KNEE,X_RIGHT_KNEE,Y_RIGHT_KNEE,Z_RIGHT_KNEE,visibility_RIGHT_KNEE,X_LEFT_ANKLE,Y_LEFT_ANKLE,Z_LEFT_ANKLE,visibility_LEFT_ANKLE,X_RIGHT_ANKLE,Y_RIGHT_ANKLE,Z_RIGHT_ANKLE,visibility_RIGHT_ANKLE,X_LEFT_HEEL,Y_LEFT_HEEL,Z_LEFT_HEEL,visibility_LEFT_HEEL,X_RIGHT_HEEL,Y_RIGHT_HEEL,Z_RIGHT_HEEL,visibility_RIGHT_HEEL,X_LEFT_FOOT_INDEX,Y_LEFT_FOOT_INDEX,Z_LEFT_FOOT_INDEX,visibility_LEFT_FOOT_INDEX,X_RIGHT_FOOT_INDEX,Y_RIGHT_FOOT_INDEX,Z_RIGHT_FOOT_INDEX,visibility_RIGHT_FOOT_INDEX
17962.234341056057,0.4474370777606964,0.232073575258255,-0.8297435641288757,0.9999843835830688,0.4534941613674164,0.2092142105102539,-0.7663049697875977,0.9999786615371704,0.46181273460388184,0.20861601829528809,-0.7666453123092651,0.9999784231185913,0.4697360396385193,0.20796722173690796,-0.7668632864952087,0.9999796152114868,0.4212261438369751,0.2094968855381012,-0.7995791435241699,0.9999679327011108,0.40266528725624084,0.20919334888458252,-0.7995805144309998,0.9999591112136841,0.3837876617908478,0.20911389589309692,-0.7996227741241455,0.9999452829360962,0.4631364345550537,0.2151767909526825,-0.39691004157066345,0.9999850988388062,0.3335098326206207,0.21947982907295227,-0.5591440200805664,0.9999465942382812,0.45455652475357056,0.2554967403411865,-0.6912339925765991,0.9999911785125732,0.4204598367214203,0.25695550441741943,-0.7372319102287292,0.999983549118042,0.5379388332366943,0.3488311171531677,-0.22217750549316406,0.9999614953994751,0.19431732594966888,0.3636978268623352,-0.36031222343444824,0.9992104768753052,0.5855066776275635,0.5059646964073181,-0.08492061495780945,0.9807959794998169,0.15259648859500885,0.504785418510437,-0.5357738137245178,0.8315836191177368,0.6465877294540405,0.6360548734664917,-0.37806466221809387,0.9798826575279236,0.025677770376205444,0.540874719619751,-1.128751516342163,0.7794501185417175,0.6649167537689209,0.6781291365623474,-0.46445441246032715,0.9628961682319641,-0.024739086627960205,0.544114887714386,-1.243268370628357,0.7940818667411804,0.650948703289032,0.6778877377510071,-0.5657818913459778,0.9672093987464905,-0.04315906763076782,0.5296457409858704,-1.3574169874191284,0.8195861577987671,0.6400808095932007,0.6682584881782532,-0.42446738481521606,0.9674147367477417,-0.029749929904937744,0.5150163173675537,-1.194819688796997,0.8277333974838257,0.49675408005714417,0.6271076202392578,0.06480544060468674,0.9982298016548157,0.3215048313140869,0.6444991230964661,-0.06422892212867737,0.9980642199516296,0.4900569021701813,0.8307890295982361,0.25913679599761963,0.9853951930999756,0.34043771028518677,0.8607958555221558,0.10927319526672363,0.9759261012077332,0.4895246922969818,0.9577828645706177,0.9986636638641357,0.9474120736122131,0.35726529359817505,0.9862024188041687,0.7228044867515564,0.9320597648620605,0.47250643372535706,0.9686352610588074,1.050920009613037,0.8789351582527161,0.38149741291999817,1.0035597085952759,0.7660057544708252,0.6957709193229675,0.5365754961967468,1.0224053859710693,0.7485442161560059,0.8994846940040588,0.36951273679733276,1.0696860551834106,0.3823292553424835,0.8365029692649841
17978.901007722725,0.44543418288230896,0.23158249258995056,-0.8087142109870911,0.9999896287918091,0.4525832533836365,0.20953571796417236,-0.7478091716766357,0.9999855756759644,0.4613770842552185,0.2092990279197693,-0.7481156587600708,0.9999856948852539,0.4693849980831146,0.20901763439178467,-0.7483119368553162,0.9999861717224121,0.4209058880805969,0.20879849791526794,-0.7798553109169006,0.9999781847000122,0.4027063846588135,0.2080557644367218,-0.779843270778656,0.999972939491272,0.38415491580963135,0.20762169361114502,-0.779846727848053,0.9999631643295288,0.4633932113647461,0.2157505452632904,-0.3867272436618805,0.9999903440475464,0.3338315486907959,0.21714138984680176,-0.5439826250076294,0.9999654293060303,0.45278364419937134,0.2552357017993927,-0.6726175546646118,0.999994158744812,0.418558269739151,0.25551363825798035,-0.7171869277954102,0.99998939037323,0.5379089713096619,0.3474764823913574,-0.21394233405590057,0.9999707937240601,0.1937161386013031,0.36075833439826965,-0.34441179037094116,0.9993859529495239,0.5882523655891418,0.5041294097900391,-0.05737549439072609,0.9829346537590027,0.15521115064620972,0.5019251704216003,-0.5120435953140259,0.8483932614326477,0.6466911435127258,0.6353170871734619,-0.32182469964027405,0.9820844531059265,0.03676137328147888,0.5397815704345703,-1.1011911630630493,0.800767183303833,0.6643010973930359,0.6780030131340027,-0.40495121479034424,0.9662368893623352,-0.01485934853553772,0.5435917377471924,-1.2150465250015259,0.8120507597923279,0.6499640941619873,0.6778476238250732,-0.5045328736305237,0.9702131152153015,-0.014718085527420044,0.5289684534072876,-1.325002670288086,0.8355317115783691,0.6391069889068604,0.6680796146392822,-0.3666574954986572,0.9706403613090515,0.0015587806701660156,0.5291995406150818,-1.1652028560638428,0.8427131772041321,0.49565255641937256,0.6250299215316772,0.057456329464912415,0.9984423518180847,0.3186407685279846,0.6428750157356262,-0.056867193430662155,0.9982203841209412,0.48937657475471497,0.8270949721336365,0.24260129034519196,0.9865034818649292,0.3419460952281952,0.8597939610481262,0.11181335896253586,0.9754493832588196,0.4904644191265106,0.9586936831474304,0.9750945568084717,0.9475153088569641,0.3580446243286133,0.9865182638168335,0.7135510444641113,0.9256415367126465,0.47436457872390747,0.9686985611915588,1.027071475982666,0.8656831383705139,0.3620882034301758,0.9854928255081177,0.756129264831543,0.6665899753570557,0.5318249464035034,1.024944543838501,0.7241965532302856,0.8952040672302246,0.373101145029068,1.0708682537078857,0.37523287534713745,0.8238464593887329
17995.567674389393,0.4469708800315857,0.23109453916549683,-0.8019490242004395,0.9999852180480957,0.45238786935806274,0.20893701910972595,-0.738641619682312,0.9999798536300659,0.4604647159576416,0.20849323272705078,-0.7389620542526245,0.9999797344207764,0.4684649407863617,0.20802238583564758,-0.7391579747200012,0.9999805688858032,0.42136698961257935,0.2089342474937439,-0.7716416120529175,0.9999701976776123,0.40327924489974976,0.20853105187416077,-0.7716297507286072,0.9999618530273438,0.38434895873069763,0.20843595266342163,-0.7716615200042725,0.9999486207962036,0.46124783158302307,0.2153029441833496,-0.3732510507106781,0.9999858140945435,0.3334157466888428,0.21932554244995117,-0.5341312289237976,0.9999513626098633,0.4539690613746643,0.2549070119857788,-0.665443480014801,0.9999916553497314,0.42063164710998535,0.2563517689704895,-0.7109559178352356,0.9999849796295166,0.5380962491035461,0.3485795855522156,-0.20143206417560577,0.999962568283081,0.19465099275112152,0.363298237323761,-0.34920641779899597,0.9992998838424683,0.5859453678131104,0.5049757957458496,-0.07012978941202164,0.9814862608909607,0.15189972519874573,0.5021827816963196,-0.5426470637321472,0.8551707863807678,0.6474359631538391,0.6369271874427795,-0.3692280948162079,0.9817403554916382,0.034239500761032104,0.5388644337654114,-1.1404187679290771,0.796802818775177,0.6647400856018066,0.6786215305328369,-0.45721009373664856,0.9655422568321228,-0.020061194896697998,0.5437225699424744,-1.257711410522461,0.8045741319656372,0.6495474576950073,0.678571343421936,-0.5582000613212585,0.9695363640785217,-0.020435988903045654,0.5298659801483154,-1.365166425704956,0.8278412222862244,0.6382299065589905,0.6690329313278198,-0.41572096943855286,0.9695532917976379,-0.013487637042999268,0.5133275389671326,-1.2037534713745117,0.833737313747406,0.4956403970718384,0.6259613037109375,0.07108944654464722,0.9982598423957825,0.32117241621017456,0.6440775990486145,-0.07047642767429352,0.99825519323349,0.4893760085105896,0.8310425877571106,0.2650173306465149,0.9854114055633545,0.34161216020584106,0.8611456155776978,0.09254712611436844,0.9787287712097168,0.49092763662338257,0.9580368399620056,1.0035558938980103,0.9483008980751038,0.35764607787132263,0.9873416423797607,0.6938334703445435,0.9359835982322693,0.47401976585388184,0.969843864440918,1.0558010339736938,0.8848063945770264,0.35965949296951294,0.9869815111160278,0.7354529500007629,0.7006362676620483,0.5404207110404968,1.0224485397338867,0.7533838152885437,0.9008722305297852,0.3698323667049408,1.0698930025100708,0.3476124703884125,0.8392705917358398
18012.23434105606,0.4461514949798584,0.23025968670845032,-0.8366813659667969,0.9999847412109375,0.4519345164299011,0.20845606923103333,-0.7730749249458313,0.9999796152114868,0.460232138633728,0.20803716778755188,-0.7733879685401917,0.9999792575836182,0.46830296516418457,0.20755192637443542,-0.77358478307724,0.9999802112579346,0.4206187427043915,0.20833101868629456,-0.8071038722991943,0.9999703168869019,0.40288209915161133,0.2078763246536255,-0.8070963025093079,0.9999622106552124,0.3841280937194824,0.2076687514781952,-0.8071324229240417,0.9999499320983887,0.461504727602005,0.214752197265625,-0.4009374976158142,0.9999850988388062,0.3330996632575989,0.21813395619392395,-0.5665090084075928,0.9999531507492065,0.45360255241394043,0.25407344102859497,-0.696952223777771,0.9999915361404419,0.41972994804382324,0.2551223039627075,-0.7438176274299622,0.999984860420227,0.5363701581954956,0.3474360406398773,-0.2198975682258606,0.9999662637710571,0.19288083910942078,0.3617931604385376,-0.3692508339881897,0.9993556141853333,0.5882265567779541,0.5052729845046997,-0.09526292234659195,0.9824367761611938,0.1522180438041687,0.5041567087173462,-0.5542353987693787,0.8543564081192017,0.6486711502075195,0.6352242827415466,-0.4221862852573395,0.981361448764801,0.019131571054458618,0.541185200214386,-1.153778314590454,0.793278694152832,0.6669706106185913,0.6782968044281006,-0.5150487422943115,0.9646313786506653,-0.027959346771240234,0.5419855117797852,-1.2717257738113403,0.7996487617492676,0.6523995399475098,0.6779410243034363,-0.6171473860740662,0.9689463973045349,-0.05275276303291321,0.5148719549179077,-1.3827697038650513,0.8239534497261047,0.641755223274231,0.6680330634117126,-0.47023195028305054,0.9689688086509705,-0.021685391664505005,0.5127562880516052,-1.218462347984314,0.8305826187133789,0.4973500967025757,0.6243390440940857,0.07055498659610748,0.9981138706207275,0.32223764061927795,0.6420608758926392,-0.06995010375976562,0.9980295300483704,0.48958611488342285,0.8321755528450012,0.26090896129608154,0.9829846024513245,0.34237927198410034,0.8566469550132751,0.09062515199184418,0.97557133436203,0.4890982508659363,0.9622148275375366,0.9753772616386414,0.9434026479721069,0.3573859930038452,0.9831854701042175,0.6828345656394958,0.9284890294075012,0.47418078780174255,0.9718865156173706,1.023954153060913,0.8723233938217163,0.3573392629623413,0.9845531582832336,0.7229669690132141,0.6923369765281677,0.555670440196991,1.021744728088379,0.7121010422706604,0.8923267722129822,0.3658711910247803,1.064893364906311,0.33479219675064087,0.829063892364502
18028.90100772273,0.44688093662261963,0.23103338479995728,-0.8977630138397217,0.9999833106994629,0.4527831971645355,0.20876094698905945,-0.8334317803382874,0.9999775886535645,0.4613107740879059,0.20809710025787354,-0.8337709903717041,0.999977707862854,0.4695567190647125,0.2073139250278473,-0.8339967727661133,0.9999793767929077,0.41988980770111084,0.20911404490470886,-0.8673873543739319,0.999963641166687,0.40170127153396606,0.20874616503715515,-0.8673778176307678,0.9999533891677856,0.3824642300605774,0.208631694316864,-0.8674110770225525,0.9999364614486694,0.4618787169456482,0.21418944001197815,-0.4508369266986847,0.999984622001648,0.33125048875808716,0.21918627619743347,-0.6169384121894836,0.9999352693557739,0.45410576462745667,0.25469985604286194,-0.7534088492393494,0.9999910593032837,0.4189765453338623,0.2561435103416443,-0.8006744980812073,0.9999821186065674,0.5339735746383667,0.34905362129211426,-0.26893991231918335,0.9999710321426392,0.19147706031799316,0.3629249334335327,-0.38529011607170105,0.9990429282188416,0.5875589847564697,0.5065885782241821,-0.1426011323928833,0.9844605326652527,0.1504024863243103,0.5042860507965088,-0.5415316820144653,0.7986565828323364,0.6469987034797668,0.6366171836853027,-0.47095370292663574,0.9820846915245056,0.007060229778289795,0.5443780422210693,-1.1369295120239258,0.7107992768287659,0.6650581359863281,0.6787145137786865,-0.5635347366333008,0.9655107855796814,-0.0495629608631134,0.5450266003608704,-1.2513537406921387,0.7285559773445129,0.6512455940246582,0.6785947680473328,-0.6668920516967773,0.969635009765625,-0.05051302909851074,0.5335436463356018,-1.3665324449539185,0.7593732476234436,0.6407623291015625,0.6686820983886719,-0.5186251401901245,0.9691216945648193,-0.03072473220527172,0.5195127725601196,-1.2030293941497803,0.7704713940620422,0.4932631850242615,0.6254109740257263,0.0557529479265213,0.998202919960022,0.31668996810913086,0.6412196159362793,-0.05522458255290985,0.9976377487182617,0.48783472180366516,0.8301892280578613,0.24340885877609253,0.9854625463485718,0.3424491286277771,0.8580100536346436,0.11232874542474747,0.97372967004776,0.4896428883075714,0.9595757126808167,0.9686541557312012,0.9536949992179871,0.3557788133621216,0.9821135401725769,0.7224386930465698,0.9329008460044861,0.4739561676979065,0.9692897200584412,1.0180020332336426,0.8743898868560791,0.36164185404777527,0.9815762042999268,0.7641404271125793,0.6900519728660583,0.5351864695549011,1.0219324827194214,0.6945808529853821,0.9106199145317078,0.36862802505493164,1.067553162574768,0.37036237120628357,0.8476319909095764
18045.567674389396,0.44536033272743225,0.229263037443161,-0.9027931690216064,0.999983549118042,0.4514140486717224,0.20761272311210632,-0.836150050163269,0.9999784231185913,0.4599381387233734,0.20720919966697693,-0.8364787697792053,0.9999785423278809,0.46844160556793213,0.20675846934318542,-0.8366855978965759,0.9999798536300659,0.41877472400665283,0.20741799473762512,-0.8697255849838257,0.9999663829803467,0.40046218037605286,0.2069576382637024,-0.8697333931922913,0.999956488609314,0.38206562399864197,0.20686006546020508,-0.8697791695594788,0.9999407529830933,0.4628007411956787,0.21437224745750427,-0.44738057255744934,0.9999843835830688,0.33233150839805603,0.2181364893913269,-0.6114051938056946,0.9999395608901978,0.4532218873500824,0.2531827390193939,-0.7573094367980957,0.9999910593032837,0.41830718517303467,0.254148930311203,-0.8039083480834961,0.999982476234436,0.5370203852653503,0.3490291237831116,-0.25706759095191956,0.9999669790267944,0.19229254126548767,0.3625391125679016,-0.39496031403541565,0.9991303086280823,0.5860980749130249,0.5058268308639526,-0.14362472295761108,0.9835984110832214,0.1460937261581421,0.5021602511405945,-0.5813732743263245,0.8192197680473328,0.6457282304763794,0.6363232731819153,-0.4864217936992645,0.9816325902938843,0.0004911720752716064,0.5437107086181641,-1.2006891965866089,0.7245627641677856,0.6620283722877502,0.6780424118041992,-0.5809192657470703,0.9637734293937683,-0.0528758205473423,0.5441281199455261,-1.3205528259277344,0.7335127592086792,0.6483413577079773,0.6778828501701355,-0.6852986812591553,0.9681071639060974,-0.05042800307273865,0.5296645164489746,-1.4322376251220703,0.7628599405288696,0.6377393007278442,0.6682246923446655,-0.5352846384048462,0.9676034450531006,-0.032093346118927,0.5177923440933228,-1.2662065029144287,0.7734271883964539,0.4935556650161743,0.6221768260002136,0.06672009825706482,0.99801105260849,0.31889715790748596,0.6403408646583557,-0.06614936888217926,0.997856080532074,0.48812761902809143,0.8273335695266724,0.2565017342567444,0.9841916561126709,0.3408830165863037,0.8553977608680725,0.07560757547616959,0.9754341840744019,0.49089109897613525,0.9592879414558411,0.9767979979515076,0.9533541798591614,0.35539305210113525,0.9860355854034424,0.665758490562439,0.9381673336029053,0.4732644557952881,0.9708893895149231,1.024709701538086,0.8790382742881775,0.3590068817138672,0.9875483512878418,0.7034744620323181,0.6901354789733887,0.5430730581283569,1.0210514068603516,0.6928471326828003,0.9129633903503418,0.36521220207214355,1.0702292919158936,0.2917272448539734,0.857901394367218
18062.234341056064,0.4455430805683136,0.23169755935668945,-0.83003830909729,0.9999819993972778,0.4506864547729492,0.2095544934272766,-0.7684637904167175,0.9999765157699585,0.4589960277080536,0.2088177502155304,-0.7688108682632446,0.9999768733978271,0.4670364558696747,0.20816707611083984,-0.7690768837928772,0.9999785423278809,0.4181972146034241,0.20941340923309326,-0.8023505210876465,0.999962329864502,0.4000447988510132,0.20858705043792725,-0.8023620247840881,0.9999518394470215,0.38251930475234985,0.2083183228969574,-0.8024383187294006,0.9999352693557739,0.46027830243110657,0.21545162796974182,-0.3964245617389679,0.9999847412109375,0.3333139717578888,0.21855691075325012,-0.5604037046432495,0.9999388456344604,0.4541165828704834,0.25412696599960327,-0.688400149345398,0.9999902248382568,0.41872620582580566,0.2554846405982971,-0.7351404428482056,0.9999802112579346,0.5346441268920898,0.34815713763237,-0.2096238136291504,0.999972939491272,0.19594579935073853,0.35976263880729675,-0.35384321212768555,0.9992375373840332,0.5828741788864136,0.5053850412368774,-0.09110590815544128,0.9836966395378113,0.1563451886177063,0.5043860673904419,-0.537017285823822,0.8212775588035583,0.646607518196106,0.6339132189750671,-0.41398558020591736,0.9828038215637207,0.024436354637145996,0.5362709760665894,-1.1418284177780151,0.7746335864067078,0.6646444201469421,0.6764991879463196,-0.5035847425460815,0.9672863483428955,-0.04540124535560608,0.5426715612411499,-1.2569440603256226,0.7877542972564697,0.6493551731109619,0.6760850548744202,-0.6067668199539185,0.9711950421333313,-0.045477986335754395,0.5279576778411865,-1.3709526062011719,0.8129780292510986,0.6380746364593506,0.6665085554122925,-0.4614502191543579,0.9707460403442383,-0.024598151445388794,0.5144757628440857,-1.2071059942245483,0.8187341094017029,0.4945075511932373,0.6234038472175598,0.0640372559428215,0.9982002973556519,0.3168514370918274,0.6392172574996948,-0.06345772743225098,0.9978498220443726,0.48780301213264465,0.8304519653320312,0.20254802703857422,0.9829246401786804,0.33969247341156006,0.8604279160499573,0.06668475270271301,0.9664112329483032,0.4914667308330536,0.963925302028656,0.8993079662322998,0.9387380480766296,0.3565993010997772,0.9863424897193909,0.6530134677886963,0.9148865938186646,0.47704848647117615,0.9725733995437622,0.9456775188446045,0.8434544205665588,0.3599931001663208,0.9849848747253418,0.6922889351844788,0.6338996291160583,0.5349030494689941,1.0268629789352417,0.621616542339325,0.8791147470474243,0.36420345306396484,1.0712295770645142,0.29704341292381287,0.8132203817367554
18078.901007722732,0.4460678696632385,0.23272106051445007,-0.7313724756240845,0.9999818801879883,0.45293551683425903,0.210762619972229,-0.6674609780311584,0.9999758005142212,0.4615102708339691,0.21027424931526184,-0.6678522229194641,0.9999760389328003,0.4695068597793579,0.20964103937149048,-0.6681669354438782,0.9999783039093018,0.420449823141098,0.21084871888160706,-0.7018619775772095,0.9999607801437378,0.4024543762207031,0.21036311984062195,-0.7018468379974365,0.9999498128890991,0.3838587999343872,0.21010002493858337,-0.701907217502594,0.9999327659606934,0.4632043242454529,0.21694037318229675,-0.30791303515434265,0.9999847412109375,0.3333158493041992,0.2202264964580536,-0.47475117444992065,0.9999394416809082,0.4534185230731964,0.25635337829589844,-0.5963618755340576,0.9999908208847046,0.4190790057182312,0.2571863830089569,-0.6438597440719604,0.9999815225601196,0.5341745018959045,0.34847480058670044,-0.14888398349285126,0.9999690055847168,0.19476738572120667,0.3652631640434265,-0.2846892774105072,0.9991255402565002,0.5846647024154663,0.504586935043335,-0.011304345913231373,0.981033444404602,0.15292459726333618,0.5035694241523743,-0.4453665018081665,0.8211895227432251,0.6469322443008423,0.6328863501548767,-0.29232463240623474,0.9810588955879211,-0.005367457866668701,0.544937789440155,-1.0114853382110596,0.7585382461547852,0.6661721467971802,0.6760349273681641,-0.3769958019256592,0.9657524824142456,-0.05251386761665344,0.5442073941230774,-1.1199597120285034,0.7781276702880859,0.6510010957717896,0.6757950186729431,-0.47719472646713257,0.9697559475898743,-0.0525665283203125,0.53281170129776,-1.2373677492141724,0.8052887916564941,0.6398304104804993,0.6657087206840515,-0.3378567099571228,0.9690985083580017,-0.03646436333656311,0.5205650329589844,-1.0781916379928589,0.8155258893966675,0.4937460124492645,0.6302213668823242,0.06356529891490936,0.9983769655227661,0.320033460855484,0.6450183391571045,-0.06302935630083084,0.9979568719863892,0.4872613251209259,0.8394085168838501,0.22514119744300842,0.9820690751075745,0.3398047983646393,0.8671709299087524,0.09311661869287491,0.9634574055671692,0.4896604120731354,0.9684621095657349,0.9547908902168274,0.9201527237892151,0.3582612872123718,0.9878481030464172,0.69263756275177,0.8888818025588989,0.4741874635219574,0.9758663773536682,1.0067954063415527,0.8231356739997864,0.3567485213279724,0.9871919751167297,0.7352572083473206,0.5982671976089478,0.5337925553321838,1.024857997894287,0.708558201789856,0.8446390628814697,0.37455806136131287,1.072508454322815,0.35775771737098694,0.7564919590950012
18095.5676743894,0.44350695610046387,0.2299615740776062,-0.8625072836875916,0.999981164932251,0.4511433243751526,0.20832177996635437,-0.7996037006378174,0.9999743700027466,0.4601064622402191,0.20812025666236877,-0.7999619245529175,0.9999738931655884,0.4686031937599182,0.20790061354637146,-0.80021733045578,0.9999765157699585,0.4184556007385254,0.20767337083816528,-0.8329507112503052,0.9999599456787109,0.3999951183795929,0.20713186264038086,-0.8329558372497559,0.9999485015869141,0.3817022442817688,0.2069161832332611,-0.8330268859863281,0.9999336004257202,0.46361440420150757,0.21539223194122314,-0.433473140001297,0.9999819993972778,0.33172106742858887,0.21723738312721252,-0.5958250164985657,0.999931812286377,0.45103350281715393,0.25451868772506714,-0.7247284054756165,0.9999904632568359,0.41558337211608887,0.25445356965065,-0.7708513736724854,0.9999822378158569,0.5358026623725891,0.3476819396018982,-0.268714040517807,0.9999698400497437,0.1925746500492096,0.36094537377357483,-0.37985047698020935,0.9991324543952942,0.5881534814834595,0.5054921507835388,-0.143476203083992,0.9854556918144226,0.1487710326910019,0.507016658782959,-0.49781838059425354,0.844169557094574,0.6467800736427307,0.6346520185470581,-0.44971585273742676,0.9827616810798645,-0.011610984802246094,0.5421044826507568,-1.0228650569915771,0.756117582321167,0.665433943271637,0.6776360869407654,-0.540217399597168,0.9667513966560364,-0.05722048878669739,0.5441519021987915,-1.1269500255584717,0.7625165581703186,0.6509045362472534,0.6768530011177063,-0.6392770409584045,0.9705939888954163,-0.08268401026725769,0.5293931365013123,-1.2484946250915527,0.7917401194572449,0.6398402452468872,0.6666553616523743,-0.4955098628997803,0.9705017805099487,-0.05682981014251709,0.5244888067245483,-1.0900717973709106,0.8057549595832825,0.4960479736328125,0.6251266598701477,0.055569153279066086,0.9979898929595947,0.3183861970901489,0.6418783664703369,-0.055015381425619125,0.9974006414413452,0.48745256662368774,0.8338202238082886,0.24239268898963928,0.9830412864685059,0.33922550082206726,0.8602833151817322,0.11564566940069199,0.9697881937026978,0.4897419214248657,0.9626835584640503,0.9809585213661194,0.9352282881736755,0.35443976521492004,0.9823289513587952,0.7276752591133118,0.9120882749557495,0.47477811574935913,0.9712274670600891,1.0331807136535645,0.8371570110321045,0.3546416759490967,0.9818498492240906,0.7713879346847534,0.6444271802902222,0.531562089920044,1.0230897665023804,0.7266122102737427,0.8760029077529907,0.371438205242157,1.0687575340270996,0.39107128977775574,0.803635835647583
18112.234341056068,0.44851458072662354,0.23385709524154663,-0.830274760723114,0.9999796152114868,0.4545794129371643,0.21135932207107544,-0.7661709785461426,0.9999725818634033,0.4626585841178894,0.21066009998321533,-0.766550600528717,0.9999723434448242,0.4702417850494385,0.2098141312599182,-0.7668536305427551,0.9999750852584839,0.42330098152160645,0.2121826410293579,-0.802269697189331,0.9999557733535767,0.4054774343967438,0.211909681558609,-0.8022617697715759,0.9999419450759888,0.38608312606811523,0.21186447143554688,-0.802322268486023,0.9999229907989502,0.46202534437179565,0.2166978120803833,-0.3943050503730774,0.9999816417694092,0.33393779397010803,0.22171226143836975,-0.5695438981056213,0.999923825263977,0.45539775490760803,0.2568259835243225,-0.6898737549781799,0.9999892711639404,0.4212261140346527,0.25842732191085815,-0.7397710084915161,0.9999788999557495,0.5337347984313965,0.3490324914455414,-0.22355124354362488,0.9999663829803467,0.19452767074108124,0.3652102053165436,-0.3545887768268585,0.9989687204360962,0.5874305963516235,0.5050377249717712,-0.08735207468271255,0.9818395972251892,0.15111544728279114,0.5078161954879761,-0.48033228516578674,0.8068510890007019,0.6473551988601685,0.6338875889778137,-0.3928937315940857,0.9807037115097046,-0.007184833288192749,0.5438737869262695,-1.015028953552246,0.728417158126831,0.6654731631278992,0.67612624168396,-0.48181062936782837,0.9642735123634338,-0.05294570326805115,0.5417694449424744,-1.1204900741577148,0.7467411160469055,0.6512035131454468,0.675650417804718,-0.5841208100318909,0.9685059785842896,-0.08389845490455627,0.5306897759437561,-1.2409260272979736,0.7768829464912415,0.6405593752861023,0.665751039981842,-0.4399915933609009,0.9679144620895386,-0.04304450750350952,0.5218297243118286,-1.0818973779678345,0.788078784942627,0.49371060729026794,0.628414511680603,0.060571879148483276,0.9979559183120728,0.3183146119117737,0.6449534893035889,-0.06003778055310249,0.99739009141922,0.4881300628185272,0.8353861570358276,0.2385297566652298,0.9813979864120483,0.33996066451072693,0.8646263480186462,0.1041487455368042,0.9666037559509277,0.49032899737358093,0.9632887244224548,0.9902522563934326,0.9272593855857849,0.3578241765499115,0.9865196943283081,0.7254103422164917,0.9086021780967712,0.4761556386947632,0.9718242287635803,1.0440770387649536,0.840962290763855,0.3584149479866028,0.985763430595398,0.769774854183197,0.6440914869308472,0.5353282690048218,1.0200681686401367,0.7428712248802185,0.8665475249290466,0.372702032327652,1.070096731185913,0.38711127638816833,0.7972672581672668
18128.901007722736,0.4472492039203644,0.23188427090644836,-0.8350648880004883,0.9999693632125854,0.45358312129974365,0.20903724431991577,-0.7711601257324219,0.9999605417251587,0.4621168375015259,0.20833858847618103,-0.7715647220611572,0.9999606609344482,0.47034701704978943,0.20764431357383728,-0.7719038128852844,0.9999661445617676,0.42104774713516235,0.20943552255630493,-0.8067718744277954,0.9999325275421143,0.40266552567481995,0.20895639061927795,-0.8067641258239746,0.9999109506607056,0.38387832045555115,0.20883068442344666,-0.8068640232086182,0.9998846054077148,0.4637032449245453,0.2154064178466797,-0.3995989263057709,0.999974250793457,0.3320160210132599,0.21976730227470398,-0.570616602897644,0.9998840093612671,0.45512259006500244,0.2555617690086365,-0.694207489490509,0.9999853372573853,0.41943106055259705,0.25656867027282715,-0.7429790496826172,0.9999693632125854,0.5355590581893921,0.3493000268936157,-0.22972232103347778,0.999968409538269,0.19317859411239624,0.36361783742904663,-0.35132911801338196,0.9986342787742615,0.587234377861023,0.5058858394622803,-0.10767177492380142,0.9800880551338196,0.1429527848958969,0.5051453709602356,-0.4515124261379242,0.7852882146835327,0.6468993425369263,0.6345165967941284,-0.4212898313999176,0.9766943454742432,-0.03974509239196777,0.5433375835418701,-0.9455732107162476,0.6484497785568237,0.6646629571914673,0.6756852269172668,-0.5095890760421753,0.9577637314796448,-0.0946977436542511,0.5424590110778809,-1.0423164367675781,0.666217565536499,0.6497982740402222,0.6750208139419556,-0.61089688539505,0.9625231623649597,-0.10027477145195007,0.5275720953941345,-1.1671744585037231,0.7021152973175049,0.6394938826560974,0.6651557087898254,-0.4681371748447418,0.9616129994392395,-0.06731083989143372,0.5257718563079834,-1.0131303071975708,0.7226735353469849,0.4941891133785248,0.6276017427444458,0.05588793009519577,0.9977846741676331,0.317267507314682,0.6438607573509216,-0.05537228658795357,0.996713399887085,0.4872453212738037,0.8405594229698181,0.205520361661911,0.9802184104919434,0.3416178226470947,0.8663354516029358,0.092619389295578,0.9573963284492493,0.4903382360935211,0.9686306715011597,0.9318483471870422,0.9254357814788818,0.36014923453330994,0.9848219156265259,0.7016485929489136,0.889496922492981,0.47689783573150635,0.9755507707595825,0.9820429086685181,0.8021008372306824,0.36192449927330017,0.9842591285705566,0.7444981336593628,0.5911664366722107,0.5268886089324951,1.0307917594909668,0.6618198752403259,0.8542482256889343,0.3747548758983612,1.0743482112884521,0.35704079270362854,0.7747068405151367
18145.567674389404,0.4457519054412842,0.2327648401260376,-0.9033668637275696,0.9999816417694092,0.4524035155773163,0.2096666395664215,-0.8405431509017944,0.9999749660491943,0.4611917734146118,0.20894944667816162,-0.8409258127212524,0.9999749660491943,0.4694945216178894,0.20825204253196716,-0.8412161469459534,0.9999774694442749,0.41962960362434387,0.21024957299232483,-0.873369038105011,0.9999591112136841,0.40057140588760376,0.2101113200187683,-0.8733819723129272,0.9999469518661499,0.3816601634025574,0.21021714806556702,-0.8734533190727234,0.9999300241470337,0.4642597436904907,0.21566325426101685,-0.46795278787612915,0.9999837875366211,0.3317878842353821,0.22016996145248413,-0.6285445094108582,0.9999281167984009,0.4533647298812866,0.25636768341064453,-0.7625256776809692,0.9999903440475464,0.41743525862693787,0.2578651010990143,-0.8082180619239807,0.9999808073043823,0.537010908126831,0.34886741638183594,-0.3003242313861847,0.9999688863754272,0.192207470536232,0.3638555705547333,-0.3881092369556427,0.9988812804222107,0.5882625579833984,0.5059905648231506,-0.16972586512565613,0.9851374626159668,0.14496131241321564,0.5060749650001526,-0.4975418746471405,0.8048649430274963,0.6481064558029175,0.6371349692344666,-0.4729888439178467,0.9815770983695984,-0.01321837306022644,0.5428518056869507,-1.0296448469161987,0.7078270316123962,0.6660465598106384,0.6791104674339294,-0.5623697638511658,0.9649278521537781,-0.0563371479511261,0.5414291024208069,-1.1310211420059204,0.723237931728363,0.6523481607437134,0.6789199113845825,-0.6627181172370911,0.9689745903015137,-0.09508836269378662,0.5219985246658325,-1.255455732345581,0.7567732930183411,0.6414238214492798,0.6691039204597473,-0.5188785791397095,0.968930184841156,-0.06155550479888916,0.5204077363014221,-1.0981992483139038,0.7746121287345886,0.4941810667514801,0.6260164380073547,0.03988935053348541,0.9976295232772827,0.31687963008880615,0.6440117359161377,-0.039308808743953705,0.9968307614326477,0.48812028765678406,0.8327575325965881,0.21765631437301636,0.983376681804657,0.33878910541534424,0.8661555647850037,0.12306182086467743,0.965684175491333,0.4927026927471161,0.9606309533119202,0.9569847583770752,0.9351624250411987,0.357869952917099,0.9871701002120972,0.7321733832359314,0.908283531665802,0.4793034493923187,0.9694623947143555,1.0088167190551758,0.8380699753761292,0.36294665932655334,0.9853400588035583,0.775111734867096,0.6430020928382874,0.5340121984481812,1.022242784500122,0.6998206973075867,0.8741006851196289,0.3679577112197876,1.071090579032898,0.392229825258255,0.7986153960227966
18162.23434105607,0.4470508396625519,0.23421436548233032,-0.8523430824279785,0.9999878406524658,0.4538472294807434,0.21153178811073303,-0.7895007729530334,0.9999829530715942,0.4624168574810028,0.21093499660491943,-0.7898483276367188,0.9999833106994629,0.4702511727809906,0.21018770337104797,-0.7901183366775513,0.9999842643737793,0.421102911233902,0.21182766556739807,-0.822733998298645,0.9999732971191406,0.4026217460632324,0.2114114761352539,-0.8227341175079346,0.9999669790267944,0.38332831859588623,0.21122896671295166,-0.8227635025978088,0.9999556541442871,0.46393224596977234,0.2165711224079132,-0.41961291432380676,0.9999892711639404,0.3322862982749939,0.2205573320388794,-0.5824097394943237,0.9999569654464722,0.4541955292224884,0.25748908519744873,-0.7123004198074341,0.9999932050704956,0.41919007897377014,0.2586863040924072,-0.7587555646896362,0.9999868869781494,0.5350910425186157,0.3490063548088074,-0.2537783086299896,0.9999724626541138,0.1917591243982315,0.363739550113678,-0.3480498492717743,0.9991723299026489,0.5878575444221497,0.5054509043693542,-0.11590737849473953,0.9849875569343567,0.15221549570560455,0.5050663352012634,-0.5073720216751099,0.8233138918876648,0.6473827362060547,0.6368069052696228,-0.4093199670314789,0.9820758104324341,0.029217632487416267,0.542717456817627,-1.11392080783844,0.7743297219276428,0.6656102538108826,0.6786709427833557,-0.49644923210144043,0.966129720211029,-0.018784791231155396,0.5440690517425537,-1.227182388305664,0.7879618406295776,0.6516943573951721,0.6785628795623779,-0.5980252623558044,0.9701386094093323,-0.039187610149383545,0.5306472182273865,-1.3387718200683594,0.8136250972747803,0.6408388614654541,0.6688407063484192,-0.45516785979270935,0.9701153635978699,-0.021649956703186035,0.5173596143722534,-1.1782705783843994,0.8200828433036804,0.4938555359840393,0.6255531907081604,0.03165536746382713,0.9981282353401184,0.3158954977989197,0.6412659287452698,-0.03107411041855812,0.9975972771644592,0.486448734998703,0.8332008719444275,0.1928875595331192,0.9871532320976257,0.3398754596710205,0.8614547252655029,0.1167997196316719,0.9693074822425842,0.4900057315826416,0.9617025852203369,0.9177339673042297,0.9465925693511963,0.35703086853027344,0.9863064289093018,0.7130445241928101,0.9183100461959839,0.47584348917007446,0.9694427251815796,0.967566967010498,0.8438699245452881,0.3652450144290924,0.9844627976417542,0.7542568445205688,0.6525726914405823,0.5283864736557007,1.0290409326553345,0.6501190066337585,0.8909456729888916,0.3627612590789795,1.0710232257843018,0.3690858483314514,0.8202436566352844
18178.90100772274,0.44794052839279175,0.2345256805419922,-0.8373891711235046,0.9999871253967285,0.45384782552719116,0.21161150932312012,-0.7741281390190125,0.9999828338623047,0.46217912435531616,0.21097463369369507,-0.7744653820991516,0.9999827146530151,0.4700624644756317,0.21024510264396667,-0.7747122049331665,0.999983549118042,0.4219971299171448,0.21204683184623718,-0.8076993227005005,0.9999734163284302,0.40418872237205505,0.21160677075386047,-0.807670533657074,0.9999662637710571,0.38515838980674744,0.2114255726337433,-0.8076862096786499,0.9999542236328125,0.4623696208000183,0.21728479862213135,-0.3999097943305969,0.9999878406524658,0.3331893980503082,0.22147399187088013,-0.5645928382873535,0.9999563694000244,0.4553050398826599,0.2575691342353821,-0.6960021257400513,0.9999923706054688,0.4210663437843323,0.25910744071006775,-0.7427381277084351,0.9999854564666748,0.5358739495277405,0.3489111363887787,-0.22162052989006042,0.9999727010726929,0.19426172971725464,0.36293652653694153,-0.35279980301856995,0.9992936849594116,0.584881067276001,0.504457950592041,-0.09891972690820694,0.9830003976821899,0.15076690912246704,0.5052955746650696,-0.5369433760643005,0.8280924558639526,0.6482337713241577,0.6361244916915894,-0.4182593524456024,0.982743501663208,0.023821204900741577,0.5396537184715271,-1.1477206945419312,0.7757462859153748,0.6679205894470215,0.6783130764961243,-0.5091385841369629,0.9672666192054749,-0.05283626914024353,0.5442365407943726,-1.2649279832839966,0.7875673174858093,0.6522986888885498,0.6780039668083191,-0.6124813556671143,0.9712267518043518,-0.06349670886993408,0.5183283090591431,-1.3771851062774658,0.8130962252616882,0.6407558917999268,0.6684321761131287,-0.4663204252719879,0.9710001349449158,-0.03100794553756714,0.5161539316177368,-1.2132043838500977,0.8210741877555847,0.49592626094818115,0.6236323714256287,0.05701925978064537,0.998174786567688,0.320101261138916,0.6415327787399292,-0.056412264704704285,0.9977992177009583,0.49037572741508484,0.8312791585922241,0.22289621829986572,0.9832684397697449,0.3413664698600769,0.859184205532074,0.09139315783977509,0.9715924859046936,0.49115055799484253,0.9636701941490173,0.9129341244697571,0.9399357438087463,0.3559572398662567,0.9828742146492004,0.6705412268638611,0.9225965142250061,0.475669264793396,0.9726613163948059,0.9586548805236816,0.8567217588424683,0.37782302498817444,0.9992332458496094,0.7092676162719727,0.6753976941108704,0.5516170263290405,1.0245754718780518,0.6465144157409668,0.8821645975112915,0.3567435145378113,1.0633164644241333,0.32651087641716003,0.8214250802993774
18195.567674389407,0.44456377625465393,0.2348463535308838,-0.8031265735626221,0.9999880790710449,0.4513005316257477,0.21205657720565796,-0.7421621084213257,0.999983549118042,0.46010932326316833,0.21148931980133057,-0.7424781918525696,0.999983549118042,0.46820107102394104,0.2109965980052948,-0.7427051663398743,0.9999840259552002,0.41952475905418396,0.21200776100158691,-0.7731223106384277,0.9999758005142212,0.4010094404220581,0.2115374207496643,-0.7730915546417236,0.9999697208404541,0.3824429214000702,0.21140098571777344,-0.773098349571228,0.9999595880508423,0.46254244446754456,0.21720609068870544,-0.38002511858940125,0.9999889135360718,0.3324829936027527,0.2207658588886261,-0.5323226451873779,0.999963641166687,0.45218124985694885,0.257948637008667,-0.6663817763328552,0.9999929666519165,0.4181258976459503,0.2589500844478607,-0.7095014452934265,0.9999874830245972,0.5382657051086426,0.34877994656562805,-0.2078676074743271,0.9999692440032959,0.19341938197612762,0.3610888719558716,-0.32974132895469666,0.9994351267814636,0.5869093537330627,0.506908118724823,-0.06856685131788254,0.981869637966156,0.1507946252822876,0.5029234886169434,-0.5180820822715759,0.8459355235099792,0.6489568948745728,0.6374621391296387,-0.36538782715797424,0.9799730181694031,0.04062598943710327,0.5373826622962952,-1.1343940496444702,0.7978209853172302,0.6685810685157776,0.6788173913955688,-0.45483478903770447,0.963249683380127,-0.016179800033569336,0.5424754619598389,-1.2530587911605835,0.8071475028991699,0.6534552574157715,0.6786167621612549,-0.5572406649589539,0.9676437377929688,-0.01637566089630127,0.5285674333572388,-1.3592816591262817,0.8297988772392273,0.6418285965919495,0.6691867709159851,-0.41262105107307434,0.9681107401847839,-0.0002765059471130371,0.5118657350540161,-1.1973040103912354,0.8353391885757446,0.4964130222797394,0.6251689195632935,0.04987117648124695,0.9981968998908997,0.3197939097881317,0.6425591707229614,-0.049194641411304474,0.99802565574646,0.49008074402809143,0.8342449069023132,0.2182445526123047,0.9841294288635254,0.3400615155696869,0.8586066961288452,0.10380968451499939,0.9733411073684692,0.4913759231567383,0.964019775390625,0.9207373261451721,0.9374608993530273,0.35613781213760376,0.9843159914016724,0.6837522387504578,0.9173550009727478,0.4771929383277893,0.9728416204452515,0.9684267640113831,0.8507543206214905,0.3596023917198181,0.9850554466247559,0.7235590219497681,0.6697328090667725,0.5456845164299011,1.0276281833648682,0.6603267788887024,0.8735517263412476,0.3557020425796509,1.0662634372711182,0.3458251357078552,0.8057727217674255
18212.234341056075,0.44693028926849365,0.23463186621665955,-0.8654682040214539,0.9999829530715942,0.45206889510154724,0.2117745578289032,-0.8011479377746582,0.9999769926071167,0.4602292776107788,0.21102598309516907,-0.8014928102493286,0.9999771118164062,0.4681597352027893,0.2102126181125641,-0.8017434477806091,0.9999781847000122,0.42014163732528687,0.2119569182395935,-0.8350696563720703,0.9999629259109497,0.4024520814418793,0.21127602458000183,-0.835065484046936,0.9999523162841797,0.384143203496933,0.21092942357063293,-0.8351189494132996,0.9999344348907471,0.4600077271461487,0.21673613786697388,-0.4113914966583252,0.9999847412109375,0.33236873149871826,0.2213173806667328,-0.5767496228218079,0.9999351501464844,0.45447489619255066,0.25751417875289917,-0.7175218462944031,0.9999909400939941,0.4200223684310913,0.2593976557254791,-0.7646867036819458,0.9999814033508301,0.5347642302513123,0.34907668828964233,-0.21443766355514526,0.9999727010726929,0.19490478932857513,0.3634836673736572,-0.3539526164531708,0.9991982579231262,0.5846003890037537,0.5036523938179016,-0.0904233381152153,0.9844069480895996,0.1584356427192688,0.5046334862709045,-0.5496971011161804,0.8136155009269714,0.6483187079429626,0.6349267363548279,-0.4387381076812744,0.9847179055213928,0.030045509338378906,0.5400619506835938,-1.2057491540908813,0.7848691940307617,0.6664981842041016,0.6775652170181274,-0.5347999930381775,0.9702814221382141,-0.022145062685012817,0.5460543632507324,-1.3318759202957153,0.7996008992195129,0.6513358354568481,0.6771982312202454,-0.6417956352233887,0.9739068150520325,-0.043910592794418335,0.517647385597229,-1.4441784620285034,0.8238560557365417,0.6405057311058044,0.6679079532623291,-0.48818498849868774,0.9727399945259094,-0.012688219547271729,0.5151634812355042,-1.2717227935791016,0.8249126672744751,0.4960663318634033,0.6232344508171082,0.0645337700843811,0.9982175230979919,0.3181888163089752,0.6414745450019836,-0.06396396458148956,0.9979605674743652,0.49055787920951843,0.8289241790771484,0.21418872475624084,0.9845236539840698,0.3409421443939209,0.8626329302787781,0.05843944475054741,0.9717199802398682,0.4911895990371704,0.9591153860092163,0.9921088814735413,0.9416584372520447,0.3554905354976654,0.9878077507019043,0.689763605594635,0.9278233647346497,0.47376492619514465,0.9698299765586853,1.0464526414871216,0.8593704700469971,0.35918673872947693,0.9863940477371216,0.7325957417488098,0.6633350253105164,0.5376325845718384,1.023527979850769,0.7151934504508972,0.8927167057991028,0.3636539578437805,1.0719283819198608,0.3193705976009369,0.8385124206542969
18228.901007722743,0.4480145573616028,0.23506993055343628,-0.8861823081970215,0.9999874830245972,0.4549863338470459,0.21247047185897827,-0.8237249255180359,0.9999833106994629,0.46366333961486816,0.21197092533111572,-0.8240542411804199,0.9999833106994629,0.4715098440647125,0.21128877997398376,-0.8242940306663513,0.9999842643737793,0.4224485158920288,0.2124195098876953,-0.8574117422103882,0.9999743700027466,0.4041023552417755,0.2118159532546997,-0.8574241995811462,0.9999676942825317,0.3851277530193329,0.211491197347641,-0.8574478030204773,0.999956488609314,0.46446067094802856,0.21764510869979858,-0.4484041631221771,0.999988317489624,0.3334372341632843,0.22082623839378357,-0.6136877536773682,0.9999561309814453,0.4548197388648987,0.25844573974609375,-0.7441967129707336,0.999992847442627,0.42054447531700134,0.25928306579589844,-0.7911134362220764,0.9999862909317017,0.5374853610992432,0.34931862354278564,-0.2698676288127899,0.9999731779098511,0.1931665688753128,0.3644469976425171,-0.3901756703853607,0.999255359172821,0.586284339427948,0.5051806569099426,-0.1572539359331131,0.9860073924064636,0.1517844796180725,0.5064767003059387,-0.56642746925354,0.847444474697113,0.6492830514907837,0.636203408241272,-0.48676958680152893,0.9851979613304138,-0.0020768344402313232,0.5430538058280945,-1.174476146697998,0.7872358560562134,0.6662747263908386,0.678150475025177,-0.5801339149475098,0.9702616930007935,-0.057141002267599106,0.5335201621055603,-1.2914313077926636,0.7928382754325867,0.6517304182052612,0.6777225732803345,-0.6827493906021118,0.9739180207252502,-0.07279181480407715,0.5191831588745117,-1.4041951894760132,0.8185470700263977,0.6411067247390747,0.6683987975120544,-0.5346801280975342,0.9737012982368469,-0.040187060832977295,0.5170031785964966,-1.2402347326278687,0.827323853969574,0.495700478553772,0.6219324469566345,0.053116220980882645,0.9977355003356934,0.31873244047164917,0.6416144371032715,-0.052499979734420776,0.9973554611206055,0.4907572269439697,0.8299825191497803,0.22542785108089447,0.9839240908622742,0.34000617265701294,0.8640128374099731,0.08792542666196823,0.9728906750679016,0.49079981446266174,0.9615087509155273,0.9177711606025696,0.9436008930206299,0.35695919394493103,0.9862151145935059,0.658098042011261,0.9267881512641907,0.47422951459884644,0.9705118536949158,0.9638355374336243,0.8572428226470947,0.3611321747303009,0.985997200012207,0.6954432129859924,0.6707029342651367,0.547594428062439,1.025424838066101,0.6491858959197998,0.8931714296340942,0.36315086483955383,1.0692058801651,0.30480197072029114,0.8320424556732178
18245.56767438941,0.448268324136734,0.23390698432922363,-0.7966073751449585,0.9999769926071167,0.4527114927768707,0.21134650707244873,-0.7347596287727356,0.999969482421875,0.4606306254863739,0.21050110459327698,-0.7351183295249939,0.9999698400497437,0.468367338180542,0.20957836508750916,-0.7354241609573364,0.999971866607666,0.4214264154434204,0.21177321672439575,-0.7717418074607849,0.9999524354934692,0.40427398681640625,0.21114355325698853,-0.7717450261116028,0.9999399185180664,0.38568007946014404,0.21084246039390564,-0.7718315720558167,0.9999200105667114,0.4591875672340393,0.21612459421157837,-0.3616516590118408,0.9999804496765137,0.3331768810749054,0.2211085557937622,-0.5388786792755127,0.9999295473098755,0.45594537258148193,0.2564365565776825,-0.6538507342338562,0.9999878406524658,0.4217287302017212,0.2586563229560852,-0.7044274806976318,0.9999762773513794,0.5340807437896729,0.3475109338760376,-0.17277918756008148,0.9999687671661377,0.1928086280822754,0.3627879321575165,-0.33591577410697937,0.9992082715034485,0.5861130356788635,0.5037115216255188,-0.04319237545132637,0.9800183176994324,0.14917556941509247,0.5057461261749268,-0.5103895664215088,0.843818724155426,0.6477601528167725,0.6341282725334167,-0.35816431045532227,0.9793841242790222,-0.019606709480285645,0.5457972884178162,-1.0912779569625854,0.78330397605896,0.6649104356765747,0.6772047877311707,-0.4447362720966339,0.9615413546562195,-0.06280198693275452,0.5359708666801453,-1.203627109527588,0.790833055973053,0.6498193144798279,0.6768366098403931,-0.5498084425926208,0.9662351608276367,-0.07769158482551575,0.5229586362838745,-1.3201720714569092,0.8166435360908508,0.6397508382797241,0.6671597957611084,-0.4067932665348053,0.9653940200805664,-0.04476776719093323,0.5208668112754822,-1.1574147939682007,0.8234899640083313,0.49589070677757263,0.6264435648918152,0.06611450761556625,0.9978711605072021,0.3215767443180084,0.6449917554855347,-0.0654943436384201,0.997623860836029,0.48797154426574707,0.8380783200263977,0.2121463268995285,0.9834325909614563,0.34301653504371643,0.864284873008728,0.06479613482952118,0.9632313847541809,0.492799311876297,0.9653539657592773,0.9383369088172913,0.9281452298164368,0.35780802369117737,0.9888878464698792,0.6644275188446045,0.8991819620132446,0.4800567030906677,0.9726759195327759,0.9881361722946167,0.8196545839309692,0.3781251609325409,1.0102181434631348,0.7053009271621704,0.5991573333740234,0.5422642230987549,1.0334501266479492,0.6640329360961914,0.856809139251709,0.36418023705482483,1.0764063596725464,0.3047470152378082,0.7814121842384338
18262.23434105608,0.44931894540786743,0.23544788360595703,-0.8143249750137329,0.9999853372573853,0.45510733127593994,0.21258994936943054,-0.7522294521331787,0.9999806880950928,0.4633500576019287,0.21197578310966492,-0.752589762210846,0.9999804496765137,0.4711324870586395,0.21118414402008057,-0.7528542876243591,0.9999819993972778,0.42294538021087646,0.21266824007034302,-0.7867836952209473,0.9999699592590332,0.40499842166900635,0.21193328499794006,-0.786757230758667,0.9999608993530273,0.3856152594089508,0.2115025818347931,-0.7867986559867859,0.999948263168335,0.4620228409767151,0.21771565079689026,-0.3817305564880371,0.9999864101409912,0.33260390162467957,0.2212531864643097,-0.5503381490707397,0.9999502897262573,0.4556269943714142,0.2587226927280426,-0.6737832427024841,0.9999909400939941,0.4216524362564087,0.2601780593395233,-0.7216940522193909,0.9999825954437256,0.5352685451507568,0.3483908176422119,-0.20838361978530884,0.999970555305481,0.19517767429351807,0.3614541292190552,-0.3413991332054138,0.9992358684539795,0.5838140249252319,0.5048646330833435,-0.0858461782336235,0.9812373518943787,0.15261322259902954,0.5059216022491455,-0.5083010196685791,0.8253549337387085,0.6475472450256348,0.6374788880348206,-0.39359810948371887,0.98073810338974,-0.024335116147994995,0.5447525978088379,-1.084326982498169,0.7630503177642822,0.6660317182540894,0.6805382966995239,-0.4810996353626251,0.9640651941299438,-0.06703698635101318,0.5357198119163513,-1.194836974143982,0.7756667733192444,0.6500861644744873,0.6799673438072205,-0.5841139554977417,0.9682083129882812,-0.0837526023387909,0.5230133533477783,-1.3128807544708252,0.8032961487770081,0.6383242607116699,0.6705052852630615,-0.44109097123146057,0.9680464267730713,-0.049259334802627563,0.5212396383285522,-1.1515166759490967,0.8139997124671936,0.49416401982307434,0.6272033452987671,0.05671967938542366,0.9979921579360962,0.3169216513633728,0.6443823575973511,-0.05606723576784134,0.9976298809051514,0.48965907096862793,0.8340836763381958,0.2307133972644806,0.984451413154602,0.34061485528945923,0.8666787147521973,0.09674688428640366,0.9718019366264343,0.492657870054245,0.9625670313835144,0.9120232462882996,0.9399564862251282,0.35702377557754517,0.9878455400466919,0.6669514775276184,0.9207772016525269,0.4772380590438843,0.9719018936157227,0.9573479890823364,0.8566744923591614,0.3620118796825409,0.9872130155563354,0.705335795879364,0.6684029698371887,0.550885796546936,1.0277074575424194,0.6496039628982544,0.8779851198196411,0.3570629954338074,1.0685489177703857,0.3258276879787445,0.812957227230072
18278.901007722747,0.4472469389438629,0.23523658514022827,-0.8077566027641296,0.9999841451644897,0.4547269344329834,0.21248695254325867,-0.7446804642677307,0.9999786615371704,0.46329057216644287,0.21200603246688843,-0.7450311779975891,0.9999790191650391,0.4710509777069092,0.21142280101776123,-0.7453305721282959,0.9999793767929077,0.4222685694694519,0.2125352919101715,-0.7786604166030884,0.999967098236084,0.4040786623954773,0.21208447217941284,-0.7786585092544556,0.9999593496322632,0.38515767455101013,0.21193459630012512,-0.778702437877655,0.9999449253082275,0.46390292048454285,0.218284010887146,-0.36582908034324646,0.9999868869781494,0.33362749218940735,0.221775621175766,-0.5312479138374329,0.999954104423523,0.4533846080303192,0.258870393037796,-0.6634315848350525,0.9999918937683105,0.41895443201065063,0.2595244348049164,-0.710615873336792,0.9999847412109375,0.5351711511611938,0.3490939140319824,-0.17198961973190308,0.999968409538269,0.19286565482616425,0.3635648787021637,-0.31863856315612793,0.9993345141410828,0.5852441787719727,0.5050855875015259,-0.022124512121081352,0.97906893491745,0.15133608877658844,0.5039846897125244,-0.5136873126029968,0.8295156359672546,0.6462664604187012,0.6353920102119446,-0.33371496200561523,0.9770442843437195,0.032056570053100586,0.5372315645217896,-1.1584337949752808,0.787516176700592,0.6644765138626099,0.6777515411376953,-0.4236084222793579,0.9590243697166443,-0.022400200366973877,0.5411920547485352,-1.2827956676483154,0.8010514974594116,0.6493220925331116,0.6773827075958252,-0.529570996761322,0.9639959335327148,-0.019708305597305298,0.5267022848129272,-1.3888814449310303,0.8243202567100525,0.6383140087127686,0.6680665016174316,-0.3823882043361664,0.9633934497833252,-0.00011605024337768555,0.5130860805511475,-1.2214957475662231,0.8263609409332275,0.4959913492202759,0.6276898980140686,0.05579746514558792,0.9979090690612793,0.3191586136817932,0.6453341245651245,-0.05515902861952782,0.9976593255996704,0.4893254339694977,0.8373688459396362,0.20315101742744446,0.9825068116188049,0.3415982723236084,0.8675972819328308,0.07262492179870605,0.9633387327194214,0.49521902203559875,0.9662600159645081,0.9629130959510803,0.9199489951133728,0.3613237142562866,0.9917051196098328,0.685131311416626,0.8929087519645691,0.4827614426612854,0.9733439087867737,1.01610267162323,0.8058210611343384,0.383332759141922,1.012990117073059,0.7274094223976135,0.5966743230819702,0.5418906807899475,1.0358004570007324,0.6908577084541321,0.8429079651832581,0.3649372160434723,1.079818606376648,0.3234451115131378,0.7686153650283813
18295.567674389415,0.45092830061912537,0.23327061533927917,-0.781678318977356,0.9999831914901733,0.455304890871048,0.21117782592773438,-0.7186889052391052,0.9999775886535645,0.46322792768478394,0.21033930778503418,-0.7190083861351013,0.9999773502349854,0.47059911489486694,0.20949813723564148,-0.7192528247833252,0.9999780654907227,0.42366665601730347,0.21133124828338623,-0.7564547061920166,0.9999669790267944,0.4066515266895294,0.21058836579322815,-0.7564461827278137,0.9999585151672363,0.38779640197753906,0.21020519733428955,-0.7564877271652222,0.9999446868896484,0.4601272642612457,0.21594005823135376,-0.348928838968277,0.9999840259552002,0.3376597464084625,0.21952685713768005,-0.5312491655349731,0.9999505281448364,0.4573237895965576,0.2553281784057617,-0.6415315270423889,0.9999904632568359,0.42353636026382446,0.2575519382953644,-0.6934154629707336,0.9999834299087524,0.5341781377792358,0.3482445776462555,-0.16262122988700867,0.9999641180038452,0.19513154029846191,0.36140722036361694,-0.3409777879714966,0.9993405938148499,0.5840871930122375,0.5051385760307312,-0.026447974145412445,0.977562665939331,0.15490785241127014,0.5039783716201782,-0.5321795344352722,0.845054566860199,0.6455575227737427,0.6354020833969116,-0.33608171343803406,0.9775961637496948,0.02399289608001709,0.5391302108764648,-1.1220643520355225,0.7957987189292908,0.665924608707428,0.6776101589202881,-0.4210883677005768,0.9592331647872925,-0.03093191795051098,0.5422042012214661,-1.2373385429382324,0.8046584725379944,0.653905987739563,0.6777334809303284,-0.5255622267723083,0.9643046855926514,-0.043660759925842285,0.513333797454834,-1.343359351158142,0.8271397352218628,0.6431701183319092,0.668341875076294,-0.38471442461013794,0.9642428159713745,-0.013930708169937134,0.5113353729248047,-1.183681607246399,0.8293153643608093,0.49479585886001587,0.622287392616272,0.07604723423719406,0.9979092478752136,0.3202316164970398,0.6408398747444153,-0.07552257925271988,0.9977391958236694,0.4880484938621521,0.8286632895469666,0.22490094602108002,0.9839110374450684,0.3431335687637329,0.8591112494468689,0.05557115375995636,0.9739012718200684,0.49174728989601135,0.9642353057861328,0.9224517941474915,0.9445681571960449,0.35964447259902954,0.9874378442764282,0.6329523921012878,0.9320477843284607,0.4765594005584717,0.9745218753814697,0.9691263437271118,0.8605972528457642,0.3798108398914337,1.005428671836853,0.6710971593856812,0.6778430342674255,0.5546384453773499,1.0269516706466675,0.6531355977058411,0.8940475583076477,0.3717452883720398,1.071481704711914,0.2768782675266266,0.8414553999900818
18312.234341056082,0.45193812251091003,0.23456257581710815,-0.8363205194473267,0.9999849796295166,0.45756861567497253,0.21187296509742737,-0.7712826132774353,0.9999804496765137,0.46563881635665894,0.21133935451507568,-0.7716155052185059,0.9999803304672241,0.4732571542263031,0.2106097936630249,-0.7718425989151001,0.9999814033508301,0.42590466141700745,0.2119068205356598,-0.8067178130149841,0.9999699592590332,0.4082305431365967,0.21114251017570496,-0.806717574596405,0.9999614953994751,0.38870373368263245,0.21073687076568604,-0.8067477941513062,0.9999476671218872,0.46406659483909607,0.21734464168548584,-0.3931827247142792,0.9999856948852539,0.3353736698627472,0.22057077288627625,-0.5663958191871643,0.9999485015869141,0.45803794264793396,0.25764000415802,-0.694280743598938,0.9999911785125732,0.42474520206451416,0.25888603925704956,-0.7434189319610596,0.9999834299087524,0.537676990032196,0.3505965769290924,-0.2151293307542801,0.9999687671661377,0.1952880471944809,0.36312761902809143,-0.36599794030189514,0.9992284774780273,0.5825334787368774,0.5062155723571777,-0.10587012022733688,0.9819820523262024,0.15025971829891205,0.5063433647155762,-0.5628117918968201,0.8307967782020569,0.646467924118042,0.6381343603134155,-0.44011542201042175,0.9823877215385437,-0.008664637804031372,0.5420538783073425,-1.1731016635894775,0.7610220909118652,0.663780152797699,0.6806753873825073,-0.5319883823394775,0.9663178324699402,-0.06185925006866455,0.5438786149024963,-1.291237711906433,0.7714381217956543,0.6488876342773438,0.6800375580787659,-0.634860098361969,0.9704042673110962,-0.06728875637054443,0.5177306532859802,-1.3999100923538208,0.7979567646980286,0.637710690498352,0.6706262826919556,-0.4883809983730316,0.9700531363487244,-0.0355553925037384,0.5156763792037964,-1.2371922731399536,0.8066757321357727,0.49474048614501953,0.6245691776275635,0.0697658583521843,0.9979543685913086,0.3197179436683655,0.6427876949310303,-0.06918533146381378,0.9977526068687439,0.4906092584133148,0.8319200873374939,0.2495098114013672,0.9803624749183655,0.3416222631931305,0.8601316809654236,0.07623155415058136,0.9710015058517456,0.4905133545398712,0.961634635925293,0.9464444518089294,0.9377588033676147,0.3580304980278015,0.9831844568252563,0.6559192538261414,0.9252367615699768,0.4751528799533844,0.9716230630874634,0.9931764006614685,0.859249472618103,0.3752008080482483,1.0025112628936768,0.6941511034965515,0.6776036024093628,0.5561997294425964,1.0227863788604736,0.6835671663284302,0.886307954788208,0.3634192943572998,1.0671846866607666,0.3052135705947876,0.8288921117782593
18328.90100772275,0.4459364116191864,0.2358321249485016,-0.867141842842102,0.9999861717224121,0.4536329209804535,0.21256929636001587,-0.8050754070281982,0.9999814033508301,0.46257326006889343,0.21195435523986816,-0.8053920865058899,0.9999808073043823,0.47052228450775146,0.21130555868148804,-0.805611252784729,0.999981164932251,0.42138347029685974,0.2126547396183014,-0.8373582363128662,0.9999724626541138,0.4027618169784546,0.21220141649246216,-0.8373589515686035,0.9999649524688721,0.3834660053253174,0.212022602558136,-0.8373813033103943,0.9999529123306274,0.46539172530174255,0.21693626046180725,-0.4273880422115326,0.9999864101409912,0.33234310150146484,0.22102442383766174,-0.5870130658149719,0.9999587535858154,0.4539763927459717,0.2586166262626648,-0.7240790724754333,0.9999922513961792,0.4185446500778198,0.25987839698791504,-0.7692510485649109,0.9999866485595703,0.5407121181488037,0.34853124618530273,-0.23501154780387878,0.9999669790267944,0.1925879865884781,0.3629300892353058,-0.3774716258049011,0.9994316697120667,0.583547055721283,0.506028413772583,-0.09465894103050232,0.9811175465583801,0.15435998141765594,0.5080972909927368,-0.570638120174408,0.8514631986618042,0.6456464529037476,0.637809693813324,-0.41528335213661194,0.982110321521759,0.031140446662902832,0.5419245362281799,-1.1971765756607056,0.8056414723396301,0.6653668880462646,0.6797521114349365,-0.5092467665672302,0.9666796326637268,-0.021493911743164062,0.5465124845504761,-1.3210734128952026,0.8132721781730652,0.6504685878753662,0.6796202659606934,-0.614978551864624,0.9706600308418274,-0.020309895277023315,0.5316457748413086,-1.4274637699127197,0.8355370163917542,0.6383224725723267,0.6705147624015808,-0.46416497230529785,0.9705774784088135,-0.003423750400543213,0.5125787854194641,-1.260354995727539,0.8396706581115723,0.49754855036735535,0.6254340410232544,0.06608746945858002,0.9982298016548157,0.3187318444252014,0.64438796043396,-0.06543728709220886,0.9982143640518188,0.488847017288208,0.8337356448173523,0.26973477005958557,0.9825833439826965,0.34200382232666016,0.8670481443405151,0.09774711728096008,0.9759835600852966,0.489609956741333,0.9615992903709412,1.0247888565063477,0.9380250573158264,0.3588561713695526,0.9878371357917786,0.7055996060371399,0.9297525882720947,0.47287455201148987,0.9718766808509827,1.078318476676941,0.8724256157875061,0.3635254502296448,0.987515389919281,0.7477237582206726,0.7004770040512085,0.5542624592781067,1.0242745876312256,0.7719836831092834,0.8848803043365479,0.3627619743347168,1.0702952146530151,0.35561755299568176,0.829334557056427
18345.56767438942,0.4482074975967407,0.23494938015937805,-0.8539779782295227,0.9999781847000122,0.45490404963493347,0.21257910132408142,-0.793795108795166,0.9999712705612183,0.4633740484714508,0.21210458874702454,-0.7941645383834839,0.9999715089797974,0.47092971205711365,0.21154195070266724,-0.7944608926773071,0.9999747276306152,0.4230172634124756,0.2126530408859253,-0.8278491497039795,0.9999537467956543,0.40440472960472107,0.21226003766059875,-0.8278504610061646,0.9999397993087769,0.3848520517349243,0.21211853623390198,-0.8279223442077637,0.9999220371246338,0.46493494510650635,0.2176377773284912,-0.4299059808254242,0.9999815225601196,0.33414971828460693,0.2210996448993683,-0.5943202972412109,0.9999207258224487,0.45522841811180115,0.25790032744407654,-0.7151888012886047,0.9999887943267822,0.4212868809700012,0.259016752243042,-0.762024998664856,0.9999778270721436,0.5403115749359131,0.3482763469219208,-0.26219964027404785,0.9999697208404541,0.19335725903511047,0.361433744430542,-0.3709762394428253,0.998994767665863,0.587874174118042,0.5056376457214355,-0.1415102332830429,0.9825916290283203,0.1505119800567627,0.5064731240272522,-0.4942794144153595,0.8033878803253174,0.647651195526123,0.6371257901191711,-0.44765105843544006,0.9771818518638611,-0.01662793755531311,0.5455902814865112,-1.0201958417892456,0.6767377257347107,0.6652904748916626,0.6796027421951294,-0.5365239977836609,0.9576517343521118,-0.06275045871734619,0.5463322401046753,-1.121700406074524,0.6935060024261475,0.6513501405715942,0.6791789531707764,-0.6365094184875488,0.9625880122184753,-0.0935823917388916,0.5314319133758545,-1.2426902055740356,0.728283703327179,0.640643835067749,0.6690311431884766,-0.4939931631088257,0.9626913070678711,-0.046683430671691895,0.5230768918991089,-1.0872421264648438,0.7471126317977905,0.4951421916484833,0.6254748702049255,0.0495784766972065,0.9975261092185974,0.31739699840545654,0.6416733860969543,-0.04895462468266487,0.9968095421791077,0.4893748164176941,0.835507869720459,0.2062520980834961,0.9832457304000854,0.3426860570907593,0.8586428165435791,0.09334639459848404,0.9685066342353821,0.4917573034763336,0.967091977596283,0.9075368642807007,0.9349158406257629,0.35854479670524597,0.9836933016777039,0.6711912751197815,0.9091684222221375,0.4783826172351837,0.974433183670044,0.9550542235374451,0.8241226673126221,0.3591744601726532,0.9833085536956787,0.7107537388801575,0.6329341530799866,0.541858434677124,1.0296863317489624,0.6408395171165466,0.8700656890869141,0.3683898448944092,1.0701706409454346,0.3282778561115265,0.7986607551574707
18362.234341056086,0.4497089385986328,0.23661771416664124,-0.9345242381095886,0.9999914169311523,0.45762011408805847,0.21315208077430725,-0.8757275938987732,0.9999872446060181,0.46560534834861755,0.2124943733215332,-0.8759716153144836,0.999987006187439,0.4726913273334503,0.21219205856323242,-0.8761239051818848,0.9999871253967285,0.42648807168006897,0.21290484070777893,-0.9084710478782654,0.9999822378158569,0.4091363251209259,0.21211877465248108,-0.9085113406181335,0.9999783039093018,0.38937678933143616,0.21176475286483765,-0.9084869027137756,0.999970555305481,0.4640800654888153,0.21724861860275269,-0.5026553869247437,0.9999897480010986,0.33610713481903076,0.21959564089775085,-0.6659577488899231,0.9999707937240601,0.4556025564670563,0.2581773102283478,-0.7922244071960449,0.999994158744812,0.42207762598991394,0.2599985599517822,-0.8385037183761597,0.9999905824661255,0.5382803678512573,0.3467526137828827,-0.31426504254341125,0.9999752044677734,0.19286362826824188,0.36030668020248413,-0.43811020255088806,0.9995409250259399,0.5858681797981262,0.5025364756584167,-0.17799609899520874,0.9872238636016846,0.15098750591278076,0.5046212673187256,-0.6127103567123413,0.8891131281852722,0.645199179649353,0.6361561417579651,-0.4733271300792694,0.9875940680503845,0.034042686223983765,0.5370259881019592,-1.1932435035705566,0.826287031173706,0.6625992059707642,0.6784961223602295,-0.5608576536178589,0.974082350730896,-0.02022343873977661,0.5420591235160828,-1.3087941408157349,0.821575939655304,0.6479741334915161,0.6784894466400146,-0.663479208946228,0.9771466851234436,-0.019385486841201782,0.5268223881721497,-1.4140969514846802,0.8430290818214417,0.6364054679870605,0.6685664057731628,-0.5201065540313721,0.9773045778274536,0.015043824911117554,0.5245882272720337,-1.2550718784332275,0.8491954803466797,0.49583566188812256,0.6201220154762268,0.05507267639040947,0.9981309771537781,0.31910812854766846,0.6379675269126892,-0.054486364126205444,0.9981004595756531,0.49060148000717163,0.820223867893219,0.2662545144557953,0.9864516258239746,0.3416524827480316,0.8532872796058655,0.09791995584964752,0.9832178354263306,0.4899742603302002,0.9579369425773621,0.9197551608085632,0.9621763229370117,0.35735708475112915,0.9850567579269409,0.62990403175354,0.956973671913147,0.47132813930511475,0.9704282283782959,0.9628776907920837,0.9026167988777161,0.3625650405883789,0.9867808222770691,0.6632483601570129,0.7524339556694031,0.5436084866523743,1.0222253799438477,0.6595713496208191,0.9332760572433472,0.36190545558929443,1.0690741539001465,0.2771279215812683,0.8937550783157349
18378.901007722754,0.4479542374610901,0.23359602689743042,-0.9295159578323364,0.99998939037323,0.4554351568222046,0.21112704277038574,-0.868182361125946,0.999984860420227,0.4641323983669281,0.21068397164344788,-0.8684605956077576,0.999984622001648,0.47179293632507324,0.210120290517807,-0.8686197400093079,0.9999849796295166,0.4223687946796417,0.21090352535247803,-0.9010752439498901,0.9999780654907227,0.4042154848575592,0.21029365062713623,-0.9011107087135315,0.9999727010726929,0.3852585554122925,0.20993128418922424,-0.9011165499687195,0.9999631643295288,0.4652949869632721,0.21585971117019653,-0.4891118109226227,0.9999879598617554,0.3361455500125885,0.21814459562301636,-0.6516268849372864,0.9999635219573975,0.45490747690200806,0.2562688887119293,-0.7860797643661499,0.9999935626983643,0.42048728466033936,0.2573627829551697,-0.8320755362510681,0.9999889135360718,0.5384969115257263,0.34695684909820557,-0.2919122874736786,0.9999717473983765,0.19364681839942932,0.35872015357017517,-0.4299299418926239,0.9995028972625732,0.5858885049819946,0.5042464137077332,-0.16528213024139404,0.9855271577835083,0.1539705991744995,0.5015208125114441,-0.5979443788528442,0.8803465366363525,0.6422561407089233,0.6368300914764404,-0.4926292896270752,0.9857620000839233,0.03853997588157654,0.5389171838760376,-1.1947723627090454,0.8263344168663025,0.6611549854278564,0.6777256727218628,-0.5865891575813293,0.970955491065979,-0.020867586135864258,0.5439088940620422,-1.3144854307174683,0.825324296951294,0.647160530090332,0.6779116988182068,-0.6926385164260864,0.9744319319725037,-0.045018136501312256,0.5287110805511475,-1.426863193511963,0.8475679755210876,0.6352555751800537,0.6684743762016296,-0.5418627858161926,0.9744123816490173,-0.009049326181411743,0.5291575193405151,-1.2599629163742065,0.8538917899131775,0.4955299198627472,0.6179410815238953,0.06722359359264374,0.9980635046958923,0.32139647006988525,0.6369196772575378,-0.06661158800125122,0.998145341873169,0.4909818172454834,0.8213115334510803,0.27438685297966003,0.985813319683075,0.34114742279052734,0.8521841764450073,0.0684979259967804,0.9827305674552917,0.489047110080719,0.9574930667877197,0.9592572450637817,0.9593993425369263,0.35685527324676514,0.9837186336517334,0.6130723357200623,0.9526934623718262,0.4699528217315674,0.9699928760528564,1.0043431520462036,0.8979886174201965,0.3613707721233368,0.9849940538406372,0.6466365456581116,0.7365137934684753,0.5425852537155151,1.020850419998169,0.6892579197883606,0.9254015684127808,0.3635120987892151,1.068026065826416,0.2452627271413803,0.8824195265769958
18395.567674389422,0.4482945501804352,0.23522725701332092,-0.9467368721961975,0.9999898672103882,0.45596686005592346,0.21179500222206116,-0.8875280618667603,0.9999849796295166,0.464420884847641,0.21119192242622375,-0.8877764344215393,0.999984622001648,0.4719083607196808,0.21083107590675354,-0.887932300567627,0.999984622001648,0.4241953492164612,0.21167609095573425,-0.9202138185501099,0.9999794960021973,0.4064798951148987,0.21100956201553345,-0.9202520251274109,0.9999746084213257,0.3871680200099945,0.21081379055976868,-0.9202443361282349,0.9999657869338989,0.46451568603515625,0.21656963229179382,-0.5104209184646606,0.9999878406524658,0.33585137128829956,0.21915575861930847,-0.6726559996604919,0.9999666213989258,0.45509058237075806,0.25711026787757874,-0.80290687084198,0.999993085861206,0.420734167098999,0.2586035430431366,-0.8488443493843079,0.9999891519546509,0.5398317575454712,0.346699059009552,-0.31002381443977356,0.9999692440032959,0.19212482869625092,0.3598172962665558,-0.44794267416000366,0.9995357990264893,0.5855156183242798,0.5032193660736084,-0.1728382557630539,0.9852020144462585,0.15135452151298523,0.5054787397384644,-0.625230073928833,0.8888236284255981,0.6449940204620361,0.6383933424949646,-0.4805910587310791,0.9855673313140869,0.04000517725944519,0.5374144911766052,-1.2128973007202148,0.8392535448074341,0.6627378463745117,0.6809700131416321,-0.5702362656593323,0.970533549785614,-0.0206853449344635,0.543310284614563,-1.3316338062286377,0.8352203965187073,0.648798942565918,0.680700421333313,-0.6748771667480469,0.9740028977394104,-0.021360009908676147,0.5291845202445984,-1.4376990795135498,0.8554432988166809,0.6373974084854126,0.6705535650253296,-0.5287788510322571,0.9743994474411011,0.01249086856842041,0.5276086330413818,-1.2751761674880981,0.8595377802848816,0.4951729476451874,0.6206467151641846,0.0627216026186943,0.9979957342147827,0.31835389137268066,0.6383756995201111,-0.06212470307946205,0.9981702566146851,0.4905034005641937,0.8212845325469971,0.28564050793647766,0.9860625863075256,0.34131520986557007,0.8544881343841553,0.08994270116090775,0.9840770363807678,0.4909495413303375,0.9528886675834656,0.9694623351097107,0.9606971740722656,0.3553061783313751,0.9864765405654907,0.6357147097587585,0.9581809639930725,0.47263818979263306,0.9672915935516357,1.0155296325683594,0.9040732383728027,0.3616611063480377,0.9877331852912903,0.6702671647071838,0.7592316269874573,0.5595631003379822,1.016413927078247,0.7107118368148804,0.93071049451828,0.3610873520374298,1.0689911842346191,0.2761175334453583,0.8941380977630615
18412.23434105609,0.44963130354881287,0.2345193326473236,-0.9184927940368652,0.9999903440475464,0.4567531645298004,0.21138182282447815,-0.8563873767852783,0.9999860525131226,0.4652857482433319,0.2109634280204773,-0.8566737771034241,0.9999860525131226,0.47277823090553284,0.2105151116847992,-0.8568595051765442,0.9999866485595703,0.42433395981788635,0.2110426127910614,-0.8882327675819397,0.9999784231185913,0.40613123774528503,0.21031448245048523,-0.8882336616516113,0.9999724626541138,0.38671180605888367,0.2099095582962036,-0.8882221579551697,0.9999619722366333,0.4656078815460205,0.21620792150497437,-0.47981128096580505,0.9999895095825195,0.3351731300354004,0.21838277578353882,-0.6390356421470642,0.9999603033065796,0.4559004008769989,0.25745639204978943,-0.7763462662696838,0.9999938011169434,0.422035276889801,0.2584746479988098,-0.8214377164840698,0.999988317489624,0.5385440587997437,0.34830448031425476,-0.3054649233818054,0.9999769926071167,0.19310234487056732,0.36003249883651733,-0.4089180827140808,0.999366819858551,0.5873600244522095,0.5052652359008789,-0.18265798687934875,0.9872555732727051,0.15087933838367462,0.5030491352081299,-0.5746395587921143,0.8429562449455261,0.6463429927825928,0.6396088600158691,-0.4974624216556549,0.9880335927009583,0.027291834354400635,0.5412618517875671,-1.1630162000656128,0.7754120230674744,0.6627228260040283,0.6817300915718079,-0.5900259017944336,0.9756411910057068,-0.02449166774749756,0.545330822467804,-1.2787576913833618,0.7815108895301819,0.6471860408782959,0.6810880899429321,-0.6939159035682678,0.9784786701202393,-0.049028635025024414,0.5291392803192139,-1.3893872499465942,0.8068862557411194,0.6359135508537292,0.6715219020843506,-0.5447688698768616,0.9781318306922913,-0.020766109228134155,0.5181684494018555,-1.2276127338409424,0.8165234923362732,0.494834840297699,0.6231197118759155,0.0515478141605854,0.9984087347984314,0.31687578558921814,0.6397508978843689,-0.05095401778817177,0.9982094764709473,0.4901142120361328,0.8247401714324951,0.2570323646068573,0.985093355178833,0.33884841203689575,0.8583785891532898,0.11208624392747879,0.9800971150398254,0.48882168531417847,0.9554404020309448,0.9525096416473389,0.9563146829605103,0.3566873073577881,0.9847118258476257,0.6891534924507141,0.9494673609733582,0.4701446294784546,0.9695422053337097,0.9995153546333313,0.8965791463851929,0.3633071482181549,0.9869670867919922,0.7271015048027039,0.7424131631851196,0.5569709539413452,1.0169618129730225,0.6956612467765808,0.9212595224380493,0.35313230752944946,1.063920259475708,0.3453027904033661,0.8777162432670593
18428.901007722758,0.4500488340854645,0.2352997064590454,-0.885442852973938,0.999987006187439,0.45606619119644165,0.21201154589653015,-0.8238299489021301,0.9999828338623047,0.4644211232662201,0.21136337518692017,-0.8241502046585083,0.9999827146530151,0.4719788432121277,0.21061190962791443,-0.8243700861930847,0.999983549118042,0.42400118708610535,0.21220433712005615,-0.8568709492683411,0.9999736547470093,0.40591126680374146,0.211615651845932,-0.8568679690361023,0.9999662637710571,0.3863540589809418,0.21128609776496887,-0.8568892478942871,0.9999545812606812,0.463886559009552,0.2164176106452942,-0.4528707265853882,0.9999879598617554,0.3352179229259491,0.22026517987251282,-0.6155837774276733,0.9999560117721558,0.45649126172065735,0.2579402029514313,-0.7452744841575623,0.9999924898147583,0.42292189598083496,0.25960293412208557,-0.7913454174995422,0.9999860525131226,0.541705310344696,0.3496919274330139,-0.28175896406173706,0.9999721050262451,0.19340932369232178,0.3639441430568695,-0.40021735429763794,0.9992695450782776,0.5858566164970398,0.5069531798362732,-0.16215617954730988,0.9839169383049011,0.1423058807849884,0.5090861916542053,-0.5739180445671082,0.861656904220581,0.6475358009338379,0.6406567096710205,-0.4692409038543701,0.9834008812904358,-0.020442664623260498,0.5442860722541809,-1.1530617475509644,0.7786697745323181,0.6635889410972595,0.6821108460426331,-0.5584088563919067,0.9674471020698547,-0.06230589747428894,0.5355665683746338,-1.2652479410171509,0.7798778414726257,0.6488840579986572,0.6815473437309265,-0.6585230827331543,0.9712918996810913,-0.07771885395050049,0.5211251974105835,-1.3750262260437012,0.806450366973877,0.6374680995941162,0.6721657514572144,-0.5154659748077393,0.9715168476104736,-0.04556375741958618,0.5190114378929138,-1.217252254486084,0.8187165260314941,0.49695637822151184,0.6255720853805542,0.05431303754448891,0.998090922832489,0.31724783778190613,0.6451478600502014,-0.053661953657865524,0.9977446794509888,0.48924070596694946,0.83200603723526,0.23819777369499207,0.9829376339912415,0.33949634432792664,0.8665748238563538,0.10872173309326172,0.973666250705719,0.4921525716781616,0.9612579345703125,0.9581878185272217,0.9411280155181885,0.3569670617580414,0.9865986108779907,0.7061121463775635,0.9257099032402039,0.47517943382263184,0.9718053936958313,1.0083794593811035,0.8673178553581238,0.3630899488925934,0.9861635565757751,0.7478199601173401,0.680809497833252,0.5576829314231873,1.0259493589401245,0.7061953544616699,0.8897244930267334,0.36196985840797424,1.0693531036376953,0.368656724691391,0.8251432180404663
18445.567674389426,0.45061054825782776,0.2333037257194519,-0.7808305621147156,0.9999884366989136,0.4574640095233917,0.21037372946739197,-0.7182799577713013,0.9999839067459106,0.4656694829463959,0.20996078848838806,-0.7185943126678467,0.9999837875366211,0.4730411469936371,0.20954111218452454,-0.7188162803649902,0.9999839067459106,0.4252474904060364,0.21014246344566345,-0.7533923387527466,0.9999767541885376,0.40791553258895874,0.20947492122650146,-0.7533812522888184,0.9999709129333496,0.38870733976364136,0.2090962529182434,-0.7534019947052002,0.999961256980896,0.46476560831069946,0.21570560336112976,-0.3545328676700592,0.999988317489624,0.3379420340061188,0.21788424253463745,-0.5269286036491394,0.9999657869338989,0.4565674066543579,0.25632578134536743,-0.6439222693443298,0.999992847442627,0.4235769510269165,0.2571825683116913,-0.692740261554718,0.9999878406524658,0.5389268398284912,0.34818321466445923,-0.18092961609363556,0.9999628067016602,0.1928354799747467,0.36225470900535583,-0.3403259217739105,0.9994959831237793,0.584533154964447,0.5065844058990479,-0.03722703456878662,0.9774004817008972,0.15195833146572113,0.504606306552887,-0.5200845003128052,0.8841830492019653,0.6428219079971313,0.6407254338264465,-0.3293263018131256,0.9791121482849121,0.023061901330947876,0.5458817481994629,-1.1043775081634521,0.8520829081535339,0.6614181995391846,0.6814645528793335,-0.41629377007484436,0.9616827964782715,-0.02804100513458252,0.5466378927230835,-1.2214418649673462,0.8532677292823792,0.6471381187438965,0.6816291213035583,-0.5194984674453735,0.9661251902580261,-0.026505231857299805,0.5320504903793335,-1.3270937204360962,0.871473491191864,0.6344413757324219,0.6725647449493408,-0.3771212100982666,0.966945469379425,0.00420042872428894,0.5313001871109009,-1.1665140390396118,0.8744666576385498,0.49518129229545593,0.628618597984314,0.06747885793447495,0.9980679154396057,0.31648939847946167,0.6449460387229919,-0.06679168343544006,0.9981661438941956,0.48799046874046326,0.8375369906425476,0.22851550579071045,0.982124924659729,0.3356972634792328,0.8691856265068054,0.06388982385396957,0.9743647575378418,0.490629106760025,0.9581159949302673,0.9706426858901978,0.9279921054840088,0.35774946212768555,0.9896075129508972,0.6533150672912598,0.9210574626922607,0.47333666682243347,0.9687100052833557,1.023544192314148,0.8574400544166565,0.37583786249160767,1.01119065284729,0.6935519576072693,0.6584955453872681,0.5557870864868164,1.0264310836791992,0.7310600280761719,0.8685221076011658,0.3575817942619324,1.07871675491333,0.30521059036254883,0.8094946146011353
18462.234341056093,0.45001837611198425,0.23369601368904114,-0.8842450976371765,0.9999905824661255,0.4560256898403168,0.2102404236793518,-0.8207149505615234,0.999987006187439,0.46513286232948303,0.2091658115386963,-0.8210232257843018,0.9999866485595703,0.473518431186676,0.20797207951545715,-0.82122403383255,0.9999871253967285,0.4218701422214508,0.21109744906425476,-0.8530211448669434,0.9999804496765137,0.4038621485233307,0.2106536328792572,-0.8530201315879822,0.9999752044677734,0.3846365213394165,0.21042436361312866,-0.853024959564209,0.9999667406082153,0.46548232436180115,0.21421587467193604,-0.43917062878608704,0.9999899864196777,0.33351048827171326,0.2203429937362671,-0.5987474322319031,0.9999686479568481,0.45844897627830505,0.2566744387149811,-0.7404923439025879,0.9999945163726807,0.422527551651001,0.25874313712120056,-0.7856401801109314,0.9999902248382568,0.5385795831680298,0.3496282994747162,-0.24401775002479553,0.9999734163284302,0.19665245711803436,0.3613083064556122,-0.3799601197242737,0.99953293800354,0.5848300457000732,0.5061722993850708,-0.11173439025878906,0.9840348958969116,0.15942968428134918,0.5027549266815186,-0.534325122833252,0.8659328818321228,0.6463534832000732,0.6373122930526733,-0.4467334747314453,0.9843605160713196,0.03351286053657532,0.5441300868988037,-1.1393431425094604,0.8265764713287354,0.6642789840698242,0.6800373792648315,-0.5439774394035339,0.9694231152534485,-0.020609527826309204,0.5486888885498047,-1.2607049942016602,0.8298697471618652,0.6481125950813293,0.6790769100189209,-0.6522538661956787,0.9731162190437317,-0.03868532180786133,0.5368611216545105,-1.3777649402618408,0.851668119430542,0.6368677616119385,0.669539749622345,-0.4972730576992035,0.9727401733398438,-0.006438761949539185,0.5341295003890991,-1.2066285610198975,0.857452929019928,0.49729371070861816,0.6204935312271118,0.06664590537548065,0.9982815980911255,0.3199596107006073,0.6387589573860168,-0.06599540263414383,0.9982288479804993,0.4899512827396393,0.8270366191864014,0.23150861263275146,0.9846732020378113,0.3427494168281555,0.8607324361801147,0.06510281562805176,0.9786045551300049,0.48972105979919434,0.9617248773574829,0.9282622337341309,0.9487048983573914,0.3595806062221527,0.9855825901031494,0.640328049659729,0.9402608871459961,0.4728418290615082,0.9734504818916321,0.9740877747535706,0.8818646669387817,0.3643774092197418,0.9868202209472656,0.6768084764480591,0.7073765993118286,0.5588052868843079,1.023787021636963,0.654140055179596,0.9033158421516418,0.3611571788787842,1.0681525468826294,0.2760731875896454,0.8550495505332947
18478.90100772276,0.4485991597175598,0.23407310247421265,-0.8292882442474365,0.9999914169311523,0.4554240107536316,0.21070373058319092,-0.7655978202819824,0.999988317489624,0.46436113119125366,0.20988431572914124,-0.7659116983413696,0.9999880790710449,0.4727933704853058,0.20889413356781006,-0.7661146521568298,0.9999884366989136,0.4217712879180908,0.21126168966293335,-0.7975379824638367,0.9999819993972778,0.40374991297721863,0.21079862117767334,-0.7974972724914551,0.9999771118164062,0.3847542703151703,0.2105320394039154,-0.7974846959114075,0.9999691247940063,0.4661950170993805,0.21542641520500183,-0.3918200433254242,0.9999912977218628,0.3343043029308319,0.22001460194587708,-0.5500092506408691,0.9999719858169556,0.4568043351173401,0.2575232982635498,-0.689083993434906,0.9999948740005493,0.4213564097881317,0.2588387727737427,-0.7338087558746338,0.999990701675415,0.5397287607192993,0.34931182861328125,-0.21240919828414917,0.9999744892120361,0.19612261652946472,0.3602972626686096,-0.3443067669868469,0.9995154142379761,0.5820295214653015,0.504931628704071,-0.08142779022455215,0.980881929397583,0.1560162603855133,0.5011548399925232,-0.522370457649231,0.8614177107810974,0.6445238590240479,0.6357190012931824,-0.4001668691635132,0.9827244877815247,0.030888378620147705,0.5444100499153137,-1.1366374492645264,0.8176304697990417,0.6624600887298584,0.6793738007545471,-0.4942467212677002,0.9674732089042664,-0.018116027116775513,0.5483892560005188,-1.2590601444244385,0.8224028944969177,0.6467598676681519,0.6789610981941223,-0.6010429859161377,0.9712772369384766,-0.03871971368789673,0.5346910953521729,-1.3699944019317627,0.8441142439842224,0.6351931095123291,0.6696661710739136,-0.4498159885406494,0.9709736108779907,-0.005648523569107056,0.5352922677993774,-1.2020403146743774,0.8511525392532349,0.4955759048461914,0.6227567195892334,0.058970123529434204,0.9985014200210571,0.31675609946250916,0.639601469039917,-0.05828161537647247,0.9983683228492737,0.48789095878601074,0.8300968408584595,0.2256103754043579,0.9863539338111877,0.34046703577041626,0.8628593683242798,0.08960401266813278,0.9782627820968628,0.4911248981952667,0.9593736529350281,0.9278520345687866,0.9494549036026001,0.357098251581192,0.9854156374931335,0.675421953201294,0.9361734986305237,0.4750089645385742,0.9717191457748413,0.9749130606651306,0.8761650323867798,0.3637915849685669,0.9861009120941162,0.7140596508979797,0.696708619594574,0.5562582015991211,1.024279236793518,0.6599961519241333,0.8983238339424133,0.3561078906059265,1.0670244693756104,0.32375046610832214,0.842683732509613
18495.56767438943,0.4493824243545532,0.2341511845588684,-0.795978307723999,0.9999829530715942,0.4563237130641937,0.2110137939453125,-0.7331228256225586,0.9999781847000122,0.4654674530029297,0.21009406447410583,-0.7334436178207397,0.9999778270721436,0.4738660752773285,0.20900630950927734,-0.7336887717247009,0.99997878074646,0.4223426580429077,0.21173551678657532,-0.7675115466117859,0.9999680519104004,0.40441715717315674,0.21133559942245483,-0.7675108909606934,0.9999597072601318,0.3854080140590668,0.21115192770957947,-0.7675602436065674,0.9999467134475708,0.46693214774131775,0.21553859114646912,-0.3644683063030243,0.9999845027923584,0.3354912996292114,0.22085842490196228,-0.5315098166465759,0.9999537467956543,0.45778360962867737,0.2576034665107727,-0.6567621231079102,0.9999903440475464,0.42203229665756226,0.25919410586357117,-0.7040863037109375,0.9999834299087524,0.539076566696167,0.3499111235141754,-0.17461919784545898,0.9999581575393677,0.19585393369197845,0.3645104467868805,-0.345613032579422,0.9993440508842468,0.5856321454048157,0.5076221823692322,-0.03170529007911682,0.9753597378730774,0.1535070240497589,0.5074450373649597,-0.5371885895729065,0.8404792547225952,0.6467394828796387,0.6373738050460815,-0.3294064402580261,0.9753680229187012,0.029613224789500237,0.5399817824363708,-1.1373896598815918,0.7782163023948669,0.6632766723632812,0.6792614459991455,-0.4164852797985077,0.9563624262809753,-0.026945888996124268,0.5435075163841248,-1.2545806169509888,0.78959721326828,0.6494004726409912,0.6787309050559998,-0.519524872303009,0.9616368412971497,-0.024354130029678345,0.5292227268218994,-1.360245704650879,0.8137960433959961,0.6393541693687439,0.669219434261322,-0.37698885798454285,0.9619342088699341,-0.004152417182922363,0.5141313672065735,-1.199140191078186,0.819657564163208,0.5007714629173279,0.6253185868263245,0.07639472931623459,0.9979901313781738,0.3239551782608032,0.6443750858306885,-0.07575812190771103,0.9980443716049194,0.4883411228656769,0.8373129963874817,0.24147792160511017,0.9810106158256531,0.34255456924438477,0.8623537421226501,0.06599180400371552,0.9707294702529907,0.49065595865249634,0.9644482731819153,0.9761416912078857,0.9286125898361206,0.3578192889690399,0.9862481951713562,0.6574268341064453,0.9141016006469727,0.4751964509487152,0.9734779596328735,1.0275253057479858,0.8443244099617004,0.35900694131851196,0.9858781695365906,0.6979495882987976,0.6467023491859436,0.5549086332321167,1.026175856590271,0.7218403816223145,0.8607267737388611,0.3663955330848694,1.0731853246688843,0.3068227767944336,0.7955179810523987
18512.234341056097,0.45165032148361206,0.2335352599620819,-0.7103103995323181,0.9999805688858032,0.4579688012599945,0.21033403277397156,-0.6447570323944092,0.9999752044677734,0.46691301465034485,0.2093888223171234,-0.6451339721679688,0.9999746084213257,0.4751293659210205,0.20833811163902283,-0.6454867720603943,0.9999758005142212,0.4241917133331299,0.21105876564979553,-0.6810564398765564,0.9999630451202393,0.4067312777042389,0.210524320602417,-0.6810668706893921,0.999954104423523,0.38733112812042236,0.21023774147033691,-0.6810915470123291,0.9999419450759888,0.4671361744403839,0.21476855874061584,-0.2698145806789398,0.9999837875366211,0.3374541401863098,0.21957623958587646,-0.44559162855148315,0.9999537467956543,0.4597759246826172,0.2565673887729645,-0.5682570338249207,0.9999892711639404,0.42398563027381897,0.2584158778190613,-0.6182956695556641,0.9999819993972778,0.5378716588020325,0.34902384877204895,-0.08441277593374252,0.999955415725708,0.19899503886699677,0.36293119192123413,-0.2541255056858063,0.9992959499359131,0.5823514461517334,0.5075793266296387,0.06213946267962456,0.967485249042511,0.15696541965007782,0.5065023899078369,-0.43635010719299316,0.8287339806556702,0.6444669961929321,0.6372045278549194,-0.2269769161939621,0.9660969376564026,0.03464013338088989,0.5411692261695862,-1.0472804307937622,0.8007036447525024,0.6617332696914673,0.6802582144737244,-0.3151716887950897,0.9435727596282959,-0.023966699838638306,0.5452499985694885,-1.1679956912994385,0.8150631785392761,0.6472468376159668,0.6799250841140747,-0.4178785979747772,0.950110137462616,-0.023960620164871216,0.5293251276016235,-1.272902011871338,0.8372439742088318,0.636513888835907,0.6702471375465393,-0.27490514516830444,0.9507279992103577,0.015292972326278687,0.527458667755127,-1.1089915037155151,0.8385403752326965,0.49877142906188965,0.6265562772750854,0.06503666937351227,0.997742772102356,0.32394343614578247,0.6460173726081848,-0.06431058794260025,0.9974877834320068,0.4880797863006592,0.8414333462715149,0.15135513246059418,0.9785056710243225,0.34275540709495544,0.8736199140548706,0.022484183311462402,0.9567952752113342,0.4947386682033539,0.9660404920578003,0.8956102132797241,0.893521249294281,0.36173808574676514,0.9929373264312744,0.6223919987678528,0.8723990321159363,0.48228636384010315,0.9744017720222473,0.9480516314506531,0.7693291902542114,0.3800472617149353,1.0176483392715454,0.6634523868560791,0.5365089774131775,0.5541201829910278,1.0371670722961426,0.6362550258636475,0.7963294982910156,0.36633777618408203,1.0842373371124268,0.26349011063575745,0.724261462688446
18528.901007722765,0.45191580057144165,0.23537033796310425,-0.8524548411369324,0.9999837875366211,0.4589410126209259,0.21233084797859192,-0.7898286581039429,0.9999790191650391,0.4670816659927368,0.2117024064064026,-0.7901650667190552,0.9999785423278809,0.4743886888027191,0.21095535159111023,-0.7904247641563416,0.9999797344207764,0.4267427623271942,0.21233025193214417,-0.826892614364624,0.9999692440032959,0.4086403548717499,0.21155691146850586,-0.826918363571167,0.9999607801437378,0.38853031396865845,0.21107318997383118,-0.8269587755203247,0.9999483823776245,0.4657091200351715,0.21635708212852478,-0.41979512572288513,0.999984622001648,0.3370525538921356,0.21900734305381775,-0.601102352142334,0.9999526739120483,0.4581298232078552,0.25770777463912964,-0.7124701142311096,0.9999901056289673,0.4251915216445923,0.259134441614151,-0.7638594508171082,0.9999830722808838,0.5391333103179932,0.348742812871933,-0.24926739931106567,0.9999639987945557,0.19037292897701263,0.3646739423274994,-0.3969283401966095,0.9992420673370361,0.5831880569458008,0.5061734318733215,-0.13628046214580536,0.9812778830528259,0.1399596631526947,0.5120071172714233,-0.5795213580131531,0.8701668977737427,0.6448281407356262,0.6376299858093262,-0.44923853874206543,0.9814992547035217,-0.03212335705757141,0.5188437104225159,-1.1525216102600098,0.8023651242256165,0.6638270020484924,0.6792314648628235,-0.5389243960380554,0.9647064805030823,-0.07075849175453186,0.5261774659156799,-1.2641993761062622,0.8049444556236267,0.6493375301361084,0.6794962286949158,-0.6388967037200928,0.9689883589744568,-0.08752286434173584,0.5107060670852661,-1.375996708869934,0.8300522565841675,0.6374906301498413,0.6704216003417969,-0.4964417517185211,0.9696700572967529,-0.055168088525533676,0.5095621347427368,-1.2173163890838623,0.8404799103736877,0.49824896454811096,0.6259129643440247,0.06405200064182281,0.9973772764205933,0.3249663710594177,0.6479924917221069,-0.06338173151016235,0.9972449541091919,0.4908473789691925,0.8360918164253235,0.24639227986335754,0.9797359704971313,0.34087705612182617,0.866521954536438,0.08419699221849442,0.969231128692627,0.4933519959449768,0.9623147249221802,0.9445777535438538,0.9273495078086853,0.3565904200077057,0.9878475666046143,0.6538859605789185,0.915814995765686,0.4769294261932373,0.9733622074127197,0.992612361907959,0.849953293800354,0.3740374445915222,1.005680799484253,0.6923242211341858,0.6538702845573425,0.5604318976402283,1.024078369140625,0.6995129585266113,0.8680334687232971,0.3591114580631256,1.0727379322052002,0.3125748336315155,0.8029990792274475
18545.567674389433,0.44886037707328796,0.23486992716789246,-0.867952823638916,0.999984622001648,0.4559548497200012,0.2121676504611969,-0.8051299452781677,0.999980092048645,0.46496111154556274,0.21142488718032837,-0.8054568767547607,0.9999793767929077,0.47317248582839966,0.21047216653823853,-0.8056961297988892,0.9999803304672241,0.4223344624042511,0.2124888300895691,-0.8398787379264832,0.9999710321426392,0.40426409244537354,0.21198111772537231,-0.8398997187614441,0.9999629259109497,0.38535377383232117,0.2116517722606659,-0.8399423360824585,0.9999516010284424,0.46652182936668396,0.21663153171539307,-0.4274997115135193,0.999984860420227,0.3354761600494385,0.221119225025177,-0.5974928140640259,0.999954104423523,0.45665717124938965,0.25816819071769714,-0.7249802350997925,0.999990701675415,0.42161986231803894,0.2594335079193115,-0.7731605172157288,0.9999840259552002,0.5389518737792969,0.3490183353424072,-0.2352462112903595,0.9999618530273438,0.1943608522415161,0.36392703652381897,-0.39075034856796265,0.9993429780006409,0.5826510190963745,0.5069845914840698,-0.11927037686109543,0.9801929593086243,0.15285271406173706,0.510272741317749,-0.58058762550354,0.8507105112075806,0.6448632478713989,0.636599600315094,-0.4521034061908722,0.9796818494796753,-0.008741557598114014,0.5409051775932312,-1.1908966302871704,0.800413966178894,0.6629326939582825,0.6786293983459473,-0.5447764992713928,0.9615983366966248,-0.05987900123000145,0.5415317416191101,-1.3102846145629883,0.8071403503417969,0.6465287208557129,0.6784195899963379,-0.6484270691871643,0.9662532806396484,-0.070514976978302,0.5114880800247192,-1.4211171865463257,0.8313779234886169,0.6350265741348267,0.6689512133598328,-0.5010653734207153,0.9665355086326599,-0.03822711110115051,0.510013997554779,-1.255766749382019,0.8377580642700195,0.4984537363052368,0.623444139957428,0.07152113318443298,0.9976707100868225,0.3229231834411621,0.6431642770767212,-0.07090593874454498,0.9976891279220581,0.490287184715271,0.8328253626823425,0.25147223472595215,0.9815085530281067,0.34171468019485474,0.8612748980522156,0.06954610347747803,0.9741255044937134,0.49143800139427185,0.9626176357269287,0.9526681303977966,0.9382264018058777,0.3594255745410919,0.9840978384017944,0.6406980156898499,0.9306473135948181,0.4761134684085846,0.9732412695884705,0.9999359250068665,0.863815188407898,0.376915842294693,1.0033761262893677,0.678208589553833,0.6865800619125366,0.559184193611145,1.022085428237915,0.6919412016868591,0.8858421444892883,0.3631713390350342,1.0690022706985474,0.2860177457332611,0.8339151740074158
18562.2343410561,0.4480402171611786,0.23947513103485107,-0.8169527053833008,0.9999904632568359,0.45783481001853943,0.2155163288116455,-0.7584834694862366,0.9999862909317017,0.4663091003894806,0.21478933095932007,-0.7587714195251465,0.9999864101409912,0.4743180572986603,0.21447855234146118,-0.7589578628540039,0.9999860525131226,0.4267534017562866,0.21573910117149353,-0.7914804220199585,0.9999799728393555,0.41033604741096497,0.21534305810928345,-0.791456937789917,0.9999756813049316,0.39077726006507874,0.21533212065696716,-0.7914208769798279,0.9999665021896362,0.4673908054828644,0.21986573934555054,-0.39892691373825073,0.9999899864196777,0.3371524512767792,0.22329241037368774,-0.5629103779792786,0.9999711513519287,0.45442792773246765,0.2611493766307831,-0.6799250841140747,0.9999934434890747,0.42085132002830505,0.2632255256175995,-0.7262113690376282,0.9999892711639404,0.5394656658172607,0.34776511788368225,-0.22493962943553925,0.9999750852584839,0.193975567817688,0.36160191893577576,-0.35808810591697693,0.9995180368423462,0.5825866460800171,0.5062223672866821,-0.07005998492240906,0.9819647669792175,0.14562955498695374,0.5042840838432312,-0.5431326031684875,0.891021192073822,0.6435773372650146,0.6387953162193298,-0.33830156922340393,0.9848666787147522,0.032982975244522095,0.5370428562164307,-1.1294760704040527,0.8531720042228699,0.6606623530387878,0.6808276772499084,-0.4205535650253296,0.9710200428962708,-0.02243828773498535,0.5407742261886597,-1.2440874576568604,0.8515321016311646,0.645863950252533,0.6806389093399048,-0.5205603241920471,0.9743654131889343,-0.024141758680343628,0.5265378952026367,-1.3453137874603271,0.8696784377098083,0.6337913274765015,0.6710878610610962,-0.383590430021286,0.9750118255615234,-0.008292168378829956,0.5110604763031006,-1.1896653175354004,0.8743547201156616,0.49491968750953674,0.6258086562156677,0.051707420498132706,0.9984342455863953,0.32019978761672974,0.6459231376647949,-0.05104789510369301,0.9981833100318909,0.48912885785102844,0.8304830193519592,0.2412279099225998,0.982164740562439,0.34182706475257874,0.8651162981987,0.11362099647521973,0.9739359617233276,0.490861177444458,0.9574190378189087,0.9211580157279968,0.9392759799957275,0.358285129070282,0.98301762342453,0.6742362976074219,0.9263132214546204,0.47414740920066833,0.9704159498214722,0.9683905243873596,0.8702067136764526,0.3640487790107727,0.9830021858215332,0.7130547165870667,0.693515956401825,0.5568006634712219,1.023382544517517,0.6845349669456482,0.8880249857902527,0.35702311992645264,1.0669974088668823,0.34957990050315857,0.827133059501648
18578.90100772277,0.4511255919933319,0.23608744144439697,-0.8671624064445496,0.9999886751174927,0.4587445557117462,0.21279087662696838,-0.8044565916061401,0.9999845027923584,0.46694374084472656,0.21223899722099304,-0.8047710657119751,0.999984622001648,0.474360853433609,0.2119477093219757,-0.8049967288970947,0.9999852180480957,0.4275921881198883,0.21242877840995789,-0.8399768471717834,0.9999767541885376,0.41067662835121155,0.2116219699382782,-0.8399689197540283,0.9999701976776123,0.39111942052841187,0.21123909950256348,-0.8399736881256104,0.9999591112136841,0.46526968479156494,0.21725556254386902,-0.43333521485328674,0.9999892711639404,0.33788204193115234,0.21888235211372375,-0.6091698408126831,0.9999606609344482,0.4571009576320648,0.25780823826789856,-0.727106511592865,0.9999924898147583,0.42361193895339966,0.259325236082077,-0.7769960761070251,0.9999860525131226,0.5374144315719604,0.3483109176158905,-0.2742842137813568,0.9999735355377197,0.1928349882364273,0.36056578159332275,-0.3849315643310547,0.9992340803146362,0.5856107473373413,0.5050901174545288,-0.1574321836233139,0.9870198965072632,0.1389579325914383,0.5071715712547302,-0.5713040232658386,0.8589321374893188,0.6437753438949585,0.6383991837501526,-0.4636460840702057,0.9876547455787659,-0.02553299069404602,0.5156586170196533,-1.16475248336792,0.8050834536552429,0.6604627370834351,0.680668830871582,-0.5516741275787354,0.974838137626648,-0.062228113412857056,0.5242408514022827,-1.277138352394104,0.8074076771736145,0.6451364159584045,0.6807768940925598,-0.6526944041252136,0.977782130241394,-0.0783098042011261,0.5091991424560547,-1.3873368501663208,0.8312427997589111,0.6335445642471313,0.6714547872543335,-0.5099113583564758,0.9777299165725708,-0.046631693840026855,0.5076671242713928,-1.229255199432373,0.8396949768066406,0.49535349011421204,0.6249662041664124,0.04397978633642197,0.9979851245880127,0.3204859495162964,0.6462940573692322,-0.043327447026968,0.9977185726165771,0.4871933162212372,0.8357559442520142,0.23610574007034302,0.9856389164924622,0.3392076790332794,0.8660979866981506,0.11428754031658173,0.9742196798324585,0.48911768198013306,0.9636797904968262,0.9092498421669006,0.9497461318969727,0.3567747175693512,0.9891512393951416,0.678970992565155,0.934117317199707,0.47264721989631653,0.9745870232582092,0.9537450075149536,0.8811954855918884,0.3629879951477051,0.9899100065231323,0.716149628162384,0.7014910578727722,0.5505281686782837,1.025683045387268,0.6504040360450745,0.9024623036384583,0.34610167145729065,1.0702838897705078,0.337882936000824,0.8427510857582092
18595.567674389436,0.4471067190170288,0.23958073556423187,-0.9559478759765625,0.9999862909317017,0.4567234516143799,0.21591448783874512,-0.9003276824951172,0.9999794960021973,0.4650907516479492,0.21529895067214966,-0.9005653858184814,0.9999796152114868,0.47298821806907654,0.21501770615577698,-0.9007436633110046,0.9999794960021973,0.42615488171577454,0.215827077627182,-0.9324009418487549,0.9999721050262451,0.40975314378738403,0.21522602438926697,-0.9324267506599426,0.9999667406082153,0.3905152380466461,0.2149762213230133,-0.9324192404747009,0.9999556541442871,0.4660537540912628,0.2202949821949005,-0.5339528918266296,0.9999839067459106,0.33757638931274414,0.22252756357192993,-0.6939786076545715,0.9999567270278931,0.45247262716293335,0.2613191604614258,-0.8147128224372864,0.9999899864196777,0.41932985186576843,0.2630574405193329,-0.8601024746894836,0.999984622001648,0.539307713508606,0.3468948304653168,-0.34602004289627075,0.9999679327011108,0.1933957189321518,0.3600243031978607,-0.45535731315612793,0.9994122982025146,0.5848417282104492,0.5063849687576294,-0.20712172985076904,0.9845645427703857,0.14491096138954163,0.5110577940940857,-0.6307551860809326,0.882254958152771,0.6461585760116577,0.6391310095787048,-0.4804365336894989,0.9821595549583435,0.0011501014232635498,0.5372129082679749,-1.1897145509719849,0.7975176572799683,0.6614351272583008,0.6802331209182739,-0.5621637105941772,0.9633343815803528,-0.042575836181640625,0.524168074131012,-1.2995301485061646,0.7881625294685364,0.6490038633346558,0.6803988814353943,-0.661236584186554,0.9677237868309021,-0.058481693267822266,0.5083742141723633,-1.404049277305603,0.8133142590522766,0.6378058195114136,0.6706352233886719,-0.5259804725646973,0.969048798084259,-0.029562203213572502,0.5066103935241699,-1.2511929273605347,0.8232104778289795,0.49492549896240234,0.6194866895675659,0.04301927238702774,0.997929573059082,0.3165934085845947,0.6384326815605164,-0.04239119216799736,0.997729480266571,0.4891493320465088,0.8190385699272156,0.2563187777996063,0.9866891503334045,0.34004661440849304,0.8526741862297058,0.1226126030087471,0.9819340705871582,0.48895418643951416,0.9545377492904663,0.8940160870552063,0.9630306959152222,0.35623446106910706,0.9799178242683411,0.6555230021476746,0.9529407620429993,0.47115397453308105,0.9687812924385071,0.935687243938446,0.8956089019775391,0.3644324243068695,0.9819151759147644,0.6901822686195374,0.7410034537315369,0.5510247945785522,1.0191230773925781,0.6286743879318237,0.9310906529426575,0.3553118109703064,1.062991976737976,0.31175586581230164,0.8863994479179382
18612.234341056104,0.4527173936367035,0.23644447326660156,-0.8397670984268188,0.9999871253967285,0.45973989367485046,0.21327874064445496,-0.778278648853302,0.9999827146530151,0.4676218628883362,0.21269100904464722,-0.7785823941230774,0.9999828338623047,0.4746472239494324,0.21241655945777893,-0.7788342237472534,0.9999837875366211,0.4293533265590668,0.21292972564697266,-0.8149316906929016,0.9999743700027466,0.4123687148094177,0.21213266253471375,-0.8149569034576416,0.999968409538269,0.392989844083786,0.21178755164146423,-0.8149648904800415,0.9999585151672363,0.46483922004699707,0.21822386980056763,-0.4147375822067261,0.9999879598617554,0.33811861276626587,0.22003722190856934,-0.5933173894882202,0.9999600648880005,0.4577993154525757,0.2581688165664673,-0.7017127871513367,0.9999922513961792,0.4249017536640167,0.2599501609802246,-0.7525232434272766,0.9999868869781494,0.5368012189865112,0.3480871319770813,-0.2527273893356323,0.9999730587005615,0.19101467728614807,0.3615933060646057,-0.3869943916797638,0.9992426633834839,0.5851765871047974,0.5034478902816772,-0.1408686637878418,0.9861185550689697,0.1384042203426361,0.5106924176216125,-0.5776538848876953,0.8802170753479004,0.6475850939750671,0.6414995789527893,-0.4441514313220978,0.984852135181427,0.0038222670555114746,0.5359510183334351,-1.146354079246521,0.7928116321563721,0.6642197370529175,0.6822014451026917,-0.5323365926742554,0.9692639112472534,-0.042575567960739136,0.5245405435562134,-1.257602334022522,0.7884898781776428,0.6485486626625061,0.6813457012176514,-0.6282622218132019,0.9729552268981934,-0.057042479515075684,0.507702112197876,-1.3581593036651611,0.8130832314491272,0.6377841234207153,0.671263575553894,-0.4889359772205353,0.9731873273849487,-0.029143182560801506,0.5063156485557556,-1.2057594060897827,0.8212708830833435,0.4951106607913971,0.62554532289505,0.054107315838336945,0.9977540373802185,0.31728947162628174,0.6418347358703613,-0.053523313254117966,0.9972859621047974,0.4879039525985718,0.8360010981559753,0.23023369908332825,0.9829154014587402,0.3418959975242615,0.862078070640564,0.09817444533109665,0.9703975915908813,0.49232497811317444,0.9661161303520203,0.9250801205635071,0.937714159488678,0.3580480217933655,0.9861182570457458,0.664189875125885,0.9174273610115051,0.47899380326271057,0.9740787148475647,0.9734764099121094,0.835780143737793,0.35990577936172485,0.9850853681564331,0.7031351923942566,0.6417613625526428,0.5323251485824585,1.0288466215133667,0.6724251508712769,0.8866404294967651,0.38152793049812317,1.0725640058517456,0.32488930225372314,0.8162803649902344
18628.901007722772,0.45144492387771606,0.23350000381469727,-0.8405963778495789,0.9999874830245972,0.45840585231781006,0.21066871285438538,-0.7800897359848022,0.9999827146530151,0.4667634963989258,0.21013659238815308,-0.7804152965545654,0.9999825954437256,0.4742538034915924,0.20946240425109863,-0.7806426882743835,0.9999834299087524,0.4258241057395935,0.2106184959411621,-0.8155324459075928,0.9999749660491943,0.4077841639518738,0.20992693305015564,-0.8155608177185059,0.9999687671661377,0.3883591592311859,0.20953994989395142,-0.815586507320404,0.9999591112136841,0.4665447175502777,0.21534690260887146,-0.41683661937713623,0.9999873638153076,0.33775824308395386,0.2179669439792633,-0.5896720290184021,0.9999607801437378,0.4579116404056549,0.2559329569339752,-0.7025783658027649,0.9999920129776001,0.42436590790748596,0.2573627829551697,-0.7516966462135315,0.9999865293502808,0.5367348790168762,0.34725722670555115,-0.24689479172229767,0.9999651908874512,0.19350482523441315,0.36194971203804016,-0.3846120834350586,0.9992990493774414,0.5833404660224915,0.5036506652832031,-0.12070173770189285,0.9836323857307434,0.1527254730463028,0.5086625814437866,-0.5507627725601196,0.8752765655517578,0.6447778940200806,0.6387397646903992,-0.41162991523742676,0.9825037121772766,0.028965385630726814,0.5411256551742554,-1.1136394739151,0.819408118724823,0.66205233335495,0.6798765659332275,-0.49785488843917847,0.9659821391105652,-0.0318569540977478,0.5428377985954285,-1.2236883640289307,0.8208945989608765,0.647258460521698,0.6795588135719299,-0.595669150352478,0.9699492454528809,-0.06490984559059143,0.5293654799461365,-1.3334168195724487,0.8437882661819458,0.63565593957901,0.669966459274292,-0.45674821734428406,0.9706275463104248,-0.028828084468841553,0.5137724280357361,-1.1766353845596313,0.8507702350616455,0.49321094155311584,0.6247266530990601,0.05672108381986618,0.9977220892906189,0.3181609511375427,0.6429122686386108,-0.05611015111207962,0.9974842071533203,0.4878229796886444,0.8319106698036194,0.2391321212053299,0.9838940501213074,0.34076473116874695,0.8616969585418701,0.095506951212883,0.9736579060554504,0.4905456602573395,0.9610212445259094,0.9136541485786438,0.9421637058258057,0.3564768433570862,0.9886560440063477,0.6487528085708618,0.9261693954467773,0.47393518686294556,0.9712399244308472,0.9595966339111328,0.8609517216682434,0.35846102237701416,0.9874369502067566,0.6859928965568542,0.6670557856559753,0.53335040807724,1.0273182392120361,0.6624054312705994,0.891368567943573,0.3672166168689728,1.073625922203064,0.3070559501647949,0.8258508443832397
18645.56767438944,0.45193570852279663,0.23581111431121826,-0.8835058808326721,0.9999821186065674,0.45940208435058594,0.21271252632141113,-0.821179986000061,0.9999754428863525,0.46742504835128784,0.21214064955711365,-0.821493923664093,0.9999746084213257,0.4745940566062927,0.21187791228294373,-0.8217217326164246,0.999976396560669,0.42820072174072266,0.21233713626861572,-0.8582187294960022,0.9999650716781616,0.4106343388557434,0.2114948332309723,-0.8582549691200256,0.9999562501907349,0.3908081352710724,0.21106383204460144,-0.8582857251167297,0.9999433755874634,0.4658348560333252,0.2175818681716919,-0.45290690660476685,0.9999806880950928,0.3375917673110962,0.21909275650978088,-0.6340093612670898,0.9999430179595947,0.45749181509017944,0.25760626792907715,-0.7440760731697083,0.9999889135360718,0.4243587255477905,0.2594785988330841,-0.7954829931259155,0.9999819993972778,0.5359435677528381,0.34675133228302,-0.2909744679927826,0.9999663829803467,0.1911855936050415,0.36231309175491333,-0.42337584495544434,0.9990924596786499,0.5853166580200195,0.503417432308197,-0.18401743471622467,0.984859049320221,0.1361611783504486,0.5127774477005005,-0.5956591963768005,0.8786621689796448,0.6460270285606384,0.6404445767402649,-0.48589572310447693,0.9839058518409729,-0.03445017337799072,0.5394300222396851,-1.1262229681015015,0.773075520992279,0.6622347831726074,0.6810312271118164,-0.5716826915740967,0.9674001336097717,-0.08535563945770264,0.5278754234313965,-1.2314718961715698,0.7665497064590454,0.6474275588989258,0.6800933480262756,-0.6661280989646912,0.9711688756942749,-0.10186803340911865,0.5130643248558044,-1.3406593799591064,0.7949289679527283,0.636772632598877,0.6700022220611572,-0.5301606059074402,0.9715904593467712,-0.07067915797233582,0.512239396572113,-1.1890941858291626,0.8099107146263123,0.4958544671535492,0.6265078186988831,0.05839646980166435,0.9977527260780334,0.3184221088886261,0.6442722678184509,-0.0578688308596611,0.9972800016403198,0.48917609453201294,0.8311620354652405,0.27808547019958496,0.9822795987129211,0.34188762307167053,0.8602298498153687,0.12786056101322174,0.9714121222496033,0.49081459641456604,0.9605598449707031,0.9748663902282715,0.943516731262207,0.35813409090042114,0.982230544090271,0.7061567306518555,0.9286000728607178,0.47620677947998047,0.9700090289115906,1.0242016315460205,0.8648028373718262,0.3615506887435913,0.982600212097168,0.7467942833900452,0.6865403056144714,0.5353971123695374,1.022902011871338,0.7347936034202576,0.9017799496650696,0.37837791442871094,1.0671823024749756,0.3767279386520386,0.8378632664680481
18662.234341056108,0.44861552119255066,0.2390386164188385,-0.9249386787414551,0.9999879598617554,0.4585305154323578,0.21511763334274292,-0.8666455149650574,0.9999833106994629,0.46719852089881897,0.21439862251281738,-0.8669396638870239,0.9999828338623047,0.47531166672706604,0.21415725350379944,-0.8671641945838928,0.999983549118042,0.4264175593852997,0.21521681547164917,-0.9005818367004395,0.9999762773513794,0.40923064947128296,0.21452313661575317,-0.9006577730178833,0.9999701976776123,0.38930389285087585,0.2142072319984436,-0.9007008075714111,0.9999611377716064,0.46804890036582947,0.2194288671016693,-0.4877471923828125,0.9999873638153076,0.3351363241672516,0.2214455008506775,-0.65667325258255,0.9999620914459229,0.4545802175998688,0.26074090600013733,-0.7788015007972717,0.9999921321868896,0.41972747445106506,0.2627910375595093,-0.8269211053848267,0.9999874830245972,0.5367220044136047,0.3475764989852905,-0.2904866635799408,0.9999691247940063,0.19200198352336884,0.3606860637664795,-0.42482244968414307,0.9994327425956726,0.5836394429206848,0.5050418376922607,-0.15630857646465302,0.9856963157653809,0.14804211258888245,0.5086214542388916,-0.6056275367736816,0.8682320713996887,0.6446439027786255,0.640113890171051,-0.46046945452690125,0.9853197932243347,0.027581751346588135,0.5347636938095093,-1.193973422050476,0.802303671836853,0.6624228358268738,0.681086540222168,-0.5494046807289124,0.9705645442008972,-0.029019387438893318,0.5387899875640869,-1.3074257373809814,0.8040008544921875,0.6488890051841736,0.6808375120162964,-0.6492172479629517,0.9740086793899536,-0.04633718729019165,0.5036641359329224,-1.4127637147903442,0.8271133303642273,0.637421727180481,0.670376718044281,-0.5060430765151978,0.9740989804267883,-0.018390566110610962,0.5024451017379761,-1.2548824548721313,0.8310732841491699,0.4909086227416992,0.6258386373519897,0.06099431589245796,0.9973490238189697,0.3163825273513794,0.642423689365387,-0.060455359518527985,0.9972905516624451,0.48708146810531616,0.8305788040161133,0.26867979764938354,0.9778847098350525,0.33834919333457947,0.8618747591972351,0.0861697793006897,0.9714714288711548,0.4896285831928253,0.9590193033218384,0.9392059445381165,0.9340835213661194,0.3511888384819031,0.9941460490226746,0.6200236082077026,0.9269031882286072,0.4694913625717163,0.9708353877067566,0.985490620136261,0.8604707717895508,0.35269883275032043,0.9951828718185425,0.6548953056335449,0.6696193814277649,0.5379010438919067,1.0249112844467163,0.6875216364860535,0.8944133520126343,0.37062981724739075,1.0805079936981201,0.26222071051597595,0.8341570496559143
18678.901007722776,0.45297306776046753,0.23263832926750183,-0.806526243686676,0.9999860525131226,0.46017369627952576,0.2101646363735199,-0.7411811947822571,0.999981164932251,0.46842309832572937,0.20967483520507812,-0.7415084838867188,0.9999806880950928,0.47618433833122253,0.20896828174591064,-0.7417042255401611,0.9999816417694092,0.42737218737602234,0.2101205587387085,-0.7770237326622009,0.9999728202819824,0.4095730781555176,0.20939326286315918,-0.777023434638977,0.9999657869338989,0.38951799273490906,0.2090013325214386,-0.7770399451255798,0.9999549388885498,0.46747156977653503,0.21509826183319092,-0.37693196535110474,0.9999858140945435,0.33773162961006165,0.21765205264091492,-0.5525645017623901,0.9999568462371826,0.459207147359848,0.2552434504032135,-0.6710426211357117,0.9999916553497314,0.42536744475364685,0.2566419839859009,-0.7208510637283325,0.9999862909317017,0.5372176170349121,0.3484666049480438,-0.2230416089296341,0.9999610185623169,0.19383183121681213,0.3638666868209839,-0.35926148295402527,0.9991668462753296,0.5849129557609558,0.5053134560585022,-0.09741903096437454,0.982448935508728,0.14891673624515533,0.5075474381446838,-0.5451304316520691,0.8411684632301331,0.6435031890869141,0.6395459175109863,-0.3940795660018921,0.9809228777885437,0.024340808391571045,0.5420190095901489,-1.1256035566329956,0.7641406059265137,0.6614562273025513,0.6807810068130493,-0.48293113708496094,0.964352011680603,-0.026430726051330566,0.5413276553153992,-1.2389249801635742,0.7754848003387451,0.647077202796936,0.6803160309791565,-0.5789106488227844,0.9684965014457703,-0.02512720227241516,0.5272584557533264,-1.3440252542495728,0.8012809157371521,0.636096715927124,0.6705752611160278,-0.4386606812477112,0.9689342379570007,-0.008885055780410767,0.5098450779914856,-1.187077283859253,0.8096340894699097,0.49409395456314087,0.6267959475517273,0.06334219872951508,0.9980852603912354,0.31962910294532776,0.6434698104858398,-0.06278065592050552,0.9977819323539734,0.4889339208602905,0.8352072834968567,0.2668606638908386,0.9829065203666687,0.34187254309654236,0.8601778745651245,0.11256962269544601,0.975107729434967,0.4910649359226227,0.9622560739517212,0.9683491587638855,0.943445086479187,0.35675567388534546,0.9845787882804871,0.694728672504425,0.9288350939750671,0.4761952757835388,0.9708888530731201,1.0167217254638672,0.8718464970588684,0.3578455150127411,0.9849510192871094,0.7350192070007324,0.6976019740104675,0.5523382425308228,1.0209529399871826,0.7224138975143433,0.8943944573402405,0.37132447957992554,1.0653613805770874,0.362607479095459,0.8294406533241272
18695.567674389444,0.45161718130111694,0.2346237301826477,-0.8468530774116516,0.9999843835830688,0.4587012231349945,0.21197330951690674,-0.783409595489502,0.9999790191650391,0.46719038486480713,0.21135404706001282,-0.7837346792221069,0.9999783039093018,0.474834144115448,0.21055284142494202,-0.7839414477348328,0.9999792575836182,0.4264799952507019,0.2122238278388977,-0.8187047839164734,0.999970555305481,0.4083251953125,0.21164485812187195,-0.8187190890312195,0.9999628067016602,0.38860878348350525,0.21130910515785217,-0.8187480568885803,0.9999517202377319,0.46705400943756104,0.21633976697921753,-0.41220927238464355,0.9999842643737793,0.33775418996810913,0.21976065635681152,-0.5843694806098938,0.9999557733535767,0.45811814069747925,0.257274866104126,-0.7071433663368225,0.999990701675415,0.42481523752212524,0.25891605019569397,-0.7559273838996887,0.9999847412109375,0.5377289652824402,0.34864574670791626,-0.23773667216300964,0.9999587535858154,0.19203808903694153,0.3634045422077179,-0.38086169958114624,0.9993102550506592,0.5860376358032227,0.5065237283706665,-0.10715602338314056,0.9795730113983154,0.14804252982139587,0.507746160030365,-0.5585134029388428,0.8492128849029541,0.6448360085487366,0.6385402083396912,-0.41206809878349304,0.9766993522644043,0.013873755931854248,0.5414078235626221,-1.140442132949829,0.7689636945724487,0.6633020639419556,0.6798139214515686,-0.5000571608543396,0.957490086555481,-0.03213143348693848,0.5405361652374268,-1.2538163661956787,0.7776046991348267,0.648735761642456,0.6793684363365173,-0.6007989645004272,0.9624803066253662,-0.0664064884185791,0.5226747989654541,-1.3644843101501465,0.8040428757667542,0.6373744010925293,0.669807493686676,-0.4590914845466614,0.9633094072341919,-0.026458946987986565,0.5132408142089844,-1.2045323848724365,0.813639760017395,0.4954220652580261,0.6261350512504578,0.06332581490278244,0.9978233575820923,0.3215930461883545,0.6447170972824097,-0.06270083785057068,0.9977331161499023,0.48914140462875366,0.8329123258590698,0.2697334289550781,0.9823545217514038,0.34142372012138367,0.8605640530586243,0.1122056320309639,0.9751335978507996,0.49023839831352234,0.9625665545463562,0.9562099575996399,0.9428712725639343,0.356528103351593,0.9836613535881042,0.6853960156440735,0.9303426742553711,0.47481513023376465,0.9725944399833679,1.002644658088684,0.8743524551391602,0.35860347747802734,0.9849348068237305,0.7241222262382507,0.7100486159324646,0.5508604645729065,1.0214262008666992,0.7023108005523682,0.8933007121086121,0.36375319957733154,1.0659209489822388,0.3459063470363617,0.8321238160133362
