time,X_NOSE,Y_NOSE,Z_NOSE,visibility_NOSE,X_LEFT_EYE_INNER,Y_LEFT_EYE_INNER,Z_LEFT_EYE_INNER,visibility_LEFT_EYE_INNER,X_LEFT_EYE,Y_LEFT_EYE,Z_LEFT_EYE,visibility_LEFT_EYE,X_LEFT_EYE_OUTER,Y_LEFT_EYE_OUTER,Z_LEFT_EYE_OUTER,visibility_LEFT_EYE_OUTER,X_RIGHT_EYE_OUTER,Y_RIGHT_EYE_OUTER,Z_RIGHT_EYE_OUTER,visibility_RIGHT_EYE_OUTER,X_RIGHT_EYE,Y_RIGHT_EYE,Z_RIGHT_EYE,visibility_RIGHT_EYE,X_RIGHT_EYE_OUTER,Y_RIGHT_EYE_OUTER,Z_RIGHT_EYE_OUTER,visibility_RIGHT_EYE_OUTER,X_LEFT_EAR,Y_LEFT_EAR,Z_LEFT_EAR,visibility_LEFT_EAR,X_RIGHT_EAR,Y_RIGHT_EAR,Z_RIGHT_EAR,visibility_RIGHT_EAR,X_MOUTH_LEFT,Y_MOUTH_LEFT,Z_MOUTH_LEFT,visibility_MOUTH_LEFT,X_MOUTH_RIGHT,Y_MOUTH_RIGHT,Z_MOUTH_RIGHT,visibility_MOUTH_RIGHT,X_LEFT_SHOULDER,Y_LEFT_SHOULDER,Z_LEFT_SHOULDER,visibility_LEFT_SHOULDER,X_RIGHT_SHOULDER,Y_RIGHT_SHOULDER,Z_RIGHT_SHOULDER,visibility_RIGHT_SHOULDER,X_LEFT_ELBOW,Y_LEFT_ELBOW,Z_LEFT_ELBOW,visibility_LEFT_ELBOW,X_RIGHT_ELBOW,Y_RIGHT_ELBOW,Z_RIGHT_ELBOW,visibility_RIGHT_ELBOW,X_LEFT_WRIST,Y_LEFT_WRIST,Z_LEFT_WRIST,visibility_LEFT_WRIST,X_RIGHT_WRIST,Y_RIGHT_WRIST,Z_RIGHT_WRIST,visibility_RIGHT_WRIST,X_LEFT_PINKY,Y_LEFT_PINKY,Z_LEFT_PINKY,visibility_LEFT_PINKY,X_RIGHT_PINKY,Y_RIGHT_PINKY,Z_RIGHT_PINKY,visibility_RIGHT_PINKY,X_LEFT_INDEX,Y_LEFT_INDEX,Z_LEFT_INDEX,visibility_LEFT_INDEX,X_RIGHT_INDEX,Y_RIGHT_INDEX,Z_RIGHT_INDEX,visibility_RIGHT_INDEX,X_LEFT_THUMB,Y_LEFT_THUMB,Z_LEFT_THUMB,visibility_LEFT_THUMB,X_RIGHT_THUMB,Y_RIGHT_THUMB,Z_RIGHT_THUMB,visibility_RIGHT_THUMB,X_LEFT_HIP,Y_LEFT_HIP,Z_LEFT_HIP,visibility_LEFT_HIP,X_RIGHT_HIP,Y_RIGHT_HIP,Z_RIGHT_HIP,visibility_RIGHT_HIP,X_LEFT_KNEE,Y_LEFT_KNEE,Z_LEFT_KNEE,visibility_LEFT_KNEE,X_RIGHT_KNEE,Y_RIGHT_KNEE,Z_RIGHT_KNEE,visibility_RIGHT_KNEE,X_LEFT_ANKLE,Y_LEFT_ANKLE,Z_LEFT_ANKLE,visibility_LEFT_ANKLE,X_RIGHT_ANKLE,Y_RIGHT_ANKLE,Z_RIGHT_ANKLE,visibility_RIGHT_ANKLE,X_LEFT_HEEL,Y_LEFT_HEEL,Z_LEFT_HEEL,visibility_LEFT_HEEL,X_RIGHT_HEEL,Y_RIGHT_HEEL,Z_RIGHT_HEEL,visibility_RIGHT_HEEL,X_LEFT_FOOT_INDEX,Y_LEFT_FOOT_INDEX,Z_LEFT_FOOT_INDEX,visibility_LEFT_FOOT_INDEX,X_RIGHT_FOOT_INDEX,Y_RIGHT_FOOT_INDEX,Z_RIGHT_FOOT_INDEX,visibility_RIGHT_FOOT_INDEX
14452.746253859434,0.4882027208805084,0.27186256647109985,-0.8892195820808411,0.9999196529388428,0.5004935264587402,0.2521292269229889,-0.844177782535553,0.9998281002044678,0.5096439719200134,0.25220534205436707,-0.8443372845649719,0.9997976422309875,0.5180685520172119,0.2523804008960724,-0.8445085883140564,0.9997798800468445,0.46964031457901,0.25159797072410583,-0.8655726909637451,0.9997941851615906,0.45458781719207764,0.251283198595047,-0.8657335638999939,0.999771773815155,0.44128990173339844,0.2510787546634674,-0.865971565246582,0.9997678399085999,0.5235424637794495,0.25844427943229675,-0.5200064182281494,0.9997422099113464,0.4097852408885956,0.25980204343795776,-0.6300460696220398,0.9997974038124084,0.5003061294555664,0.29388228058815,-0.7611116170883179,0.9999487400054932,0.46321871876716614,0.29384633898735046,-0.7929994463920593,0.9999547004699707,0.5954444408416748,0.3791670799255371,-0.2768937051296234,0.999924898147583,0.313754677772522,0.37941592931747437,-0.43003445863723755,0.9998069405555725,0.6249064207077026,0.5304450392723083,-0.06928496062755585,0.9638060927391052,0.29427486658096313,0.5334221124649048,-0.4557945728302002,0.974683403968811,0.6586506366729736,0.6633173823356628,-0.3161688446998596,0.9405691623687744,0.37899380922317505,0.5857856273651123,-0.8060073256492615,0.9432387351989746,0.6716582775115967,0.7054736614227295,-0.3972221314907074,0.9039518237113953,0.3964070975780487,0.6009564995765686,-0.8960519433021545,0.9194796681404114,0.656661868095398,0.7089502215385437,-0.4780504107475281,0.9132978916168213,0.403380811214447,0.5795053839683533,-0.9605861902236938,0.9244845509529114,0.6470564603805542,0.6990835070610046,-0.3520679473876953,0.9179031848907471,0.3990030884742737,0.5727585554122925,-0.8336054682731628,0.9090045690536499,0.5588546991348267,0.649908185005188,0.028523731976747513,0.9978686571121216,0.3992767035961151,0.6547999978065491,-0.02828981913626194,0.9959650039672852,0.5564994812011719,0.8668251037597656,-0.08983004093170166,0.3931489884853363,0.4142477214336395,0.8693894743919373,-0.07061786204576492,0.34970226883888245,0.5445027351379395,1.0463590621948242,0.4598294496536255,0.1654166281223297,0.4226246178150177,1.0499672889709473,0.4329577088356018,0.1901877075433731,0.5337216854095459,1.0681679248809814,0.4965963661670685,0.18579207360744476,0.4287723898887634,1.068861961364746,0.46934178471565247,0.12128107249736786,0.5703397989273071,1.1148618459701538,0.20127171277999878,0.17210200428962708,0.43375688791275024,1.125955581665039,0.11794839799404144,0.17757178843021393
14469.4129205261,0.48829808831214905,0.2659631669521332,-0.8818681240081787,0.9999369382858276,0.499967098236084,0.2472359538078308,-0.8349736332893372,0.9998656511306763,0.5090686678886414,0.24738430976867676,-0.8351398706436157,0.9998353719711304,0.5178865194320679,0.24743030965328217,-0.835296094417572,0.9998199343681335,0.4700045585632324,0.24683430790901184,-0.8563107252120972,0.999852180480957,0.45564302802085876,0.24680927395820618,-0.8565087914466858,0.9998379945755005,0.44307565689086914,0.24671661853790283,-0.8567368984222412,0.999840497970581,0.5235591530799866,0.2542705535888672,-0.5127075910568237,0.999782383441925,0.4115751385688782,0.2563028931617737,-0.6242296695709229,0.9998564720153809,0.5007032752037048,0.28751319646835327,-0.755829930305481,0.9999570846557617,0.4646298587322235,0.2870907485485077,-0.7881766557693481,0.9999653100967407,0.5951968431472778,0.37844860553741455,-0.281607985496521,0.9999040365219116,0.3152180314064026,0.3769659698009491,-0.42719918489456177,0.9998247027397156,0.6272290945053101,0.5290393233299255,-0.07030325382947922,0.957500159740448,0.2941693961620331,0.5328816771507263,-0.4656293988227844,0.9766209125518799,0.6628973484039307,0.6656902432441711,-0.2921365201473236,0.9233708381652832,0.3786414563655853,0.5860573649406433,-0.8220230340957642,0.9484590291976929,0.6737099289894104,0.7060937881469727,-0.3668976128101349,0.8814976215362549,0.3977642059326172,0.6006441116333008,-0.9109354019165039,0.9258525967597961,0.6588069796562195,0.7103220820426941,-0.4441503882408142,0.8914373517036438,0.40420955419540405,0.5801226496696472,-0.969380259513855,0.9301995038986206,0.6502678394317627,0.6992773413658142,-0.3256031274795532,0.8991057276725769,0.39986541867256165,0.5735591650009155,-0.8470906019210815,0.9147093296051025,0.5651683211326599,0.6522620320320129,0.02009592019021511,0.9981777667999268,0.40393006801605225,0.6595010757446289,-0.019949927926063538,0.996600329875946,0.5603436231613159,0.8724915981292725,-0.08758417516946793,0.37688788771629333,0.420441597700119,0.8760251402854919,-0.05955328419804573,0.3380885720252991,0.5472549200057983,1.050496220588684,0.47110965847969055,0.1635487675666809,0.43157538771629333,1.0544918775558472,0.4442390501499176,0.19446894526481628,0.5369580984115601,1.072498083114624,0.5096144676208496,0.19319608807563782,0.438931941986084,1.0732395648956299,0.4817790687084198,0.12810249626636505,0.5736600160598755,1.118776798248291,0.2278871387243271,0.17966711521148682,0.43908029794692993,1.130396842956543,0.14191190898418427,0.19032113254070282
14486.079587192766,0.4893779754638672,0.2663858234882355,-0.8579638004302979,0.9999027252197266,0.49992820620536804,0.24727661907672882,-0.809371292591095,0.9997991919517517,0.5087011456489563,0.24736227095127106,-0.8095715641975403,0.9997623562812805,0.5174181461334229,0.24740032851696014,-0.8097533583641052,0.9997407793998718,0.47028833627700806,0.24687452614307404,-0.831568717956543,0.9997661709785461,0.4557996094226837,0.24678704142570496,-0.8317270874977112,0.9997376799583435,0.44335970282554626,0.24673981964588165,-0.8319754600524902,0.9997333884239197,0.5224120616912842,0.25440794229507446,-0.4803924262523651,0.9996935129165649,0.41163602471351624,0.2564179599285126,-0.5948242545127869,0.9997684359550476,0.5021995306015015,0.28792130947113037,-0.7295375466346741,0.999940037727356,0.4669744670391083,0.28773292899131775,-0.7627122402191162,0.9999481439590454,0.5955290198326111,0.3783265948295593,-0.24828343093395233,0.9998999834060669,0.314921498298645,0.3774998188018799,-0.3955930173397064,0.9997654557228088,0.626095175743103,0.5283543467521667,-0.04402249678969383,0.9566829204559326,0.29321587085723877,0.5339367985725403,-0.42296141386032104,0.9717721343040466,0.658544659614563,0.6612681150436401,-0.29700300097465515,0.9242569804191589,0.37989217042922974,0.5864852666854858,-0.7801674008369446,0.9361644387245178,0.6729604005813599,0.7048860192298889,-0.37906429171562195,0.8824623823165894,0.39779359102249146,0.6017915606498718,-0.8709275722503662,0.9100309610366821,0.6588767170906067,0.7090942859649658,-0.4593833088874817,0.8935691118240356,0.4040638506412506,0.5801559686660767,-0.9336743950843811,0.9155195355415344,0.6488765478134155,0.698870062828064,-0.33297327160835266,0.8996940851211548,0.399800181388855,0.5734901428222656,-0.80718994140625,0.8975253105163574,0.5624535083770752,0.6537386178970337,0.024893423542380333,0.9978049397468567,0.40299534797668457,0.6597853899002075,-0.02464364282786846,0.9956098198890686,0.558060348033905,0.8729429244995117,-0.10251222550868988,0.37865766882896423,0.41868942975997925,0.8756510019302368,-0.060999054461717606,0.32588762044906616,0.5362173318862915,1.0323762893676758,0.4756696820259094,0.151892751455307,0.42916154861450195,1.0375943183898926,0.47481173276901245,0.1747206747531891,0.5369260311126709,1.074439287185669,0.5154294967651367,0.1828671246767044,0.43707674741744995,1.0727849006652832,0.5149373412132263,0.12029262632131577,0.5735569000244141,1.1200112104415894,0.22005993127822876,0.15940527617931366,0.43788450956344604,1.128530502319336,0.16342417895793915,0.1694646030664444
14502.746253859432,0.4903908669948578,0.2674655616283417,-0.8389797806739807,0.9999023675918579,0.501021683216095,0.248460590839386,-0.7902832627296448,0.9997993111610413,0.5097118616104126,0.24855820834636688,-0.7904869318008423,0.999765932559967,0.5181214809417725,0.24855618178844452,-0.790669322013855,0.999745786190033,0.47158655524253845,0.2479301393032074,-0.813005805015564,0.9997637867927551,0.45780161023139954,0.2477371245622635,-0.8131610155105591,0.9997351765632629,0.4448443651199341,0.24748922884464264,-0.8134068250656128,0.9997294545173645,0.5219780802726746,0.25515642762184143,-0.46430858969688416,0.9997113347053528,0.41257134079933167,0.25666314363479614,-0.5806604027748108,0.9997665286064148,0.5024460554122925,0.28893959522247314,-0.711854100227356,0.9999418258666992,0.46851879358291626,0.2884744703769684,-0.7456109523773193,0.9999487400054932,0.5931463837623596,0.3782792389392853,-0.24115246534347534,0.9999096393585205,0.31517279148101807,0.3778013288974762,-0.3858199119567871,0.9997574687004089,0.6254574060440063,0.5295326709747314,-0.0469951406121254,0.9614540934562683,0.29353299736976624,0.5340337753295898,-0.42695537209510803,0.9709492325782776,0.659649670124054,0.6638215184211731,-0.30421775579452515,0.932227611541748,0.3788229525089264,0.586027979850769,-0.7950482964515686,0.9363136291503906,0.6741435527801514,0.707107424736023,-0.3881009519100189,0.893791139125824,0.3975476622581482,0.6011219024658203,-0.8874003887176514,0.9112818241119385,0.6584488153457642,0.7110949158668518,-0.46744218468666077,0.9036985635757446,0.4039793312549591,0.5796693563461304,-0.9495453834533691,0.9165759086608887,0.6483854055404663,0.7007671594619751,-0.33979806303977966,0.9089277982711792,0.3994311988353729,0.5730775594711304,-0.8221514225006104,0.8987428545951843,0.5613352060317993,0.6540985107421875,0.023556899279356003,0.9978525638580322,0.40185192227363586,0.6604203581809998,-0.023314226418733597,0.995681643486023,0.558311939239502,0.8749131560325623,-0.09911005944013596,0.4142325818538666,0.4195459485054016,0.8787583708763123,-0.057696618139743805,0.3452785313129425,0.5476936101913452,1.052357792854309,0.47940126061439514,0.16741584241390228,0.43241119384765625,1.0536986589431763,0.47227907180786133,0.18741481006145477,0.5376219153404236,1.074149250984192,0.5190245509147644,0.18544644117355347,0.4403330981731415,1.0727618932724,0.5118852853775024,0.12755748629570007,0.5708605051040649,1.1211684942245483,0.22478307783603668,0.17153142392635345,0.43901705741882324,1.128343105316162,0.16360795497894287,0.1818460375070572
14519.412920526098,0.4880441427230835,0.2689838707447052,-0.8480686545372009,0.999893069267273,0.5000364780426025,0.249332994222641,-0.7998277544975281,0.9997820258140564,0.5093877911567688,0.2493290901184082,-0.8000433444976807,0.9997448325157166,0.5179564952850342,0.24943234026432037,-0.8002387881278992,0.9997187256813049,0.4697139859199524,0.2492101937532425,-0.8213189244270325,0.9997490048408508,0.45546257495880127,0.24923665821552277,-0.8214823603630066,0.9997220635414124,0.4427146017551422,0.2492726594209671,-0.8217335343360901,0.9997163414955139,0.5241979956626892,0.2565987706184387,-0.46967002749443054,0.9996875524520874,0.4118170142173767,0.2587783634662628,-0.580289900302887,0.9997581839561462,0.5002970695495605,0.2909867465496063,-0.718822717666626,0.9999328851699829,0.4651905596256256,0.29053595662117004,-0.7509416937828064,0.9999425411224365,0.5945743322372437,0.3801686465740204,-0.23785755038261414,0.9998873472213745,0.31411105394363403,0.3785821497440338,-0.37914177775382996,0.9997524619102478,0.6264492273330688,0.5302211046218872,-0.033356569707393646,0.954706072807312,0.2937838137149811,0.5336204171180725,-0.4140646755695343,0.9661518931388855,0.6611671447753906,0.6623188257217407,-0.2858697175979614,0.9113766551017761,0.3788972496986389,0.5864211916923523,-0.786831259727478,0.9258679151535034,0.6739073991775513,0.7057076096534729,-0.3666209876537323,0.8673514723777771,0.3978840410709381,0.6014499664306641,-0.8785486817359924,0.8996975421905518,0.6604080200195312,0.7100069522857666,-0.4477322995662689,0.8800997138023376,0.4048314094543457,0.5798425078392029,-0.9412046670913696,0.9059731960296631,0.6507510542869568,0.6995948553085327,-0.3220002353191376,0.8881279230117798,0.400214821100235,0.5733097791671753,-0.8141876459121704,0.8858473896980286,0.5616937279701233,0.6572579741477966,0.022568227723240852,0.9976533055305481,0.4016885459423065,0.6635676026344299,-0.02231930010020733,0.9953174591064453,0.5626237988471985,0.8771896958351135,-0.11136170476675034,0.3713023066520691,0.42051005363464355,0.8817790746688843,-0.06156409531831741,0.3239995837211609,0.5520904064178467,1.0595629215240479,0.46665817499160767,0.15254317224025726,0.4312712252140045,1.0614705085754395,0.46495118737220764,0.18226183950901031,0.5424426794052124,1.0817869901657104,0.5064949989318848,0.1821662336587906,0.4392319917678833,1.0811209678649902,0.5042179226875305,0.1290578991174698,0.5771907567977905,1.1275783777236938,0.2120155394077301,0.15920117497444153,0.4363730549812317,1.1358680725097656,0.15411826968193054,0.1751629263162613
14536.079587192764,0.4882996082305908,0.26831457018852234,-0.873498260974884,0.9998975992202759,0.5000870227813721,0.24884997308254242,-0.824314296245575,0.999784529209137,0.5092628002166748,0.24894191324710846,-0.8245187401771545,0.9997419714927673,0.5180147886276245,0.24896135926246643,-0.8246990442276001,0.9997144341468811,0.4698207974433899,0.24843449890613556,-0.846213698387146,0.9997585415840149,0.455501526594162,0.24827304482460022,-0.8463798761367798,0.9997319579124451,0.44281435012817383,0.24807219207286835,-0.8466268181800842,0.9997312426567078,0.5232738852500916,0.255843847990036,-0.4922116696834564,0.9996675252914429,0.4114067554473877,0.25757840275764465,-0.6052136421203613,0.9997662901878357,0.5004443526268005,0.28984323143959045,-0.7439886927604675,0.9999336004257202,0.46578556299209595,0.28937268257141113,-0.7768078446388245,0.9999445676803589,0.5937650799751282,0.37927186489105225,-0.2575598359107971,0.9998749494552612,0.3143573999404907,0.37809479236602783,-0.4020390510559082,0.9997650980949402,0.6256927847862244,0.5296145677566528,-0.04895038530230522,0.9505334496498108,0.29335978627204895,0.5341746807098389,-0.43160200119018555,0.9713077545166016,0.6612793803215027,0.6628928184509277,-0.2981666624546051,0.9028101563453674,0.3805868923664093,0.5866607427597046,-0.795755922794342,0.9341912865638733,0.673829972743988,0.705777645111084,-0.37802717089653015,0.8549308776855469,0.39909008145332336,0.6019770503044128,-0.8876904845237732,0.9075868129730225,0.6607759594917297,0.710376501083374,-0.4591785967350006,0.867546021938324,0.40598759055137634,0.5802436470985413,-0.9495462775230408,0.9129664897918701,0.6511263847351074,0.6997148990631104,-0.33431652188301086,0.8766882419586182,0.4015348553657532,0.573482871055603,-0.8225674033164978,0.8935030698776245,0.561448335647583,0.6553613543510437,0.020586013793945312,0.9978430271148682,0.4027344286441803,0.6615878343582153,-0.020345283672213554,0.995863676071167,0.5603678822517395,0.8742072582244873,-0.09963392466306686,0.3978325426578522,0.4196993410587311,0.878143310546875,-0.05553198978304863,0.3613477945327759,0.5485917925834656,1.05356764793396,0.481859028339386,0.17140688002109528,0.42935553193092346,1.055916428565979,0.4783552289009094,0.2068752944469452,0.5379104614257812,1.076035976409912,0.521811842918396,0.20081530511379242,0.43764543533325195,1.0753448009490967,0.5182112455368042,0.14251630008220673,0.5761463046073914,1.1206632852554321,0.2266685664653778,0.18036159873008728,0.43320173025131226,1.130191445350647,0.16644974052906036,0.19798308610916138
14552.74625385943,0.48765772581100464,0.2722216844558716,-0.8399930596351624,0.9998677968978882,0.4998839199542999,0.25224894285202026,-0.7915447950363159,0.999727189540863,0.5094834566116333,0.2519981563091278,-0.7917676568031311,0.9996950626373291,0.5178801417350769,0.2521343529224396,-0.7919811010360718,0.9996665716171265,0.46986135840415955,0.25236278772354126,-0.8133729100227356,0.9996615648269653,0.45584097504615784,0.25240105390548706,-0.8135199546813965,0.9996275901794434,0.44318240880966187,0.2528162896633148,-0.81379634141922,0.9996076226234436,0.5240843892097473,0.2591511309146881,-0.45660316944122314,0.9996368885040283,0.4124354422092438,0.26163822412490845,-0.5675352811813354,0.9996703863143921,0.5001010298728943,0.29395148158073425,-0.708167552947998,0.9999178647994995,0.4640086591243744,0.29401442408561707,-0.7404425144195557,0.9999239444732666,0.5945205092430115,0.3801416754722595,-0.22044385969638824,0.9999023675918579,0.3141940236091614,0.3798984885215759,-0.3677811622619629,0.9997079968452454,0.6236492395401001,0.5300290584564209,-0.02318861521780491,0.9607148170471191,0.29676175117492676,0.5336021184921265,-0.40522050857543945,0.9630141258239746,0.6628040671348572,0.6633782386779785,-0.2924695909023285,0.9343200922012329,0.38043224811553955,0.5864428877830505,-0.7822336554527283,0.9282894134521484,0.6784728169441223,0.7072880268096924,-0.37769344449043274,0.8971858620643616,0.39852526783943176,0.60157310962677,-0.8755798935890198,0.9033109545707703,0.6626986265182495,0.7116369009017944,-0.46123284101486206,0.9079576730728149,0.40620946884155273,0.5805793404579163,-0.9425291419029236,0.9097166061401367,0.6522759795188904,0.7012382745742798,-0.3302423655986786,0.9126895070075989,0.4018101990222931,0.5739786624908447,-0.8115272521972656,0.8905382752418518,0.560545027256012,0.6564105749130249,0.027437848970294,0.9973523616790771,0.40025949478149414,0.6629928350448608,-0.02715219184756279,0.9947220087051392,0.5586414337158203,0.8790899515151978,-0.1022765189409256,0.41982603073120117,0.4189148247241974,0.8832627534866333,-0.0643172562122345,0.3480132818222046,0.5483836531639099,1.0574647188186646,0.502985954284668,0.16468259692192078,0.4323514699935913,1.0590734481811523,0.4843888580799103,0.1927262395620346,0.5386078357696533,1.0791409015655518,0.544883131980896,0.18918076157569885,0.44046303629875183,1.078393578529358,0.5251993536949158,0.12849761545658112,0.5706624984741211,1.1261364221572876,0.24291956424713135,0.16568319499492645,0.4395919740200043,1.133669137954712,0.16674315929412842,0.18277573585510254
14569.412920526096,0.4860924184322357,0.2716863751411438,-0.8818775415420532,0.9998941421508789,0.49903470277786255,0.2521064281463623,-0.8349754214286804,0.9997648596763611,0.5087542533874512,0.252199649810791,-0.835166871547699,0.9997256398200989,0.5176919102668762,0.25258052349090576,-0.8353562951087952,0.9996947050094604,0.4679546356201172,0.25119563937187195,-0.8542755842208862,0.9997270703315735,0.45337438583374023,0.250754177570343,-0.8544323444366455,0.9996986389160156,0.44089534878730774,0.25054290890693665,-0.854678750038147,0.9996912479400635,0.524828314781189,0.2591544985771179,-0.5041378140449524,0.9996434450149536,0.4109949469566345,0.2590833604335785,-0.6050059795379639,0.999731719493866,0.4982738792896271,0.29360395669937134,-0.7518473863601685,0.9999285936355591,0.46104705333709717,0.29282036423683167,-0.781144380569458,0.9999392032623291,0.593804121017456,0.3805354833602905,-0.2632960379123688,0.999886155128479,0.3143776059150696,0.3788452446460724,-0.39911216497421265,0.9997665286064148,0.6234552264213562,0.5305879712104797,-0.055758342146873474,0.9569474458694458,0.2940765619277954,0.5344226956367493,-0.4259982109069824,0.9682464003562927,0.6622183918952942,0.6647936105728149,-0.3067813515663147,0.9181064367294312,0.3833610415458679,0.585639238357544,-0.7945142388343811,0.9310022592544556,0.6751495003700256,0.7081150412559509,-0.3877388536930084,0.8746075630187988,0.40180787444114685,0.6010288596153259,-0.8867312073707581,0.904577910900116,0.6605831384658813,0.7123112082481384,-0.46969059109687805,0.8862441778182983,0.40954968333244324,0.5806000828742981,-0.949523389339447,0.9102963805198669,0.6507295370101929,0.7013031840324402,-0.343152791261673,0.8937116265296936,0.4052598178386688,0.5736314058303833,-0.8219076991081238,0.8917286992073059,0.5597555637359619,0.6570101380348206,0.02327796444296837,0.9976643323898315,0.4017464220523834,0.6614463329315186,-0.023026002570986748,0.9955825209617615,0.5566914677619934,0.8752985000610352,-0.09024052321910858,0.3885525166988373,0.4184187948703766,0.8772413730621338,-0.04970907047390938,0.3443799614906311,0.54570472240448,1.054304838180542,0.4763176441192627,0.16271767020225525,0.4275268614292145,1.037656545639038,0.48639607429504395,0.1893555074930191,0.5356062650680542,1.076696515083313,0.5146374106407166,0.18995480239391327,0.4364059567451477,1.0743579864501953,0.5261229276657104,0.12974129617214203,0.5702976584434509,1.1217453479766846,0.21561923623085022,0.16570788621902466,0.4335762560367584,1.1299444437026978,0.17184391617774963,0.1769101321697235
14586.079587192762,0.4884128272533417,0.26998820900917053,-0.8388566970825195,0.9998879432678223,0.5005413889884949,0.25065115094184875,-0.7908942103385925,0.9997568726539612,0.5097023844718933,0.2507596015930176,-0.7911005020141602,0.9997192025184631,0.5183260440826416,0.2509806454181671,-0.7912906408309937,0.9996902942657471,0.4704165458679199,0.24995677173137665,-0.8122060894966125,0.9997150301933289,0.45604804158210754,0.2496105283498764,-0.8123583197593689,0.9996839761734009,0.4435020387172699,0.24925099313259125,-0.8126052021980286,0.9996732473373413,0.523883581161499,0.2577032744884491,-0.4639083743095398,0.9996402263641357,0.41242289543151855,0.2581877112388611,-0.5738645792007446,0.9997175335884094,0.5005099773406982,0.291607528924942,-0.7109222412109375,0.9999275207519531,0.4648742377758026,0.2909456491470337,-0.7428233623504639,0.9999374151229858,0.5934743285179138,0.38027074933052063,-0.2344980090856552,0.9998972415924072,0.314422070980072,0.3775802552700043,-0.3777599632740021,0.9997521042823792,0.6237466931343079,0.5304237604141235,-0.03544522449374199,0.9595242142677307,0.29382234811782837,0.533036470413208,-0.41078269481658936,0.9670074582099915,0.6621662378311157,0.6645026206970215,-0.28967973589897156,0.9268891215324402,0.37955546379089355,0.5873347520828247,-0.7753159999847412,0.9285507202148438,0.6757949590682983,0.7077856063842773,-0.37165534496307373,0.8862382173538208,0.39884594082832336,0.6022061705589294,-0.8666369915008545,0.9019737243652344,0.6611347198486328,0.712144672870636,-0.45238277316093445,0.8970461487770081,0.4056512713432312,0.5809627175331116,-0.9298233985900879,0.9077099561691284,0.6511853933334351,0.7014527320861816,-0.3258073031902313,0.9031887054443359,0.40108492970466614,0.5744714736938477,-0.802857518196106,0.8889284729957581,0.5590817928314209,0.6553569436073303,0.02584884501993656,0.99772709608078,0.40117502212524414,0.6602621674537659,-0.025595858693122864,0.9955607652664185,0.557590663433075,0.8743388056755066,-0.09140287339687347,0.39552831649780273,0.41930559277534485,0.877810001373291,-0.05423756316304207,0.33369600772857666,0.5467857718467712,1.0511229038238525,0.47522997856140137,0.16150765120983124,0.4288872480392456,1.036611557006836,0.4793637990951538,0.1844964176416397,0.536842942237854,1.073201060295105,0.513775646686554,0.18717151880264282,0.4391251504421234,1.0721807479858398,0.5189207792282104,0.1254788041114807,0.5707604885101318,1.1190335750579834,0.21933729946613312,0.1658482700586319,0.4371061623096466,1.1274930238723755,0.16801103949546814,0.17578062415122986
14602.746253859428,0.4900174140930176,0.2750823497772217,-0.858366072177887,0.9999169111251831,0.5020371675491333,0.25453808903694153,-0.8120046257972717,0.9998267292976379,0.5111109018325806,0.2543872892856598,-0.812190055847168,0.9998000264167786,0.5194622278213501,0.2543420195579529,-0.8123884201049805,0.9997755885124207,0.47114384174346924,0.25400057435035706,-0.8354377150535583,0.9997987151145935,0.45566099882125854,0.25336527824401855,-0.8355738520622253,0.999777615070343,0.44225338101387024,0.2529016435146332,-0.8358375430107117,0.9997668862342834,0.524608850479126,0.2600232660770416,-0.4746856689453125,0.9997565150260925,0.4117977023124695,0.25991928577423096,-0.5931670069694519,0.9998277425765991,0.5021095275878906,0.2965574264526367,-0.7242387533187866,0.999948263168335,0.4642217755317688,0.29668521881103516,-0.758666455745697,0.9999586343765259,0.5925151109695435,0.37987977266311646,-0.21388569474220276,0.9999202489852905,0.315095990896225,0.3781028687953949,-0.39422962069511414,0.9997933506965637,0.6230719089508057,0.5329784154891968,0.0021774470806121826,0.9619160294532776,0.29453158378601074,0.5340044498443604,-0.4439016580581665,0.9734434485435486,0.6606946587562561,0.6673327088356018,-0.2583014667034149,0.9425792098045349,0.3783743679523468,0.5857443809509277,-0.8208659887313843,0.940346896648407,0.6774211525917053,0.7106164693832397,-0.3414423167705536,0.9071363210678101,0.40127474069595337,0.6027985215187073,-0.91386479139328,0.9134764075279236,0.6632229685783386,0.714077889919281,-0.42492401599884033,0.9168375730514526,0.41042280197143555,0.5804123878479004,-0.9793066382408142,0.9191321134567261,0.6523827314376831,0.7042506337165833,-0.29590898752212524,0.9184715151786804,0.40482568740844727,0.5736450552940369,-0.8488643169403076,0.9015661478042603,0.5580319762229919,0.6554610133171082,0.03954699635505676,0.9974811673164368,0.39950641989707947,0.6614820957183838,-0.0392715148627758,0.9953612685203552,0.5622979402542114,0.873857319355011,-0.09605030715465546,0.5223703384399414,0.42486780881881714,0.8775873184204102,-0.07543040812015533,0.39964184165000916,0.5500814318656921,1.0596566200256348,0.4885844886302948,0.22002795338630676,0.4411159157752991,1.060884952545166,0.4635378420352936,0.22597481310367584,0.5379409790039062,1.0816093683242798,0.5273873805999756,0.22451870143413544,0.4482436776161194,1.0806795358657837,0.5028550028800964,0.14114759862422943,0.5727602243423462,1.1307193040847778,0.21572646498680115,0.2013610154390335,0.44981521368026733,1.1355654001235962,0.13545987010002136,0.20733003318309784
14619.412920526094,0.487112820148468,0.2756187915802002,-0.8100165724754333,0.9999178647994995,0.5000542402267456,0.2552262842655182,-0.7640258073806763,0.9998354911804199,0.5097029805183411,0.2551100552082062,-0.7642462849617004,0.9998119473457336,0.5183872580528259,0.2552643418312073,-0.7644630670547485,0.999786913394928,0.46793535351753235,0.2545130252838135,-0.7856881618499756,0.9998118281364441,0.4523458778858185,0.2538560926914215,-0.7858127355575562,0.9997943043708801,0.4390489459037781,0.2535407245159149,-0.7860919237136841,0.9997835755348206,0.5251402854919434,0.2611764073371887,-0.4331091046333313,0.9997754693031311,0.4109804332256317,0.2607777714729309,-0.5432875156402588,0.9998490810394287,0.49974411725997925,0.2977321743965149,-0.6786781549453735,0.9999493360519409,0.4601055085659027,0.2975763976573944,-0.7106537222862244,0.9999617338180542,0.5924760103225708,0.38099604845046997,-0.18417584896087646,0.999914288520813,0.3134083151817322,0.3790333867073059,-0.34809574484825134,0.9997887015342712,0.6228919625282288,0.5339494347572327,0.022661995142698288,0.963304877281189,0.2928481101989746,0.536055326461792,-0.40994173288345337,0.9708961844444275,0.6622410416603088,0.66610187292099,-0.2467632293701172,0.94580078125,0.37829452753067017,0.5849112868309021,-0.8095539808273315,0.9423010349273682,0.6789697408676147,0.7095093131065369,-0.33113884925842285,0.9143958687782288,0.4017946124076843,0.601844072341919,-0.90388423204422,0.9182870984077454,0.6648800373077393,0.7128064036369324,-0.41470062732696533,0.9240373373031616,0.41199299693107605,0.5796647071838379,-0.9668766260147095,0.9241963028907776,0.6541467905044556,0.7032460570335388,-0.2844749987125397,0.9255696535110474,0.40585750341415405,0.5731083154678345,-0.8368903994560242,0.9071882367134094,0.5565929412841797,0.6589236855506897,0.03708961606025696,0.9969766139984131,0.39765164256095886,0.6647854447364807,-0.03677476942539215,0.9944453835487366,0.5616732835769653,0.8781250715255737,-0.10197080671787262,0.5087445378303528,0.4230090379714966,0.8822917938232422,-0.06839627027511597,0.39257821440696716,0.5530258417129517,1.0629401206970215,0.4734707772731781,0.19512487947940826,0.4373730421066284,1.0615942478179932,0.4604435861110687,0.20143534243106842,0.5418109893798828,1.085330605506897,0.511665403842926,0.20385226607322693,0.4440590441226959,1.081590175628662,0.4995787739753723,0.13374190032482147,0.5751206278800964,1.1323139667510986,0.2068382203578949,0.16716405749320984,0.44593679904937744,1.13461172580719,0.141450896859169,0.17960761487483978
14636.07958719276,0.4842080771923065,0.2780011296272278,-0.8435700535774231,0.9998944997787476,0.4976925253868103,0.25757890939712524,-0.7974953651428223,0.9997803568840027,0.5073184967041016,0.2576073706150055,-0.7976903915405273,0.9997500777244568,0.5162174701690674,0.2579142153263092,-0.7978951930999756,0.9997171759605408,0.46538299322128296,0.2561514973640442,-0.8185746669769287,0.9997439980506897,0.45059677958488464,0.2552567720413208,-0.8187020421028137,0.9997201561927795,0.4376879036426544,0.25480157136917114,-0.8189859986305237,0.999699592590332,0.5236374735832214,0.2632005214691162,-0.460021436214447,0.9997010231018066,0.41108211874961853,0.2613753378391266,-0.5680740475654602,0.9997861981391907,0.4972010850906372,0.29986679553985596,-0.7094581723213196,0.9999350309371948,0.45674723386764526,0.2991645336151123,-0.7408549189567566,0.9999489784240723,0.5917673110961914,0.3804912865161896,-0.20046184957027435,0.9999107122421265,0.31328701972961426,0.37886062264442444,-0.3698291480541229,0.9997778534889221,0.6233918070793152,0.5340198278427124,0.013518650084733963,0.9646626710891724,0.29575115442276,0.5351274609565735,-0.43688663840293884,0.9686872959136963,0.6627072095870972,0.6665830016136169,-0.2501536011695862,0.9483947157859802,0.3779010772705078,0.5843865871429443,-0.8430159687995911,0.9364140629768372,0.6793690323829651,0.7115463614463806,-0.3334352970123291,0.9165756702423096,0.4014911353588104,0.6012953519821167,-0.9389549493789673,0.9106898307800293,0.6644769906997681,0.7142968773841858,-0.418874055147171,0.925682783126831,0.41111546754837036,0.5796626806259155,-1.0045084953308105,0.9167065024375916,0.653299868106842,0.7046830058097839,-0.2883026897907257,0.926625669002533,0.40508192777633667,0.5734434127807617,-0.8718673586845398,0.8992253541946411,0.5575226545333862,0.6586548089981079,0.04087486490607262,0.9971407651901245,0.3984716236591339,0.6663546562194824,-0.04056500643491745,0.994946300983429,0.5623820424079895,0.8772755265235901,-0.09016338735818863,0.5454970002174377,0.42633721232414246,0.8842873573303223,-0.06577632576227188,0.4198777377605438,0.5516747236251831,1.063546895980835,0.48712167143821716,0.22361744940280914,0.4411473274230957,1.0632842779159546,0.4761996865272522,0.22338955104351044,0.5394489765167236,1.0860795974731445,0.5247831344604492,0.22484396398067474,0.4481808543205261,1.083216905593872,0.5156009197235107,0.14237746596336365,0.5744766592979431,1.1339778900146484,0.20966824889183044,0.19115430116653442,0.4487391710281372,1.137495517730713,0.14605753123760223,0.19881439208984375
14652.746253859426,0.48281437158584595,0.27338775992393494,-0.844097375869751,0.9998842477798462,0.49680498242378235,0.25322800874710083,-0.7975931167602539,0.9997530579566956,0.506797730922699,0.25321829319000244,-0.7977932691574097,0.9997220635414124,0.515990674495697,0.2535324990749359,-0.7979997992515564,0.9996917247772217,0.46437767148017883,0.25258132815361023,-0.8161970973014832,0.9997020363807678,0.45003241300582886,0.25231507420539856,-0.8163290023803711,0.9996746778488159,0.437775582075119,0.25235122442245483,-0.8165979385375977,0.9996600151062012,0.5248211026191711,0.2607300877571106,-0.4688888192176819,0.9996577501296997,0.41125425696372986,0.2608886659145355,-0.565378725528717,0.9997187256813049,0.4967441260814667,0.29535654187202454,-0.7146658301353455,0.9999266862869263,0.4568489193916321,0.2947181165218353,-0.742709755897522,0.999936580657959,0.5941677093505859,0.3813876211643219,-0.22957275807857513,0.9998934268951416,0.3165261149406433,0.37797999382019043,-0.368573933839798,0.9997496008872986,0.6221436262130737,0.5309435129165649,-0.03134215623140335,0.9603064060211182,0.29310858249664307,0.5323773622512817,-0.4091431796550751,0.9645614624023438,0.6609579920768738,0.6652286052703857,-0.29372838139533997,0.9307935237884521,0.37998563051223755,0.587351381778717,-0.7876139879226685,0.9293141961097717,0.6747094392776489,0.7091812491416931,-0.3775627911090851,0.8917418718338013,0.3993566632270813,0.6025379300117493,-0.8808351159095764,0.9030153155326843,0.661911129951477,0.7137691378593445,-0.4602693021297455,0.9027525782585144,0.40750396251678467,0.5816978216171265,-0.9448107481002808,0.9090525507926941,0.6517740488052368,0.702882707118988,-0.330985963344574,0.9079148173332214,0.40297549962997437,0.575048565864563,-0.8157503008842468,0.8908045291900635,0.5579398274421692,0.6561064720153809,0.028856616467237473,0.9972277283668518,0.39888936281204224,0.6614412069320679,-0.028580397367477417,0.9948257207870483,0.5591396689414978,0.8754037618637085,-0.09642970561981201,0.4346705973148346,0.42039692401885986,0.8799231052398682,-0.05975852161645889,0.3689817786216736,0.5411668419837952,1.0345574617385864,0.4878758192062378,0.17238849401474,0.43602389097213745,1.0545772314071655,0.47939956188201904,0.19247233867645264,0.5396345853805542,1.0750415325164795,0.5276452302932739,0.19064317643642426,0.44359108805656433,1.0735288858413696,0.5193302631378174,0.12544527649879456,0.5705909729003906,1.1217842102050781,0.22444477677345276,0.16470181941986084,0.4450811743736267,1.1291067600250244,0.16131101548671722,0.17621570825576782
14669.412920526092,0.4844812750816345,0.2764471173286438,-0.863793671131134,0.9998893737792969,0.4975384473800659,0.25501471757888794,-0.8198609948158264,0.999755322933197,0.5073791742324829,0.25472620129585266,-0.8200376033782959,0.9997214674949646,0.5163618326187134,0.2546880543231964,-0.8202416896820068,0.9996861219406128,0.4660756289958954,0.25510382652282715,-0.8375551104545593,0.9997172951698303,0.4514250159263611,0.2552163302898407,-0.8376888036727905,0.9996942281723022,0.4384887218475342,0.25566917657852173,-0.8379560112953186,0.9996867179870605,0.5241062641143799,0.26107269525527954,-0.4950590431690216,0.999647855758667,0.4108581244945526,0.2636193335056305,-0.5874072313308716,0.999749481678009,0.4978162944316864,0.2989046275615692,-0.7348703145980835,0.9999277591705322,0.45842260122299194,0.299473375082016,-0.7616620659828186,0.9999428987503052,0.5929527282714844,0.38011518120765686,-0.248851016163826,0.999886155128479,0.3149755895137787,0.3792009651660919,-0.38886594772338867,0.9997873902320862,0.6222419738769531,0.5303311944007874,-0.04407387599349022,0.9592624306678772,0.2937867045402527,0.5340379476547241,-0.4255777895450592,0.9708729982376099,0.6621799468994141,0.6652019619941711,-0.29885172843933105,0.9261775016784668,0.3840969204902649,0.5844345688819885,-0.7930709719657898,0.939408004283905,0.6751217842102051,0.7086939811706543,-0.38109326362609863,0.8856388330459595,0.4050973355770111,0.6012354493141174,-0.884499192237854,0.9144725203514099,0.6621204018592834,0.7131007313728333,-0.46275731921195984,0.8965750336647034,0.4142216444015503,0.5803056955337524,-0.9457732439041138,0.9193970561027527,0.6523587107658386,0.702399492263794,-0.33535927534103394,0.9034020900726318,0.4093286693096161,0.5731003284454346,-0.8195499181747437,0.9028601050376892,0.5554876327514648,0.6565520167350769,0.03151142969727516,0.9970365762710571,0.39758479595184326,0.6614210605621338,-0.031227536499500275,0.9948517680168152,0.5586752891540527,0.8724508285522461,-0.09540390223264694,0.4525018036365509,0.4217497408390045,0.8761724233627319,-0.06173461303114891,0.4042298197746277,0.5396885871887207,1.0313656330108643,0.47795847058296204,0.18520019948482513,0.4370771646499634,1.0514650344848633,0.46688464283943176,0.2132570594549179,0.5350828766822815,1.0706329345703125,0.5171650052070618,0.21345911920070648,0.4437626302242279,1.0703455209732056,0.5061981081962585,0.13908469676971436,0.5701114535331726,1.1175651550292969,0.2225113809108734,0.1734752207994461,0.4481154680252075,1.1265629529953003,0.15358074009418488,0.18421657383441925
14686.079587192758,0.4845874011516571,0.2727624773979187,-0.8593384623527527,0.999911904335022,0.4982178211212158,0.25290074944496155,-0.8115744590759277,0.9998148083686829,0.5080693364143372,0.2528194189071655,-0.811771035194397,0.9997822642326355,0.5169283747673035,0.2530590295791626,-0.8119613528251648,0.9997590184211731,0.46613284945487976,0.25235211849212646,-0.8322737216949463,0.9997815489768982,0.45119619369506836,0.25203007459640503,-0.8323947191238403,0.999756395816803,0.4388362765312195,0.2519228160381317,-0.8326596617698669,0.9997487664222717,0.5245596170425415,0.2596600353717804,-0.4726082980632782,0.9997228980064392,0.41092318296432495,0.2605286240577698,-0.5795809030532837,0.999796450138092,0.49806973338127136,0.2947551906108856,-0.7257598638534546,0.9999376535415649,0.45877504348754883,0.29430291056632996,-0.7568604946136475,0.9999488592147827,0.5900905132293701,0.3793332278728485,-0.2212001234292984,0.9998980760574341,0.3154200315475464,0.37812283635139465,-0.3819471001625061,0.9997852444648743,0.6209224462509155,0.5301750898361206,-0.01969144120812416,0.9567062258720398,0.2953285574913025,0.5361836552619934,-0.43774688243865967,0.9700745344161987,0.6622660756111145,0.6638907790184021,-0.2855190634727478,0.9338493347167969,0.3901173770427704,0.5854496359825134,-0.8283970952033997,0.9393258094787598,0.6775287985801697,0.7069483399391174,-0.3692420423030853,0.8946734070777893,0.4070984423160553,0.6014746427536011,-0.9236727952957153,0.9133143424987793,0.6640069484710693,0.7116120457649231,-0.4534958004951477,0.9052783846855164,0.41818299889564514,0.5834127068519592,-0.9878996014595032,0.9186451435089111,0.6535696983337402,0.7013458609580994,-0.32365959882736206,0.9088624715805054,0.41360947489738464,0.5765907168388367,-0.8564207553863525,0.9010345935821533,0.5581291317939758,0.6560483574867249,0.03266565874218941,0.9971240162849426,0.401420921087265,0.6613421440124512,-0.03237973898649216,0.9950147271156311,0.5584976077079773,0.8756990432739258,-0.08899803459644318,0.41980060935020447,0.4224151074886322,0.8786927461624146,-0.07509949058294296,0.37450775504112244,0.5451706051826477,1.0601494312286377,0.4771588146686554,0.17304357886314392,0.4381895661354065,1.062120795249939,0.44118693470954895,0.20477916300296783,0.5327369570732117,1.0834901332855225,0.5140852928161621,0.20400047302246094,0.44546711444854736,1.0824432373046875,0.47793716192245483,0.13730528950691223,0.5732402205467224,1.1273664236068726,0.20487302541732788,0.17102830111980438,0.44783923029899597,1.1357247829437256,0.11154317855834961,0.18869930505752563
14702.746253859425,0.4855738878250122,0.2775021195411682,-0.8976554274559021,0.9998915195465088,0.5001005530357361,0.25585466623306274,-0.8543287515640259,0.9997555613517761,0.5099127888679504,0.25548744201660156,-0.8544867634773254,0.999713122844696,0.5187177062034607,0.255540668964386,-0.8546572923660278,0.9996789693832397,0.46847033500671387,0.2558450400829315,-0.8732653856277466,0.9997097849845886,0.45332565903663635,0.25578638911247253,-0.8734275102615356,0.9996849298477173,0.4401574730873108,0.25614261627197266,-0.873702347278595,0.9996795654296875,0.525904655456543,0.2615417540073395,-0.5235295295715332,0.9996163845062256,0.41135549545288086,0.26376989483833313,-0.6225476861000061,0.9997310042381287,0.49838870763778687,0.29995566606521606,-0.7657651901245117,0.9999250173568726,0.4598202705383301,0.3005005717277527,-0.7944977879524231,0.9999397993087769,0.5930663347244263,0.38046029210090637,-0.2629110813140869,0.9998998641967773,0.3154814541339874,0.379673570394516,-0.4209540784358978,0.9998192191123962,0.6211397647857666,0.5295935869216919,-0.04806927591562271,0.9553733468055725,0.2959398627281189,0.5343805551528931,-0.4540573060512543,0.9749552011489868,0.6619319915771484,0.6637521982192993,-0.29722872376441956,0.9325936436653137,0.3853241801261902,0.5840886235237122,-0.8200013637542725,0.9464818239212036,0.6753597259521484,0.7060795426368713,-0.376992404460907,0.8944104909896851,0.40250253677368164,0.6014655232429504,-0.9110085964202881,0.9235889315605164,0.6625832319259644,0.7106431722640991,-0.460161030292511,0.9049122333526611,0.4129347801208496,0.5813407897949219,-0.9752824306488037,0.928378164768219,0.6528915762901306,0.6995797157287598,-0.3341078758239746,0.9100880026817322,0.4085470736026764,0.5737771987915039,-0.8475037217140198,0.9135891199111938,0.5579202175140381,0.6543432474136353,0.036512427031993866,0.9972310662269592,0.39909255504608154,0.6594996452331543,-0.036262158304452896,0.9952762126922607,0.5560603737831116,0.8674430847167969,-0.0821879431605339,0.3817693293094635,0.4166911542415619,0.8673070669174194,-0.07760816067457199,0.3669663369655609,0.544190526008606,1.0490326881408691,0.4749892055988312,0.16372980177402496,0.4309687614440918,1.0535855293273926,0.43703731894493103,0.19354788959026337,0.5321462750434875,1.0712895393371582,0.5125972628593445,0.2033124417066574,0.4349842071533203,1.0724332332611084,0.47454485297203064,0.1272822618484497,0.5739098191261292,1.1166865825653076,0.21580737829208374,0.17039108276367188,0.4505355954170227,1.1292827129364014,0.11655692756175995,0.1761082410812378
14719.41292052609,0.4872261881828308,0.27621880173683167,-0.8974990248680115,0.9998843669891357,0.5005570650100708,0.2547872066497803,-0.8537226915359497,0.9997400641441345,0.5101374983787537,0.2543685734272003,-0.8538872003555298,0.99969482421875,0.5184909105300903,0.2543702721595764,-0.8540605902671814,0.9996615648269653,0.46988484263420105,0.2549915313720703,-0.8741626143455505,0.9996907711029053,0.4549754559993744,0.25500690937042236,-0.8743258118629456,0.9996620416641235,0.44183167815208435,0.2555132508277893,-0.8745965957641602,0.999657392501831,0.5241926908493042,0.2603735625743866,-0.5227195620536804,0.9995831847190857,0.41187745332717896,0.26326972246170044,-0.6285021901130676,0.9997100234031677,0.49905627965927124,0.29862233996391296,-0.7655876278877258,0.9999198913574219,0.4624197781085968,0.29924723505973816,-0.7962560653686523,0.9999357461929321,0.5921720862388611,0.3795092701911926,-0.26164618134498596,0.9998986721038818,0.31460145115852356,0.3787408769130707,-0.42739197611808777,0.9998123049736023,0.6201648712158203,0.5291085243225098,-0.046911582350730896,0.9536964297294617,0.2944983243942261,0.5354173183441162,-0.44768837094306946,0.975987434387207,0.6615880131721497,0.6638233661651611,-0.29892176389694214,0.9290626645088196,0.38827598094940186,0.5855588316917419,-0.7950969934463501,0.9457778930664062,0.6753249168395996,0.7057826519012451,-0.3799670338630676,0.8889481425285339,0.40524062514305115,0.6022153496742249,-0.8840525150299072,0.9217393398284912,0.66268390417099,0.7105589509010315,-0.462420791387558,0.8999913930892944,0.4148223400115967,0.5818662643432617,-0.9490073919296265,0.9266075491905212,0.6529998183250427,0.6994261145591736,-0.3358944058418274,0.9058271646499634,0.4103943407535553,0.574509859085083,-0.8222812414169312,0.911453127861023,0.5569720268249512,0.6534661650657654,0.03921683132648468,0.9971201419830322,0.398428738117218,0.65915447473526,-0.038966380059719086,0.9950380921363831,0.5557714700698853,0.8675007224082947,-0.08294753730297089,0.3474395275115967,0.4166867136955261,0.8678830862045288,-0.08597744256258011,0.34678322076797485,0.5433928966522217,1.0486693382263184,0.47615891695022583,0.14791609346866608,0.43035757541656494,1.0534992218017578,0.4268438518047333,0.18283970654010773,0.53087317943573,1.0711778402328491,0.5140452980995178,0.19222556054592133,0.43342462182044983,1.0725973844528198,0.4641946256160736,0.12299046665430069,0.5759007930755615,1.1156466007232666,0.22030232846736908,0.1581195741891861,0.4524705111980438,1.1287131309509277,0.10721977800130844,0.1689697802066803
14736.079587192757,0.48320335149765015,0.2766658663749695,-0.9230951070785522,0.999906063079834,0.49752166867256165,0.25519928336143494,-0.8776302933692932,0.999774158000946,0.5076249241828918,0.25492528080940247,-0.877797544002533,0.9997352957725525,0.5166874527931213,0.2549782693386078,-0.8779652714729309,0.999699592590332,0.4650100767612457,0.25508061051368713,-0.8964027166366577,0.9997405409812927,0.44992420077323914,0.2550756633281708,-0.8965623378753662,0.9997166991233826,0.43678903579711914,0.25532522797584534,-0.896813690662384,0.9997108578681946,0.5248382091522217,0.26125597953796387,-0.5369094014167786,0.9996441602706909,0.4100244641304016,0.26328083872795105,-0.6342359781265259,0.9997574687004089,0.4964817464351654,0.2985030710697174,-0.7876921892166138,0.9999312162399292,0.45725157856941223,0.29906585812568665,-0.8160164952278137,0.9999463558197021,0.592689573764801,0.38055554032325745,-0.2656696140766144,0.9998914003372192,0.31544047594070435,0.3803447186946869,-0.423677921295166,0.9998273849487305,0.6202693581581116,0.5307410359382629,-0.05022098869085312,0.9567152857780457,0.29475218057632446,0.5374178290367126,-0.4493029713630676,0.9760208129882812,0.6607459187507629,0.6650606989860535,-0.31715720891952515,0.9257282614707947,0.38913267850875854,0.5855922698974609,-0.8266963362693787,0.9501643776893616,0.6755439043045044,0.7080705761909485,-0.4004596173763275,0.8835775852203369,0.40741947293281555,0.6015114784240723,-0.9223102331161499,0.9269056916236877,0.660911500453949,0.7122278213500977,-0.48699331283569336,0.8943318128585815,0.417169988155365,0.5819794535636902,-0.9865750074386597,0.9312160015106201,0.6508557796478271,0.7016277313232422,-0.3559820055961609,0.8996070623397827,0.41226279735565186,0.5750148296356201,-0.8544418215751648,0.914540708065033,0.5541637539863586,0.6580421924591064,0.03537440672516823,0.9977551102638245,0.3978573679924011,0.6636496782302856,-0.03515300527215004,0.9963154196739197,0.5599920153617859,0.8722679018974304,-0.06984830647706985,0.49054017663002014,0.41777312755584717,0.8769453167915344,-0.05713646113872528,0.47914621233940125,0.5448800921440125,1.0547417402267456,0.5025811791419983,0.24514240026474,0.4352298378944397,1.058410406112671,0.4847313463687897,0.29034972190856934,0.5315452814102173,1.0775740146636963,0.5406064391136169,0.26829981803894043,0.4414580166339874,1.0780662298202515,0.5239826440811157,0.17858269810676575,0.5771245956420898,1.1227121353149414,0.2296181321144104,0.2527952790260315,0.447795033454895,1.1336902379989624,0.1560399979352951,0.2681008577346802
14752.746253859423,0.4827273488044739,0.27424129843711853,-0.8659101128578186,0.9998732805252075,0.4975810647010803,0.2536643445491791,-0.8183350563049316,0.9997156262397766,0.5074456334114075,0.2534874677658081,-0.8185168504714966,0.9996668100357056,0.5168331861495972,0.25352710485458374,-0.818695068359375,0.9996315240859985,0.46491068601608276,0.25341764092445374,-0.838335394859314,0.9996707439422607,0.4498964548110962,0.2534598410129547,-0.8384929895401001,0.999640703201294,0.4374850392341614,0.2538163363933563,-0.8387600183486938,0.9996291399002075,0.5245535373687744,0.2605375647544861,-0.4778807461261749,0.9995536208152771,0.41156700253486633,0.2615496814250946,-0.5817174315452576,0.9996852874755859,0.4965062141418457,0.2972278892993927,-0.7315101027488708,0.999908447265625,0.45669153332710266,0.2974199950695038,-0.7617343664169312,0.9999254941940308,0.5895817875862122,0.3809458315372467,-0.21902409195899963,0.9998716115951538,0.31693679094314575,0.37840503454208374,-0.3822862505912781,0.999762237071991,0.6204208135604858,0.5304136276245117,-0.0040192934684455395,0.9479928016662598,0.29694923758506775,0.5344753265380859,-0.42154285311698914,0.965297281742096,0.6618674993515015,0.662704586982727,-0.252581924200058,0.9107847213745117,0.3866578936576843,0.5838589072227478,-0.796829879283905,0.9243081212043762,0.6755466461181641,0.7056877613067627,-0.331887423992157,0.865206241607666,0.4111741781234741,0.6010764241218567,-0.8885847926139832,0.8959274291992188,0.6622538566589355,0.7102497220039368,-0.41407886147499084,0.8775439262390137,0.4228411316871643,0.5826399326324463,-0.9529128074645996,0.9020439982414246,0.6524598598480225,0.6989685893058777,-0.28915631771087646,0.883293092250824,0.41592034697532654,0.5756702423095703,-0.8245489597320557,0.8825618028640747,0.5601961016654968,0.6587634682655334,0.03780287131667137,0.9973551034927368,0.40386712551116943,0.6675478219985962,-0.03755616024136543,0.9953845143318176,0.5625868439674377,0.8732792735099792,-0.100357286632061,0.38955605030059814,0.4253814220428467,0.8787949085235596,-0.08395631611347198,0.3402140438556671,0.5481750965118408,1.0623464584350586,0.45829975605010986,0.16732029616832733,0.44118034839630127,1.0646586418151855,0.44015902280807495,0.19458912312984467,0.5353812575340271,1.0854463577270508,0.4949624836444855,0.2017684131860733,0.4463561177253723,1.0847885608673096,0.4776851236820221,0.12928654253482819,0.5781699419021606,1.1299124956130981,0.1874355673789978,0.17192839086055756,0.45487576723098755,1.1388258934020996,0.11373637616634369,0.18477699160575867
14769.412920526089,0.4829398989677429,0.2744068503379822,-0.849153459072113,0.9998853206634521,0.49771106243133545,0.2539557218551636,-0.8018134832382202,0.9997460246086121,0.5075421333312988,0.2538009583950043,-0.8019894361495972,0.9997027516365051,0.5168948769569397,0.253855437040329,-0.8021607398986816,0.9996724128723145,0.46504083275794983,0.25357699394226074,-0.8219543695449829,0.9997052550315857,0.4499983787536621,0.25355735421180725,-0.8221059441566467,0.9996790885925293,0.43759459257125854,0.25387847423553467,-0.8223692178726196,0.9996687173843384,0.5244613289833069,0.2608005702495575,-0.4651906192302704,0.999603807926178,0.41169169545173645,0.26152363419532776,-0.5700517892837524,0.99972003698349,0.49667680263519287,0.2972717583179474,-0.7164621353149414,0.999915361404419,0.4567752480506897,0.2973562777042389,-0.7469499111175537,0.9999313354492188,0.5891185998916626,0.3808170557022095,-0.21207664906978607,0.9998792409896851,0.31680089235305786,0.37862175703048706,-0.37667134404182434,0.999772846698761,0.6200265884399414,0.5299665927886963,-0.0010998159414157271,0.9483373165130615,0.2976720333099365,0.5346062779426575,-0.42979922890663147,0.9651444554328918,0.6616575717926025,0.662988007068634,-0.24361182749271393,0.9155734181404114,0.3842203915119171,0.5834368467330933,-0.8114123940467834,0.925734281539917,0.675542950630188,0.7060183882713318,-0.32155877351760864,0.8723805546760559,0.4086202085018158,0.6005839705467224,-0.9031277894973755,0.898785412311554,0.6619604229927063,0.71041339635849,-0.4026258587837219,0.8839396238327026,0.41984620690345764,0.5816752314567566,-0.9666125178337097,0.9046600461006165,0.6520453095436096,0.6992461681365967,-0.27957117557525635,0.8892393112182617,0.41291314363479614,0.5747077465057373,-0.8390635848045349,0.8863930702209473,0.5601019859313965,0.6582542061805725,0.03845301643013954,0.997412383556366,0.4039813280105591,0.666761040687561,-0.03820628672838211,0.995612382888794,0.562186062335968,0.8730078935623169,-0.09163523465394974,0.39346396923065186,0.4258742332458496,0.878078818321228,-0.08607548475265503,0.344117671251297,0.5483579039573669,1.0611542463302612,0.4485560655593872,0.1721028834581375,0.4362929165363312,1.0411616563796997,0.4198697805404663,0.19585640728473663,0.5356608629226685,1.0843533277511597,0.4833458662033081,0.202669158577919,0.4462432563304901,1.084324836730957,0.4556155204772949,0.1288883537054062,0.5786869525909424,1.1284749507904053,0.1792289912700653,0.17361395061016083,0.4552121162414551,1.1383503675460815,0.09533262997865677,0.18372198939323425
14786.079587192755,0.48013705015182495,0.2744872272014618,-0.883984386920929,0.9999140501022339,0.4950335919857025,0.25342920422554016,-0.8349255919456482,0.9998027682304382,0.505314290523529,0.25334200263023376,-0.8350992202758789,0.9997676014900208,0.5147462487220764,0.25351008772850037,-0.8352459669113159,0.9997393488883972,0.4621018171310425,0.25367364287376404,-0.8546196222305298,0.99977046251297,0.4476085603237152,0.2539772689342499,-0.8547887206077576,0.9997513890266418,0.43490850925445557,0.2544548213481903,-0.8550400733947754,0.9997420907020569,0.5238994359970093,0.2605561316013336,-0.49248331785202026,0.9996820688247681,0.4099333584308624,0.26281726360321045,-0.5950405597686768,0.9997861981391907,0.4939929246902466,0.29685425758361816,-0.7499242424964905,0.9999423027038574,0.45440810918807983,0.296941876411438,-0.7796465754508972,0.999955415725708,0.5884577035903931,0.38027387857437134,-0.23228877782821655,0.9999043941497803,0.3158053159713745,0.3807917833328247,-0.39434441924095154,0.999812662601471,0.6196428537368774,0.530478298664093,-0.023844951763749123,0.9611243605613708,0.2949002981185913,0.5399234294891357,-0.43036407232284546,0.9749419093132019,0.662683367729187,0.6639734506607056,-0.29803788661956787,0.9387465119361877,0.38513514399528503,0.5858137011528015,-0.815494179725647,0.9431800842285156,0.6760666370391846,0.706927478313446,-0.3837129473686218,0.9017757177352905,0.40776681900024414,0.6020967364311218,-0.9114251732826233,0.9172695279121399,0.6621028780937195,0.7111697793006897,-0.46786215901374817,0.9110639095306396,0.417671799659729,0.5819799304008484,-0.9751420021057129,0.9219703674316406,0.652289867401123,0.7004355192184448,-0.3359680771827698,0.9138653874397278,0.4111084043979645,0.5749491453170776,-0.843038022518158,0.9049458503723145,0.5578211545944214,0.657293438911438,0.042624350637197495,0.9978694915771484,0.40317612886428833,0.664247453212738,-0.04241172596812248,0.9962663054466248,0.5604326128959656,0.8731493949890137,-0.07204626500606537,0.43571755290031433,0.4206153452396393,0.8774833679199219,-0.067306287586689,0.4187065362930298,0.54478520154953,1.0558490753173828,0.5018087029457092,0.20521150529384613,0.4367266893386841,1.0584781169891357,0.4762045443058014,0.24228471517562866,0.5303170680999756,1.0788304805755615,0.5398954153060913,0.24023479223251343,0.4398173391819,1.0782132148742676,0.5154581069946289,0.15539711713790894,0.5794889330863953,1.1230509281158447,0.23138287663459778,0.21513435244560242,0.457807332277298,1.132550835609436,0.14918877184391022,0.22897596657276154
14802.74625385942,0.47843092679977417,0.27719467878341675,-0.8627694249153137,0.9999018907546997,0.49586814641952515,0.25551554560661316,-0.8174154758453369,0.9997746348381042,0.5067472457885742,0.25534969568252563,-0.8175849318504333,0.9997320771217346,0.5164889693260193,0.25561535358428955,-0.8177586197853088,0.999692440032959,0.4601491391658783,0.25554725527763367,-0.8352814316749573,0.9997394680976868,0.44527918100357056,0.25566720962524414,-0.8354154825210571,0.9997205138206482,0.43268582224845886,0.25603848695755005,-0.83567875623703,0.9997133612632751,0.5276996493339539,0.26231861114501953,-0.48611006140708923,0.9996263980865479,0.40885022282600403,0.26359593868255615,-0.5806678533554077,0.9997753500938416,0.49445420503616333,0.2998436689376831,-0.7317337989807129,0.999932050704956,0.45211702585220337,0.29997268319129944,-0.7591142654418945,0.9999496936798096,0.5887923240661621,0.3807964324951172,-0.22586886584758759,0.9998923540115356,0.31602901220321655,0.3788607716560364,-0.38585662841796875,0.9998300075531006,0.6178186535835266,0.5300334692001343,-0.007843974977731705,0.9483031630516052,0.29529619216918945,0.5353351831436157,-0.4203181266784668,0.9726563096046448,0.6603306531906128,0.6615515947341919,-0.2562905251979828,0.9186498522758484,0.386865496635437,0.5864965915679932,-0.7914934158325195,0.9396138787269592,0.6749546527862549,0.703571081161499,-0.3352653980255127,0.8779425621032715,0.40776389837265015,0.6031916737556458,-0.8831355571746826,0.9140941500663757,0.6614725589752197,0.7080416083335876,-0.4169352650642395,0.8898171782493591,0.41767069697380066,0.582739531993866,-0.9450259804725647,0.9190813302993774,0.6515184640884399,0.6979670524597168,-0.2927136719226837,0.8956246972084045,0.4119115471839905,0.5756019353866577,-0.8180059790611267,0.9030193090438843,0.5552417039871216,0.654768168926239,0.03942137956619263,0.997512698173523,0.4005628228187561,0.6612868905067444,-0.03915025666356087,0.9955074787139893,0.5561100244522095,0.8684954047203064,-0.09459038078784943,0.35686755180358887,0.42086952924728394,0.8707261085510254,-0.0687822476029396,0.3246212899684906,0.5442993640899658,1.0512510538101196,0.455966055393219,0.14524593949317932,0.43060752749443054,1.0529966354370117,0.46059179306030273,0.1681612879037857,0.5327295064926147,1.0740923881530762,0.4926636517047882,0.18659114837646484,0.4332394599914551,1.0724177360534668,0.4995593726634979,0.12155362218618393,0.5737345814704895,1.1178646087646484,0.1955815702676773,0.14534923434257507,0.4498645067214966,1.1271675825119019,0.14405643939971924,0.15459178388118744
14819.412920526087,0.47914832830429077,0.2772732973098755,-0.8333397507667542,0.9998965263366699,0.4956534802913666,0.25632795691490173,-0.7871242165565491,0.999771773815155,0.506494402885437,0.2562253773212433,-0.7872961163520813,0.9997255206108093,0.5161195993423462,0.2565290927886963,-0.7874566912651062,0.9996839761734009,0.460661917924881,0.25613933801651,-0.806270956993103,0.9997400641441345,0.4458341896533966,0.25614869594573975,-0.806395947933197,0.9997228980064392,0.4334624707698822,0.2564549148082733,-0.80666184425354,0.9997139573097229,0.5264090895652771,0.26291248202323914,-0.455710232257843,0.9996256828308105,0.4089469909667969,0.26407116651535034,-0.5561080574989319,0.9997897744178772,0.4947926700115204,0.2995937764644623,-0.7027971148490906,0.9999300241470337,0.45242801308631897,0.2994036376476288,-0.7317613363265991,0.9999490976333618,0.5873445868492126,0.37988924980163574,-0.19299696385860443,0.9998868703842163,0.3153568506240845,0.3799389600753784,-0.3766883313655853,0.9998440742492676,0.6170279383659363,0.5292824506759644,0.026597462594509125,0.9389597177505493,0.29711925983428955,0.536618173122406,-0.43011337518692017,0.9741653800010681,0.6606082916259766,0.659813642501831,-0.2134552150964737,0.9103956818580627,0.385858416557312,0.587250292301178,-0.806488037109375,0.9418264627456665,0.6742701530456543,0.7023255228996277,-0.2894512414932251,0.8684605360031128,0.40597033500671387,0.6029970645904541,-0.898087203502655,0.9175699353218079,0.6612712144851685,0.7067310810089111,-0.36941641569137573,0.8808741569519043,0.4154231548309326,0.5809659957885742,-0.9604368209838867,0.9221467971801758,0.6517547369003296,0.6967920064926147,-0.2492927759885788,0.8868769407272339,0.40994757413864136,0.574328601360321,-0.8335422873497009,0.9068718552589417,0.5554487109184265,0.6556018590927124,0.04945020750164986,0.9977520108222961,0.4030953645706177,0.6616712808609009,-0.04915643855929375,0.9961557984352112,0.5578591823577881,0.8683992028236389,-0.07989457249641418,0.34083613753318787,0.4210466742515564,0.8697673678398132,-0.07918596267700195,0.3244948089122772,0.5442066192626953,1.050999641418457,0.45736294984817505,0.14396488666534424,0.42806297540664673,1.0537781715393066,0.4404904544353485,0.1672237664461136,0.5306878685951233,1.0744727849960327,0.49272042512893677,0.20109736919403076,0.4288693368434906,1.0737377405166626,0.4782758057117462,0.12365982681512833,0.5810526609420776,1.1159340143203735,0.19934684038162231,0.14428004622459412,0.450344055891037,1.1268982887268066,0.12284081429243088,0.1511942595243454
14836.079587192753,0.47710832953453064,0.2746102809906006,-0.8484379053115845,0.9998581409454346,0.49361467361450195,0.25430718064308167,-0.8004608750343323,0.9996806383132935,0.5040265321731567,0.2541121542453766,-0.8006532192230225,0.9996155500411987,0.5138598680496216,0.2543512284755707,-0.8008206486701965,0.9995653033256531,0.4581502377986908,0.2542860805988312,-0.8208262324333191,0.9996373653411865,0.4440760612487793,0.2541964054107666,-0.820981502532959,0.9996095299720764,0.43182602524757385,0.25433698296546936,-0.8212659955024719,0.9996033310890198,0.523550271987915,0.2612943947315216,-0.4631626009941101,0.9994565844535828,0.40935197472572327,0.2626332640647888,-0.5676361918449402,0.9996830224990845,0.4934011995792389,0.2964353561401367,-0.7158612608909607,0.9999051094055176,0.4509429931640625,0.2961268126964569,-0.7460879683494568,0.9999269247055054,0.5890835523605347,0.3800056278705597,-0.1958232820034027,0.9998636245727539,0.314286470413208,0.3809904158115387,-0.3812345266342163,0.999798595905304,0.6173694133758545,0.5318057537078857,0.025250129401683807,0.9383848905563354,0.2960331439971924,0.5384267568588257,-0.40508782863616943,0.9732831716537476,0.6617411375045776,0.6612641215324402,-0.22612647712230682,0.8975234031677246,0.3896278738975525,0.5873745083808899,-0.7624061703681946,0.9398791193962097,0.6755064725875854,0.7033840417861938,-0.30394670367240906,0.8493160605430603,0.40993732213974,0.6030853390693665,-0.8519506454467773,0.9127796292304993,0.6626735329627991,0.7079540491104126,-0.384930282831192,0.8639107346534729,0.4196123778820038,0.5827942490577698,-0.9166235327720642,0.9180540442466736,0.6527771949768066,0.6974124312400818,-0.26274165511131287,0.8716183304786682,0.41405725479125977,0.5758519768714905,-0.7894173264503479,0.9007566571235657,0.5564277172088623,0.6570509672164917,0.045502811670303345,0.9973157048225403,0.40214043855667114,0.6644958853721619,-0.04524447023868561,0.9951028823852539,0.5581991672515869,0.8711917400360107,-0.10786405950784683,0.30964604020118713,0.4193809926509857,0.8747222423553467,-0.08431430160999298,0.2714338004589081,0.5467543601989746,1.0595014095306396,0.4441782534122467,0.12689617276191711,0.4262882173061371,1.0609524250030518,0.4568304717540741,0.14505334198474884,0.5342180132865906,1.0827564001083374,0.48017123341560364,0.1697515845298767,0.42841416597366333,1.0812219381332397,0.4962199330329895,0.10971981287002563,0.579390287399292,1.1256489753723145,0.17418700456619263,0.13210144639015198,0.4453814923763275,1.1341692209243774,0.13251566886901855,0.1435116082429886
14852.746253859419,0.4747225344181061,0.27577653527259827,-0.7774897813796997,0.9998546838760376,0.4922299385070801,0.25545087456703186,-0.7312665581703186,0.999698281288147,0.5026915073394775,0.25544601678848267,-0.7314693927764893,0.9996519088745117,0.5127474069595337,0.25574424862861633,-0.7316516637802124,0.999600350856781,0.45627516508102417,0.2549089789390564,-0.7493884563446045,0.9996515512466431,0.44258347153663635,0.2546428442001343,-0.7494865655899048,0.999629020690918,0.43033671379089355,0.25471580028533936,-0.749783992767334,0.9996131062507629,0.5236287117004395,0.26233789324760437,-0.4049646258354187,0.9995409250259399,0.40837210416793823,0.2625837028026581,-0.49913787841796875,0.999718964099884,0.4915183484554291,0.29748019576072693,-0.6491108536720276,0.9999022483825684,0.4480413794517517,0.2968272268772125,-0.6762853860855103,0.9999263286590576,0.5868790745735168,0.37982606887817383,-0.15601100027561188,0.9998655319213867,0.31486964225769043,0.37889957427978516,-0.33075693249702454,0.9997960925102234,0.6137540340423584,0.5314694046974182,0.048177320510149,0.935748815536499,0.2967526912689209,0.5320826172828674,-0.40074029564857483,0.9689127206802368,0.6568115949630737,0.6581035852432251,-0.19506801664829254,0.908757746219635,0.3856298327445984,0.5848101377487183,-0.7826074957847595,0.9367923140525818,0.6737015247344971,0.7000964879989624,-0.270910382270813,0.8687881231307983,0.4053648114204407,0.6022374629974365,-0.8737887740135193,0.9114812612533569,0.6614488363265991,0.7043551206588745,-0.35149824619293213,0.8818150758743286,0.4162443280220032,0.581936240196228,-0.9345244765281677,0.9164361953735352,0.6511150598526001,0.6945485472679138,-0.23128262162208557,0.8875408172607422,0.41132181882858276,0.574869692325592,-0.809109091758728,0.9004167318344116,0.5519700050354004,0.6573861837387085,0.042571328580379486,0.9969817996025085,0.39884406328201294,0.6628761291503906,-0.042211055755615234,0.9948134422302246,0.552626371383667,0.8696959018707275,-0.09448938071727753,0.34903234243392944,0.41801947355270386,0.8714720010757446,-0.07537974417209625,0.29301512241363525,0.5435482263565063,1.0561498403549194,0.4193213880062103,0.13834190368652344,0.4302937388420105,1.0570380687713623,0.4238836467266083,0.14319773018360138,0.5324596166610718,1.0793973207473755,0.4518541693687439,0.16953502595424652,0.4337610602378845,1.0773755311965942,0.45965003967285156,0.10827752202749252,0.5703715085983276,1.1220526695251465,0.15272071957588196,0.12710537016391754,0.4450281262397766,1.1293604373931885,0.10497165471315384,0.1314447671175003
14869.412920526085,0.4698506295681,0.27610650658607483,-0.7879406213760376,0.9998664855957031,0.4894600212574005,0.256500244140625,-0.742408812046051,0.9997113347053528,0.4999581277370453,0.25671449303627014,-0.7425960302352905,0.9996592998504639,0.5104386210441589,0.25708067417144775,-0.7427602410316467,0.9996129870414734,0.45288947224617004,0.2552717626094818,-0.7581130266189575,0.999677300453186,0.4400842785835266,0.2548636794090271,-0.7582351565361023,0.9996525049209595,0.42804113030433655,0.2551784813404083,-0.7585328221321106,0.99964439868927,0.5225409865379333,0.2639693021774292,-0.4175738990306854,0.999534010887146,0.4089201092720032,0.2626563608646393,-0.5026377439498901,0.9997182488441467,0.4885554015636444,0.29912069439888,-0.660289466381073,0.9999047517776489,0.444112092256546,0.29782041907310486,-0.6848893761634827,0.9999315738677979,0.5860340595245361,0.3814305067062378,-0.17618849873542786,0.9998483657836914,0.3179050087928772,0.38059255480766296,-0.326010137796402,0.9998149275779724,0.6144676208496094,0.532488226890564,0.021613195538520813,0.9436384439468384,0.29742366075515747,0.5372010469436646,-0.39827293157577515,0.9657192230224609,0.660650908946991,0.6623189449310303,-0.2265913039445877,0.9123032093048096,0.38982754945755005,0.5815375447273254,-0.7933719158172607,0.9345507621765137,0.6745439171791077,0.7036762237548828,-0.30564647912979126,0.8715348243713379,0.4114142656326294,0.5997847318649292,-0.8854589462280273,0.9105092287063599,0.6614124774932861,0.7079495787620544,-0.3844066262245178,0.883732795715332,0.4232771694660187,0.5807628631591797,-0.9438555240631104,0.9152610301971436,0.6523565053939819,0.6975709199905396,-0.261821448802948,0.8901364207267761,0.41733789443969727,0.5732467174530029,-0.8189659714698792,0.8983268737792969,0.553374171257019,0.6597506403923035,0.04070771858096123,0.9970837235450745,0.3994207978248596,0.6650345921516418,-0.04043285921216011,0.9954470992088318,0.5553644299507141,0.8717756271362305,-0.07690775394439697,0.31068575382232666,0.41914117336273193,0.8737687468528748,-0.07337119430303574,0.30174845457077026,0.5439541935920715,1.0575037002563477,0.45604607462882996,0.1262420117855072,0.4296557605266571,1.0597330331802368,0.4319974184036255,0.1508442908525467,0.5318470001220703,1.0811611413955688,0.4913136065006256,0.17914362251758575,0.4328153729438782,1.079978108406067,0.46875736117362976,0.11261997371912003,0.575840175151825,1.1218219995498657,0.20004768669605255,0.12679855525493622,0.44563424587249756,1.1315462589263916,0.11702338606119156,0.13790930807590485
14886.079587192751,0.47023260593414307,0.275088906288147,-0.7915681004524231,0.9998468160629272,0.48985564708709717,0.2556852698326111,-0.7456691265106201,0.9996854066848755,0.5005465149879456,0.2559809982776642,-0.7458571791648865,0.9996293783187866,0.5110633373260498,0.2564426362514496,-0.7460256218910217,0.9995840191841125,0.4532058835029602,0.2544126808643341,-0.7622932195663452,0.9996373653411865,0.44022729992866516,0.2540767788887024,-0.7624262571334839,0.9996107220649719,0.42814716696739197,0.2544110119342804,-0.7627336978912354,0.9996001124382019,0.5232589244842529,0.2638263404369354,-0.4192902147769928,0.999503493309021,0.408622145652771,0.2622239887714386,-0.5084811449050903,0.999679684638977,0.48885267972946167,0.2984981834888458,-0.6635481715202332,0.999895453453064,0.4440457224845886,0.2971280813217163,-0.6893008947372437,0.9999226331710815,0.5867835283279419,0.3813154995441437,-0.1754271388053894,0.9998421669006348,0.3177421987056732,0.3801821768283844,-0.3385075628757477,0.9997847676277161,0.6136878132820129,0.5305464863777161,0.02048172801733017,0.9381011128425598,0.29663097858428955,0.5370268225669861,-0.421186625957489,0.9635435342788696,0.6592192649841309,0.6601747274398804,-0.22349916398525238,0.9088768362998962,0.3887562155723572,0.5820696949958801,-0.8171103596687317,0.9255402088165283,0.674558699131012,0.701662003993988,-0.3015266954898834,0.8667884469032288,0.409606009721756,0.5991338491439819,-0.9093087315559387,0.8992976546287537,0.6614284515380859,0.705837607383728,-0.37953364849090576,0.879554808139801,0.42133715748786926,0.5807555317878723,-0.9673696160316467,0.9046812653541565,0.6518238186836243,0.6954580545425415,-0.2584185302257538,0.8857572078704834,0.4157709777355194,0.5737448334693909,-0.8428291082382202,0.8876119256019592,0.555063784122467,0.6577816605567932,0.047291405498981476,0.9968807697296143,0.4003085792064667,0.6644281148910522,-0.047010406851768494,0.9950324296951294,0.5566273927688599,0.8706527352333069,-0.08208230137825012,0.29828816652297974,0.4218112826347351,0.8726220726966858,-0.08410472422838211,0.2782304584980011,0.5467192530632019,1.0551210641860962,0.4644573926925659,0.11357861012220383,0.4310770332813263,1.059105634689331,0.4288714826107025,0.13358992338180542,0.5340840816497803,1.0779637098312378,0.5011958479881287,0.16554318368434906,0.4325735867023468,1.0791109800338745,0.4663163125514984,0.09784349054098129,0.5789733529090881,1.1208487749099731,0.21000750362873077,0.11609087884426117,0.4526907503604889,1.1314201354980469,0.1123778223991394,0.1231418177485466
14902.746253859417,0.474960595369339,0.27433255314826965,-0.880374550819397,0.9998664855957031,0.4929671883583069,0.25434958934783936,-0.8320003151893616,0.999703586101532,0.5032647848129272,0.2546168863773346,-0.8321718573570251,0.9996416568756104,0.5127450227737427,0.2550520598888397,-0.8323217034339905,0.9995916485786438,0.45801272988319397,0.25351589918136597,-0.851493239402771,0.9996668100357056,0.44380706548690796,0.253525972366333,-0.8516764044761658,0.9996452331542969,0.4316038489341736,0.25369784235954285,-0.8519594669342041,0.9996390342712402,0.5223724246025085,0.2622652053833008,-0.49331963062286377,0.9994909763336182,0.4088374376296997,0.2622581720352173,-0.5966668725013733,0.9996880292892456,0.4910427927970886,0.29707178473472595,-0.7479715943336487,0.9998985528945923,0.4487225115299225,0.29606813192367554,-0.7780026197433472,0.999924898147583,0.5844063758850098,0.3823605477809906,-0.22844013571739197,0.9998183846473694,0.3164176344871521,0.3789505660533905,-0.40888938307762146,0.9997977614402771,0.6118245720863342,0.5335975885391235,-0.005902643781155348,0.9265751242637634,0.2962890863418579,0.5375763177871704,-0.46216273307800293,0.9677996039390564,0.6576953530311584,0.6599518060684204,-0.23753927648067474,0.8835251331329346,0.38996779918670654,0.5846680998802185,-0.8465604186058044,0.9289454817771912,0.673188328742981,0.7005805969238281,-0.3099468946456909,0.8326090574264526,0.4094904065132141,0.6007267236709595,-0.9392080307006836,0.9010009169578552,0.6615246534347534,0.7057322263717651,-0.39025118947029114,0.8470126390457153,0.4187750220298767,0.5822485089302063,-0.9988275170326233,0.9063185453414917,0.6515289545059204,0.6951613426208496,-0.27304187417030334,0.8547263741493225,0.4136136472225189,0.5750960111618042,-0.8727605938911438,0.886868953704834,0.554248571395874,0.6585675477981567,0.044957421720027924,0.9975622892379761,0.40210720896720886,0.6664022207260132,-0.04477747157216072,0.9960991144180298,0.5590032935142517,0.8724162578582764,-0.06663598120212555,0.320652037858963,0.4254548251628876,0.8747365474700928,-0.07899890840053558,0.32564640045166016,0.5445883870124817,1.0482544898986816,0.516187846660614,0.14264704287052155,0.432616651058197,1.0553619861602783,0.46630218625068665,0.1851821392774582,0.5312409400939941,1.0712008476257324,0.556320071220398,0.2016347348690033,0.4341806173324585,1.0751254558563232,0.5064794421195984,0.12913401424884796,0.5816687941551208,1.1126744747161865,0.2637762129306793,0.16239719092845917,0.4547172486782074,1.127303123474121,0.1468905359506607,0.18113973736763
14919.412920526083,0.47762128710746765,0.2778276205062866,-0.8530032634735107,0.9998985528945923,0.495057076215744,0.2573030889034271,-0.8097162842750549,0.9997487664222717,0.5061202645301819,0.25720521807670593,-0.8098592162132263,0.9996950626373291,0.516014575958252,0.2574743628501892,-0.8100045323371887,0.999652624130249,0.459836483001709,0.2569686770439148,-0.8287180662155151,0.9997307658195496,0.44524887204170227,0.2571350932121277,-0.8288846611976624,0.9997144341468811,0.4330247640609741,0.25749486684799194,-0.82914137840271,0.9997109770774841,0.5266884565353394,0.2642870545387268,-0.48623690009117126,0.9995403289794922,0.4086833894252777,0.26550158858299255,-0.5869236588478088,0.9997560381889343,0.4935314655303955,0.30103325843811035,-0.7243549823760986,0.9999173879623413,0.45121070742607117,0.30078354477882385,-0.7536042332649231,0.9999417066574097,0.5858739018440247,0.3809068500995636,-0.22023902833461761,0.9998691082000732,0.31673651933670044,0.3781948983669281,-0.4045056700706482,0.9998703002929688,0.6142247915267944,0.5320841073989868,0.010959304869174957,0.936409592628479,0.2973130941390991,0.5345267057418823,-0.4357866942882538,0.9738051891326904,0.6614583134651184,0.6612796187400818,-0.19836948812007904,0.8963634371757507,0.39219003915786743,0.5851355791091919,-0.7769965529441833,0.9396207332611084,0.6759963035583496,0.7016546726226807,-0.2663514018058777,0.8484001159667969,0.41282400488853455,0.6016844511032104,-0.8630728721618652,0.9144174456596375,0.6633083820343018,0.7057771682739258,-0.3449220359325409,0.8617755174636841,0.4225326180458069,0.5817857384681702,-0.9225617051124573,0.9189489483833313,0.6539504528045654,0.6954037547111511,-0.23263922333717346,0.8702433705329895,0.4169495403766632,0.5747029781341553,-0.8018827438354492,0.9018164277076721,0.5516606569290161,0.6540324091911316,0.046150486916303635,0.9978383183479309,0.401510626077652,0.6598482131958008,-0.046000514179468155,0.9965406060218811,0.5563334226608276,0.8689833283424377,-0.06468505412340164,0.3279648423194885,0.4225430488586426,0.870145857334137,-0.07453074306249619,0.34582626819610596,0.5491044521331787,1.048015832901001,0.4529939293861389,0.15348298847675323,0.4298633635044098,1.055943489074707,0.42284125089645386,0.2010406255722046,0.5372544527053833,1.0718083381652832,0.48779407143592834,0.20671346783638,0.43108510971069336,1.0761432647705078,0.4590243101119995,0.1385837197303772,0.5881240367889404,1.1121615171432495,0.20570719242095947,0.17026665806770325,0.45333048701286316,1.128879189491272,0.11193160712718964,0.18772758543491364
14936.07958719275,0.4783593416213989,0.2774586081504822,-0.8637335300445557,0.9998583793640137,0.49549561738967896,0.25706955790519714,-0.8191263675689697,0.9996616840362549,0.5065163969993591,0.25698667764663696,-0.8192930221557617,0.9995860457420349,0.5164095759391785,0.25729209184646606,-0.8194559812545776,0.9995226860046387,0.46046939492225647,0.25661569833755493,-0.8388625383377075,0.9996334314346313,0.4457778036594391,0.25670307874679565,-0.8390252590179443,0.999609649181366,0.43355152010917664,0.2570275664329529,-0.8393115401268005,0.999610960483551,0.5265608429908752,0.2640025019645691,-0.4862951636314392,0.9993923902511597,0.4088936746120453,0.265224814414978,-0.5897019505500793,0.9996943473815918,0.4942212700843811,0.3004154860973358,-0.7313641905784607,0.9998917579650879,0.4522612988948822,0.3000747561454773,-0.7614067792892456,0.9999252557754517,0.5849171876907349,0.38007616996765137,-0.2106763869524002,0.9998390674591064,0.3172030448913574,0.3783119022846222,-0.40044090151786804,0.999846339225769,0.6124900579452515,0.5308245420455933,0.02401774190366268,0.9259015917778015,0.29680633544921875,0.5356478691101074,-0.4260355234146118,0.9743921160697937,0.6594805121421814,0.6599659323692322,-0.20090468227863312,0.8829145431518555,0.3949826657772064,0.5859771370887756,-0.7710757851600647,0.9407133460044861,0.6756797432899475,0.7007196545600891,-0.27182650566101074,0.8321840167045593,0.4140726625919342,0.6022553443908691,-0.858985960483551,0.9136112928390503,0.6628389954566956,0.7047586441040039,-0.3537905514240265,0.8471387028694153,0.4241277873516083,0.5823988914489746,-0.9206237196922302,0.9183974862098694,0.6530736684799194,0.6947705149650574,-0.23719286918640137,0.8556531667709351,0.4190171957015991,0.5752871036529541,-0.7966495752334595,0.9004528522491455,0.5524604916572571,0.6570552587509155,0.04457561671733856,0.997494101524353,0.40182065963745117,0.6635549664497375,-0.044366076588630676,0.9959661960601807,0.5543486475944519,0.8745524287223816,-0.07665020227432251,0.3402705490589142,0.4214830994606018,0.874813437461853,-0.07810958474874496,0.3374381363391876,0.5463116765022278,1.053832769393921,0.4722880423069,0.15134115517139435,0.4281482994556427,1.0596743822097778,0.44578415155410767,0.19206751883029938,0.5342440605163574,1.0773663520812988,0.5092020034790039,0.201592355966568,0.43109652400016785,1.0798029899597168,0.48412495851516724,0.13530969619750977,0.5820441842079163,1.1189169883728027,0.21429850161075592,0.16291627287864685,0.44773751497268677,1.1328585147857666,0.12483467161655426,0.1825835406780243
14952.746253859415,0.47956961393356323,0.2785113453865051,-0.9141989946365356,0.999901533126831,0.4972226321697235,0.2586904466152191,-0.8711433410644531,0.9997550845146179,0.5078277587890625,0.25878235697746277,-0.871275007724762,0.9996975660324097,0.517669141292572,0.2592557668685913,-0.871425211429596,0.999652624130249,0.46226972341537476,0.25764989852905273,-0.8897779583930969,0.9997351765632629,0.447494238615036,0.2576470673084259,-0.8899440169334412,0.9997164607048035,0.43520674109458923,0.25784412026405334,-0.8902109861373901,0.9997149109840393,0.5271601676940918,0.2660163938999176,-0.5380166172981262,0.9995502829551697,0.409991592168808,0.2658388316631317,-0.6365864872932434,0.9997606873512268,0.49463891983032227,0.30204445123672485,-0.781038224697113,0.9999194145202637,0.45265620946884155,0.3009829819202423,-0.8097735047340393,0.9999407529830933,0.5863209962844849,0.3806658387184143,-0.25384047627449036,0.9998732805252075,0.316852331161499,0.3796516954898834,-0.444477379322052,0.9998797178268433,0.6118143796920776,0.5333009362220764,-0.016254862770438194,0.9316102266311646,0.2975316643714905,0.5352002382278442,-0.4808382987976074,0.9776057600975037,0.6595643758773804,0.6607276201248169,-0.22684502601623535,0.8877056241035461,0.3943435251712799,0.5852786898612976,-0.8327422142028809,0.9477919340133667,0.674770176410675,0.7024282813072205,-0.2938712537288666,0.8351702094078064,0.4143046438694,0.6019827723503113,-0.9217402935028076,0.9219501614570618,0.6639550924301147,0.706779420375824,-0.3757796883583069,0.849898099899292,0.424495667219162,0.58265620470047,-0.9813082218170166,0.9262746572494507,0.6545531749725342,0.6965272426605225,-0.26247361302375793,0.8580270409584045,0.41889840364456177,0.5756199359893799,-0.857719361782074,0.9094480872154236,0.551588237285614,0.6544308662414551,0.04161103442311287,0.9977418184280396,0.39997097849845886,0.6590495109558105,-0.04144345223903656,0.9962418079376221,0.5549555420875549,0.8689608573913574,-0.10016981512308121,0.3296731412410736,0.4226505160331726,0.8717732429504395,-0.0785200223326683,0.32109904289245605,0.54961097240448,1.0533840656280518,0.4145841896533966,0.15114253759384155,0.42696624994277954,1.0593228340148926,0.4280281066894531,0.18891313672065735,0.5379423499107361,1.0775901079177856,0.4478840231895447,0.19772395491600037,0.4302024841308594,1.0802918672561646,0.4643286466598511,0.13751249015331268,0.5867302417755127,1.1180952787399292,0.14775703847408295,0.16837678849697113,0.4446548819541931,1.1322826147079468,0.10562428086996078,0.18321777880191803
14969.412920526082,0.47989165782928467,0.27628499269485474,-0.8783916234970093,0.999859094619751,0.496923565864563,0.25647255778312683,-0.8331226706504822,0.9996713399887085,0.5073490738868713,0.2564312517642975,-0.8332815170288086,0.9996082186698914,0.516924262046814,0.2568173110485077,-0.8334397077560425,0.999554455280304,0.4624421298503876,0.25601089000701904,-0.8522219061851501,0.9996240139007568,0.44786781072616577,0.2560684084892273,-0.8523752093315125,0.9995972514152527,0.43552571535110474,0.25625714659690857,-0.8526665568351746,0.9995904564857483,0.5257529020309448,0.26373809576034546,-0.49702727794647217,0.9994301199913025,0.4096992611885071,0.26453739404678345,-0.5973007082939148,0.9996659755706787,0.4946433901786804,0.29901885986328125,-0.7451754808425903,0.999893307685852,0.453599750995636,0.29879215359687805,-0.7742789387702942,0.9999212026596069,0.5869097113609314,0.38082966208457947,-0.22370825707912445,0.9998575448989868,0.3186836242675781,0.37910130620002747,-0.4096636176109314,0.9998334646224976,0.6115705966949463,0.5335896611213684,-0.00661462964490056,0.9351430535316467,0.2977291941642761,0.5324758291244507,-0.4473291039466858,0.9743344187736511,0.6585609912872314,0.6616234183311462,-0.25082457065582275,0.8997285962104797,0.3922496736049652,0.5836822390556335,-0.8006172776222229,0.9403166174888611,0.6732067465782166,0.7032281160354614,-0.32659560441970825,0.8495166897773743,0.41264060139656067,0.6007404923439026,-0.8904459476470947,0.9123930335044861,0.6620789766311646,0.7077585458755493,-0.40915653109550476,0.8632508516311646,0.42293035984039307,0.5814447999000549,-0.952871561050415,0.9171103835105896,0.6525806188583374,0.6975492835044861,-0.2879142165184021,0.8703221678733826,0.4174264371395111,0.5745104551315308,-0.8269665837287903,0.8999772667884827,0.5507346987724304,0.6556497812271118,0.047059495002031326,0.9973466396331787,0.400015652179718,0.6595814824104309,-0.04681892320513725,0.9957461953163147,0.5534486770629883,0.8689256906509399,-0.07780080288648605,0.341219425201416,0.41941067576408386,0.8704825043678284,-0.08148437738418579,0.34357786178588867,0.5440829992294312,1.0494961738586426,0.4621566832065582,0.15186640620231628,0.4287949800491333,1.0546298027038574,0.4403441548347473,0.18719950318336487,0.5309082269668579,1.0731314420700073,0.4976378083229065,0.20581136643886566,0.4312707781791687,1.0747637748718262,0.4777323007583618,0.12896835803985596,0.5802206993103027,1.1142873764038086,0.19626262784004211,0.16399507224559784,0.4500637352466583,1.127541422843933,0.11378925293684006,0.17608588933944702
14986.079587192748,0.476943701505661,0.2759675979614258,-0.8343031406402588,0.9998650550842285,0.4953117072582245,0.2561114430427551,-0.7892544865608215,0.9996975660324097,0.5061652064323425,0.2563338577747345,-0.7894277572631836,0.9996364116668701,0.516268789768219,0.25686144828796387,-0.7895933985710144,0.9995842576026917,0.4600745439529419,0.25517022609710693,-0.8078488707542419,0.9996583461761475,0.445878803730011,0.25516021251678467,-0.8079806566238403,0.9996309280395508,0.4336402118206024,0.25524139404296875,-0.808280885219574,0.9996248483657837,0.5264303088188171,0.2641865313053131,-0.45724788308143616,0.9994851350784302,0.4095456898212433,0.26354631781578064,-0.5556092858314514,0.9997079968452454,0.4928491711616516,0.29960569739341736,-0.7027504444122314,0.9999035596847534,0.4504581093788147,0.2986154854297638,-0.7312596440315247,0.9999312162399292,0.5866253972053528,0.38141068816185,-0.19409452378749847,0.9998562335968018,0.31759458780288696,0.3786601126194,-0.3721820116043091,0.9998337030410767,0.6109376549720764,0.5335286855697632,0.020311422646045685,0.933933675289154,0.29679012298583984,0.5337820053100586,-0.4196617901325226,0.9708788990974426,0.6574609279632568,0.6611124277114868,-0.22397024929523468,0.9014696478843689,0.39382439851760864,0.5832180976867676,-0.7835356593132019,0.9381420016288757,0.6726362109184265,0.7027937173843384,-0.3003811538219452,0.8555988669395447,0.4143940508365631,0.6004106998443604,-0.8733891844749451,0.9119539260864258,0.6620902419090271,0.7074339389801025,-0.38187268376350403,0.8693943023681641,0.42539218068122864,0.581267237663269,-0.934177041053772,0.916803777217865,0.6525717973709106,0.6971436738967896,-0.26059967279434204,0.876491129398346,0.41992005705833435,0.5741934776306152,-0.8092508316040039,0.8997678756713867,0.5518739223480225,0.658201277256012,0.04511960968375206,0.997236967086792,0.4002763628959656,0.6626008749008179,-0.044847521930933,0.9954654574394226,0.5550425052642822,0.8712669014930725,-0.08555705100297928,0.32165250182151794,0.41989901661872864,0.8733024597167969,-0.07893118262290955,0.3130282163619995,0.5450595617294312,1.055727243423462,0.4585171937942505,0.13224096596240997,0.42958298325538635,1.0593757629394531,0.4431683123111725,0.16230103373527527,0.5325926542282104,1.079303503036499,0.4947408437728882,0.18512025475502014,0.4325433373451233,1.0795364379882812,0.48128828406333923,0.11917686462402344,0.5788584351539612,1.1212449073791504,0.19773466885089874,0.13902808725833893,0.44903403520584106,1.1322910785675049,0.12239845842123032,0.1520247608423233
15002.746253859414,0.4719635844230652,0.27813613414764404,-0.7807949781417847,0.9998624324798584,0.4925244152545929,0.2585902810096741,-0.7315338253974915,0.9997296929359436,0.5031142234802246,0.2586324214935303,-0.731764554977417,0.9996863603591919,0.5131862759590149,0.2589408755302429,-0.7319707870483398,0.9996367692947388,0.45584961771965027,0.25720226764678955,-0.7510448694229126,0.9996836185455322,0.44250571727752686,0.2568471431732178,-0.7511650323867798,0.9996644258499146,0.4306439161300659,0.2568016052246094,-0.7514889240264893,0.9996451139450073,0.5237317681312561,0.2656518220901489,-0.3868117332458496,0.9996114373207092,0.4096372723579407,0.26375505328178406,-0.48825502395629883,0.9997542500495911,0.48967137932777405,0.30229654908180237,-0.64494788646698,0.999910831451416,0.44586998224258423,0.30062374472618103,-0.6744186282157898,0.9999316930770874,0.5861023664474487,0.38313332200050354,-0.1328570693731308,0.9998681545257568,0.31722474098205566,0.38106265664100647,-0.3077671229839325,0.9997825026512146,0.6152646541595459,0.5349058508872986,0.06990938633680344,0.9412571787834167,0.3008672595024109,0.5358351469039917,-0.4061867892742157,0.966749906539917,0.6607036590576172,0.6623120307922363,-0.19787512719631195,0.9184147119522095,0.38538673520088196,0.5811108946800232,-0.8382568359375,0.9451019763946533,0.6758475303649902,0.7040655016899109,-0.2782686650753021,0.879664957523346,0.411703497171402,0.5992938280105591,-0.9377779364585876,0.923425018787384,0.6655203104019165,0.7074657678604126,-0.36326149106025696,0.8923689126968384,0.42211514711380005,0.5781117081642151,-0.9960132837295532,0.9280149340629578,0.655127763748169,0.6976264715194702,-0.236128568649292,0.8963202238082886,0.41501474380493164,0.5712028741836548,-0.8644596338272095,0.9100971817970276,0.5549862384796143,0.6651660203933716,0.03807425498962402,0.9973942041397095,0.4002222418785095,0.6719191670417786,-0.037717465311288834,0.9952527284622192,0.5564326047897339,0.8852642178535461,-0.11434657126665115,0.37218937277793884,0.42191243171691895,0.8893874287605286,-0.07139105349779129,0.2874831557273865,0.5494389533996582,1.0722541809082031,0.4701593518257141,0.13441911339759827,0.43469852209091187,1.0506277084350586,0.4803412854671478,0.15046708285808563,0.5386894345283508,1.0953775644302368,0.5097646117210388,0.17984339594841003,0.4391217529773712,1.091395378112793,0.5214205384254456,0.11160912364721298,0.5742766857147217,1.1389625072479248,0.20097605884075165,0.1295168548822403,0.4406507611274719,1.1436805725097656,0.15440614521503448,0.14429928362369537
15019.41292052608,0.4775541126728058,0.27808406949043274,-0.7991248369216919,0.9998611211776733,0.4971170127391815,0.258603036403656,-0.755014181137085,0.9996788501739502,0.5071145296096802,0.25870850682258606,-0.7551946640014648,0.9996148347854614,0.5170104503631592,0.2589794397354126,-0.7553625106811523,0.9995577931404114,0.46228280663490295,0.2566871643066406,-0.7744303941726685,0.9996557235717773,0.4473426043987274,0.2561632990837097,-0.774569034576416,0.9996323585510254,0.435371994972229,0.2559386193752289,-0.7748770713806152,0.999627947807312,0.526205837726593,0.26514312624931335,-0.4284169375896454,0.9994446635246277,0.41128236055374146,0.2627832889556885,-0.530666172504425,0.9997242093086243,0.49247121810913086,0.3017734885215759,-0.6690438389778137,0.9998974800109863,0.45104968547821045,0.29995086789131165,-0.6987268924713135,0.9999315738677979,0.5842728614807129,0.380964457988739,-0.17156049609184265,0.9998487234115601,0.3183686137199402,0.37783369421958923,-0.3481936752796173,0.9998430013656616,0.6111937761306763,0.5310467481613159,0.04311370477080345,0.9386303424835205,0.2945249378681183,0.5344604849815369,-0.3908793032169342,0.973125696182251,0.6585151553153992,0.6617363095283508,-0.200420543551445,0.9044148921966553,0.39874622225761414,0.5829994678497314,-0.742853045463562,0.9434124231338501,0.6741535663604736,0.7034777998924255,-0.2762863337993622,0.86024010181427,0.4189017415046692,0.6012389063835144,-0.8301164507865906,0.9183536767959595,0.6630176305770874,0.7080941200256348,-0.3574351966381073,0.8737838268280029,0.43176156282424927,0.5811242461204529,-0.8899857997894287,0.9230411648750305,0.6537656784057617,0.6977171897888184,-0.2367563098669052,0.8805332779884338,0.42511314153671265,0.5736072063446045,-0.7672683596611023,0.9060980677604675,0.5513494610786438,0.6588231325149536,0.04149636626243591,0.9971104860305786,0.3990263342857361,0.6643626093864441,-0.04123041033744812,0.9951825737953186,0.5551679134368896,0.8761627674102783,-0.09488187730312347,0.3368758261203766,0.41950148344039917,0.8790119886398315,-0.07508023828268051,0.3118935227394104,0.5461899638175964,1.064064383506775,0.4296814799308777,0.136930450797081,0.4297560453414917,1.063586950302124,0.4323557913303375,0.16333287954330444,0.5343555212020874,1.0881927013397217,0.46397000551223755,0.18354439735412598,0.433906227350235,1.0841989517211914,0.4694164991378784,0.12341057509183884,0.5779145956039429,1.1298264265060425,0.16861803829669952,0.13662023842334747,0.44480687379837036,1.136060118675232,0.1163078024983406,0.15361301600933075
15036.079587192746,0.47649139165878296,0.27766162157058716,-0.8911095261573792,0.9998503923416138,0.49571987986564636,0.2575033903121948,-0.8472791910171509,0.9996421337127686,0.5068030953407288,0.2577972114086151,-0.8474185466766357,0.9995588660240173,0.5170782208442688,0.25835686922073364,-0.8475719690322876,0.9994990825653076,0.46056315302848816,0.2560461163520813,-0.8644421696662903,0.9996040463447571,0.4465409219264984,0.25583162903785706,-0.8645937442779541,0.9995735287666321,0.4344142973423004,0.2557884752750397,-0.8649025559425354,0.9995809197425842,0.5285705327987671,0.26534366607666016,-0.5130884647369385,0.9993249177932739,0.41102832555770874,0.26342761516571045,-0.6047868728637695,0.999653697013855,0.4924468994140625,0.30163493752479553,-0.7580746412277222,0.9998921155929565,0.4503938555717468,0.3000035881996155,-0.7847220301628113,0.9999245405197144,0.5881201028823853,0.3815068006515503,-0.23466625809669495,0.9998443126678467,0.31831496953964233,0.3763325810432434,-0.4133116900920868,0.9998549222946167,0.6136590242385864,0.5324034690856934,-0.011348329484462738,0.9356530904769897,0.29857343435287476,0.530937910079956,-0.4364174008369446,0.9761800765991211,0.660306453704834,0.6598895788192749,-0.25597450137138367,0.8978875875473022,0.3964841067790985,0.5817568302154541,-0.7786698937416077,0.9449574947357178,0.6751201748847961,0.7010473012924194,-0.3324490487575531,0.8474621176719666,0.4160773754119873,0.6006267666816711,-0.8676749467849731,0.9176256656646729,0.6638445258140564,0.7057979106903076,-0.41525647044181824,0.8614004850387573,0.429354190826416,0.5835170745849609,-0.929879903793335,0.9220243692398071,0.6545320749282837,0.6955187916755676,-0.29303428530693054,0.8683208227157593,0.424182265996933,0.5756568908691406,-0.8041533827781677,0.9055330157279968,0.5536630749702454,0.6554465293884277,0.04486844316124916,0.9972361922264099,0.3993557095527649,0.6596103310585022,-0.044644176959991455,0.9956009387969971,0.5540423393249512,0.8689911961555481,-0.09317443519830704,0.3331575393676758,0.41924917697906494,0.8696252703666687,-0.08034463226795197,0.33075377345085144,0.5481486320495605,1.0528512001037598,0.4499170184135437,0.14062856137752533,0.4282852113246918,1.056334376335144,0.45130184292793274,0.16957375407218933,0.5361487865447998,1.07631254196167,0.48569953441619873,0.1837577372789383,0.4311314523220062,1.0761727094650269,0.4899597465991974,0.11908775568008423,0.5815924406051636,1.1186813116073608,0.17862510681152344,0.14865842461585999,0.4494538903236389,1.130272388458252,0.12334787845611572,0.16034956276416779
15052.746253859412,0.47840502858161926,0.2786978781223297,-0.8514943718910217,0.9999176263809204,0.4971315264701843,0.25885680317878723,-0.8073775172233582,0.9997976422309875,0.507287323474884,0.2588338851928711,-0.8075342774391174,0.9997530579566956,0.5170655250549316,0.25905776023864746,-0.8076907396316528,0.9997171759605408,0.46272027492523193,0.25717228651046753,-0.8252177834510803,0.9997797608375549,0.4479992687702179,0.2567555606365204,-0.8253766298294067,0.9997640252113342,0.4363231956958771,0.25663986802101135,-0.8256396651268005,0.9997636675834656,0.5261866450309753,0.26454901695251465,-0.48083704710006714,0.9996340274810791,0.4120628237724304,0.26343896985054016,-0.576945960521698,0.9998059868812561,0.49352678656578064,0.3021731376647949,-0.7218105792999268,0.9999324083328247,0.45263785123825073,0.30050191283226013,-0.7498041987419128,0.9999518394470215,0.5865418314933777,0.38126298785209656,-0.22404687106609344,0.9998823404312134,0.3173008859157562,0.37687501311302185,-0.38550397753715515,0.999880313873291,0.613761305809021,0.5327963829040527,-0.00594963226467371,0.9426082968711853,0.297818124294281,0.5338956117630005,-0.42610853910446167,0.9758347272872925,0.6588975787162781,0.6620801687240601,-0.2357461154460907,0.9068101644515991,0.3927728831768036,0.5822048187255859,-0.7902462482452393,0.9497018456459045,0.6746175289154053,0.7035452723503113,-0.30903398990631104,0.8621038794517517,0.41583162546157837,0.6002044081687927,-0.8800267577171326,0.926932156085968,0.6620076298713684,0.7075136303901672,-0.3901492953300476,0.8744426369667053,0.42649969458580017,0.5808141231536865,-0.9381328821182251,0.9307855367660522,0.6523127555847168,0.6974312663078308,-0.27135854959487915,0.8817092180252075,0.4205036461353302,0.573370099067688,-0.814794659614563,0.9151526689529419,0.5542016625404358,0.6561379432678223,0.032585255801677704,0.9977783560752869,0.4028770327568054,0.6625486016273499,-0.03237862512469292,0.9963775277137756,0.5532556772232056,0.8749338984489441,-0.08771099150180817,0.31812578439712524,0.42199277877807617,0.8765580058097839,-0.07107433676719666,0.3136589229106903,0.5461500883102417,1.056251883506775,0.4269939959049225,0.13861973583698273,0.4308634400367737,1.0597409009933472,0.4241254925727844,0.17721843719482422,0.535472571849823,1.080390214920044,0.4607279598712921,0.1903836578130722,0.435412734746933,1.0801467895507812,0.4598773419857025,0.12965348362922668,0.5788624882698059,1.1205695867538452,0.17124365270137787,0.1522708684206009,0.4450315833091736,1.133150577545166,0.11034610867500305,0.16939927637577057
15069.412920526078,0.4767584204673767,0.27780991792678833,-0.850386917591095,0.9998849630355835,0.4955421984195709,0.2573949992656708,-0.8055868148803711,0.9997289776802063,0.5062517523765564,0.2575272023677826,-0.8057489991188049,0.9996719360351562,0.5163660645484924,0.2580125331878662,-0.8059161901473999,0.9996299743652344,0.4601278603076935,0.25651779770851135,-0.8234679102897644,0.999693751335144,0.44572994112968445,0.25647082924842834,-0.8236144781112671,0.9996709823608398,0.4337157905101776,0.25665992498397827,-0.8238897323608398,0.9996682405471802,0.5267030596733093,0.26480352878570557,-0.47574323415756226,0.9995259046554565,0.4098148047924042,0.2644902467727661,-0.5711129307746887,0.9997208714485168,0.4920840859413147,0.3016984462738037,-0.7196705937385559,0.9999111890792847,0.44974762201309204,0.30047714710235596,-0.7474104166030884,0.9999330043792725,0.5860057473182678,0.38174495100975037,-0.2144569456577301,0.9998599290847778,0.3171968162059784,0.37969204783439636,-0.3812389373779297,0.999842643737793,0.6143290400505066,0.5328482985496521,0.002901894273236394,0.9366573095321655,0.2975478768348694,0.5328541398048401,-0.4147774279117584,0.970024049282074,0.658455491065979,0.6631243824958801,-0.23123905062675476,0.896622359752655,0.3939390480518341,0.5831910371780396,-0.773758590221405,0.9371601939201355,0.6738970875740051,0.7050691843032837,-0.30620577931404114,0.8470542430877686,0.41394251585006714,0.599496066570282,-0.8631300926208496,0.9112645983695984,0.6618806719779968,0.7090386748313904,-0.387239933013916,0.8609170913696289,0.42401427030563354,0.5798794031143188,-0.9246106743812561,0.9160923361778259,0.6521015167236328,0.6986438632011414,-0.2672688364982605,0.8691373467445374,0.4185929596424103,0.5733211636543274,-0.7999176979064941,0.8989466428756714,0.5546857118606567,0.6538141965866089,0.03941269963979721,0.9974281191825867,0.40403616428375244,0.6595773100852966,-0.03918471187353134,0.9958739876747131,0.5546903610229492,0.8725317716598511,-0.08831191807985306,0.3143519461154938,0.4234704375267029,0.8732845187187195,-0.08049562573432922,0.3090413212776184,0.5488489270210266,1.0507858991622925,0.4540039896965027,0.12668290734291077,0.4266652464866638,1.0563087463378906,0.43134304881095886,0.16755233705043793,0.5372868776321411,1.074144721031189,0.4904078245162964,0.17932941019535065,0.4298930764198303,1.0765937566757202,0.46840861439704895,0.11809548735618591,0.5820451974868774,1.1154966354370117,0.19757923483848572,0.13679547607898712,0.44440150260925293,1.129211187362671,0.11185511201620102,0.15614351630210876
15086.079587192744,0.47900035977363586,0.2778428792953491,-0.8190661072731018,0.9999148845672607,0.4964025616645813,0.25743189454078674,-0.7757939696311951,0.9997950196266174,0.5071737766265869,0.2576294541358948,-0.7759665846824646,0.999750554561615,0.5167232155799866,0.25822487473487854,-0.7761473655700684,0.9997164607048035,0.4620622992515564,0.2561517655849457,-0.7953338623046875,0.999777615070343,0.44732412695884705,0.25562337040901184,-0.7954471111297607,0.9997562766075134,0.43519097566604614,0.25539788603782654,-0.7956970930099487,0.9997522234916687,0.5269083976745605,0.26451683044433594,-0.45255598425865173,0.9996392726898193,0.40979623794555664,0.2631591558456421,-0.5555367469787598,0.9998049139976501,0.4931657910346985,0.3007361590862274,-0.6899138689041138,0.999933123588562,0.45224329829216003,0.29943883419036865,-0.7198512554168701,0.9999507665634155,0.585652232170105,0.3792271316051483,-0.19642598927021027,0.99989914894104,0.31589275598526,0.37688079476356506,-0.3637576103210449,0.9998687505722046,0.6169990301132202,0.5304856896400452,0.03214618191123009,0.9453883767127991,0.29667818546295166,0.5338395237922668,-0.38987427949905396,0.9725520014762878,0.656306266784668,0.6588648557662964,-0.19242577254772186,0.9109321236610413,0.3895812928676605,0.5840134620666504,-0.7339628338813782,0.9422353506088257,0.6736509799957275,0.7014376521110535,-0.2652030885219574,0.8678825497627258,0.4153507649898529,0.6013131141662598,-0.8203494548797607,0.9176413416862488,0.6625231504440308,0.7054964303970337,-0.34665507078170776,0.8807124495506287,0.42579934000968933,0.580740213394165,-0.8832798600196838,0.9225344657897949,0.6519877910614014,0.6954969763755798,-0.22831270098686218,0.886870265007019,0.4188884198665619,0.5740071535110474,-0.7599881291389465,0.9057458639144897,0.5553202629089355,0.6539736986160278,0.03224097564816475,0.997837483882904,0.403562068939209,0.6603724956512451,-0.031990114599466324,0.9960609078407288,0.5582409501075745,0.8727568984031677,-0.10629846900701523,0.33707961440086365,0.42504483461380005,0.8770171999931335,-0.07163020223379135,0.286233514547348,0.5495444536209106,1.0609664916992188,0.3969053030014038,0.1383146345615387,0.43474870920181274,1.0616567134857178,0.4175281226634979,0.1614367961883545,0.5388737320899963,1.0851984024047852,0.4292636513710022,0.1788630187511444,0.44071877002716064,1.0826969146728516,0.4528554677963257,0.1246267706155777,0.5794212222099304,1.1265705823898315,0.13662880659103394,0.14096786081790924,0.4421097934246063,1.1344153881072998,0.10506768524646759,0.1544378250837326
15102.74625385941,0.48040929436683655,0.27783530950546265,-0.8121859431266785,0.9998960494995117,0.4974522590637207,0.2574939429759979,-0.7688404321670532,0.9997561573982239,0.5078997015953064,0.25762492418289185,-0.769008994102478,0.9996999502182007,0.5174439549446106,0.25817999243736267,-0.7691729068756104,0.9996572732925415,0.46354737877845764,0.25632384419441223,-0.7898691892623901,0.9997422099113464,0.44871199131011963,0.25589612126350403,-0.7899888753890991,0.9997192025184631,0.43642476201057434,0.25574398040771484,-0.7902506589889526,0.9997188448905945,0.5264747142791748,0.2643308639526367,-0.44459259510040283,0.999555766582489,0.4098750948905945,0.2636374235153198,-0.5543963313102722,0.999788224697113,0.49426352977752686,0.3010030686855316,-0.6827711462974548,0.9999197721481323,0.45353320240974426,0.29981595277786255,-0.7145588397979736,0.9999459981918335,0.5845499634742737,0.37929314374923706,-0.18180757761001587,0.9998774528503418,0.31509149074554443,0.37773656845092773,-0.3667171597480774,0.999869704246521,0.616201639175415,0.530025839805603,0.04796568676829338,0.9381991028785706,0.2971019744873047,0.5337991714477539,-0.39431291818618774,0.9763845801353455,0.6557527184486389,0.6582047343254089,-0.1841462403535843,0.9063637852668762,0.38869473338127136,0.5839030742645264,-0.7361055016517639,0.9471240639686584,0.6732868552207947,0.7013448476791382,-0.2582632601261139,0.8612878918647766,0.41482603549957275,0.6013504266738892,-0.822025716304779,0.9227277040481567,0.6624345183372498,0.7053027153015137,-0.3394778370857239,0.8743832111358643,0.4259340465068817,0.5800226926803589,-0.8854497075080872,0.927135169506073,0.6516289710998535,0.6954149603843689,-0.22046805918216705,0.8804088830947876,0.41918042302131653,0.5732137560844421,-0.7620376348495483,0.9114661812782288,0.5545834898948669,0.6543478965759277,0.04327861964702606,0.9975253939628601,0.40421372652053833,0.6608437299728394,-0.043028462678194046,0.9960156083106995,0.558310329914093,0.8727368712425232,-0.0804605633020401,0.34082692861557007,0.42598021030426025,0.8755949139595032,-0.08652251213788986,0.31144285202026367,0.5491104125976562,1.0598080158233643,0.42346662282943726,0.14547917246818542,0.43274620175361633,1.0624897480010986,0.3966788947582245,0.1718531847000122,0.5360438227653503,1.0842368602752686,0.4556763470172882,0.19528409838676453,0.43645283579826355,1.083643913269043,0.43092769384384155,0.12746332585811615,0.5851271152496338,1.1250523328781128,0.1633981615304947,0.14757806062698364,0.44690293073654175,1.134861707687378,0.07714704424142838,0.15937228500843048
15119.412920526076,0.4793257713317871,0.277982234954834,-0.8351646661758423,0.9999223947525024,0.49606484174728394,0.25834405422210693,-0.7922108769416809,0.9998148083686829,0.5066074728965759,0.2584154009819031,-0.792359471321106,0.9997740387916565,0.5159763693809509,0.25884950160980225,-0.7925138473510742,0.9997469782829285,0.4624321758747101,0.25766149163246155,-0.8116894364356995,0.9997915625572205,0.4476798176765442,0.2571538984775543,-0.8118124008178711,0.999771773815155,0.4354555904865265,0.2569526135921478,-0.8120547533035278,0.9997689127922058,0.5260336995124817,0.26512500643730164,-0.47066086530685425,0.999658465385437,0.4094903767108917,0.26472359895706177,-0.5740625262260437,0.9998094439506531,0.4934714138507843,0.30124104022979736,-0.7071660757064819,0.999940037727356,0.4523647427558899,0.3001288175582886,-0.7371035814285278,0.9999567270278931,0.584810733795166,0.38030147552490234,-0.2131034880876541,0.9999071359634399,0.31377407908439636,0.3771480917930603,-0.3853685259819031,0.9998794794082642,0.6147468686103821,0.5304247140884399,0.008110107854008675,0.9472869634628296,0.2966727614402771,0.5323159694671631,-0.4087042212486267,0.9761172533035278,0.6555001139640808,0.660835862159729,-0.22790798544883728,0.921724796295166,0.3915647864341736,0.5833366513252258,-0.7451810836791992,0.9458160400390625,0.6743158102035522,0.7044230699539185,-0.3045418858528137,0.8796319961547852,0.41635826230049133,0.6000573635101318,-0.8315383195877075,0.92132169008255,0.661021888256073,0.70863938331604,-0.3857753872871399,0.8912479877471924,0.4272978603839874,0.57854825258255,-0.8941319584846497,0.9257279634475708,0.650761604309082,0.6990973949432373,-0.2643173038959503,0.896736741065979,0.42094850540161133,0.5721805095672607,-0.7710513472557068,0.9106733202934265,0.5531363487243652,0.6495605707168579,0.043734800070524216,0.9979482293128967,0.4030148684978485,0.6562655568122864,-0.043520040810108185,0.9965192079544067,0.5557201504707336,0.8643867373466492,-0.08256297558546066,0.33484554290771484,0.4232099652290344,0.8656520843505859,-0.0834646075963974,0.3283662796020508,0.5459429025650024,1.0478352308273315,0.4339044690132141,0.1414555013179779,0.42657262086868286,1.0509960651397705,0.4084971249103546,0.1775962859392166,0.5327413082122803,1.0714794397354126,0.46808141469955444,0.19275163114070892,0.4285382032394409,1.071334958076477,0.44387227296829224,0.12367019802331924,0.5822110176086426,1.1131888628005981,0.17996297776699066,0.15090647339820862,0.44611963629722595,1.1238090991973877,0.0942867174744606,0.1636888086795807
15136.079587192742,0.47847941517829895,0.2806234061717987,-0.8317001461982727,0.9999027252197266,0.49634501338005066,0.25972980260849,-0.7886397242546082,0.9997722506523132,0.5071651339530945,0.25986507534980774,-0.7887996435165405,0.999722421169281,0.5170519351959229,0.26038068532943726,-0.7889643311500549,0.9996830224990845,0.462091863155365,0.25827914476394653,-0.8074391484260559,0.9997450709342957,0.4473074972629547,0.2577969431877136,-0.8075419664382935,0.9997215867042542,0.43493860960006714,0.257610559463501,-0.8078011274337769,0.9997170567512512,0.5279477834701538,0.2663551867008209,-0.46040984988212585,0.9996089339256287,0.409379780292511,0.2646781802177429,-0.5602970123291016,0.9997846484184265,0.4930397868156433,0.30402547121047974,-0.7005134224891663,0.9999288320541382,0.45188358426094055,0.30271655321121216,-0.729478120803833,0.9999490976333618,0.5860052704811096,0.37925928831100464,-0.19836360216140747,0.9998983144760132,0.31441694498062134,0.3772541284561157,-0.36659613251686096,0.9998750686645508,0.6176456212997437,0.5295014381408691,0.022949514910578728,0.9460444450378418,0.29667896032333374,0.5326428413391113,-0.40301623940467834,0.9740135669708252,0.6550071239471436,0.6587832570075989,-0.2230350226163864,0.9189825654029846,0.3869514465332031,0.5812466740608215,-0.7676253318786621,0.9446290135383606,0.6736263036727905,0.7030344009399414,-0.30133256316185,0.8773175477981567,0.4144025444984436,0.5994727611541748,-0.8579001426696777,0.9210662245750427,0.6609803438186646,0.7073205709457397,-0.3843669891357422,0.889400064945221,0.42509904503822327,0.5787076354026794,-0.921478807926178,0.9255430698394775,0.6503887176513672,0.6975544691085815,-0.2602650821208954,0.8946035504341125,0.4187643826007843,0.5717223286628723,-0.7945325970649719,0.9097667336463928,0.5548210144042969,0.6529926061630249,0.04115806147456169,0.9976208806037903,0.40265583992004395,0.6578803658485413,-0.04087291657924652,0.9960804581642151,0.5538095235824585,0.8706302642822266,-0.07955217361450195,0.35190242528915405,0.4196218252182007,0.8686339855194092,-0.0769440159201622,0.3410390317440033,0.5425422191619873,1.0524965524673462,0.45176342129707336,0.14286227524280548,0.4278296232223511,1.0371428728103638,0.4249483644962311,0.1783023327589035,0.5295957326889038,1.0763200521469116,0.48692184686660767,0.1989026665687561,0.43039795756340027,1.0757462978363037,0.4611024558544159,0.1300370842218399,0.5770442485809326,1.1175696849822998,0.19287797808647156,0.14757099747657776,0.44316160678863525,1.1281883716583252,0.10527045279741287,0.1609182506799698
15152.746253859408,0.4790870249271393,0.2787696123123169,-0.8733526468276978,0.9998677968978882,0.4970267117023468,0.25842103362083435,-0.8297929763793945,0.9996863603591919,0.5073482990264893,0.2582886219024658,-0.8299427628517151,0.9996153116226196,0.5169601440429688,0.2585841119289398,-0.8301138877868652,0.9995648264884949,0.4625849723815918,0.25778499245643616,-0.8501027226448059,0.9996588230133057,0.44775307178497314,0.2575954794883728,-0.8502606153488159,0.9996311664581299,0.43566322326660156,0.2576363980770111,-0.8505282998085022,0.9996322393417358,0.5270106196403503,0.2648690938949585,-0.4986133873462677,0.9994493126869202,0.4101071357727051,0.26500099897384644,-0.6046921610832214,0.9996966123580933,0.49354299902915955,0.30184638500213623,-0.7408329248428345,0.9999016523361206,0.4523133933544159,0.3008889853954315,-0.7717033624649048,0.9999270439147949,0.5871704816818237,0.3812655210494995,-0.22883298993110657,0.9998654127120972,0.31596702337265015,0.37864208221435547,-0.4074385464191437,0.9998455047607422,0.6157823801040649,0.531440258026123,0.003197814105078578,0.9342153072357178,0.2965225875377655,0.5361338257789612,-0.42809417843818665,0.9728006720542908,0.6561154723167419,0.6606159806251526,-0.2227206826210022,0.8854890465736389,0.39353370666503906,0.5846899747848511,-0.7694532871246338,0.9376288652420044,0.6716741323471069,0.7034339904785156,-0.29464903473854065,0.8334538340568542,0.41123300790786743,0.6005405783653259,-0.856620192527771,0.9110342860221863,0.6587318778038025,0.708183228969574,-0.37581542134284973,0.8487496376037598,0.4206715524196625,0.5812807679176331,-0.9179410338401794,0.9161421656608582,0.6488439440727234,0.6982822418212891,-0.2585255801677704,0.8581192493438721,0.41578295826911926,0.5744740962982178,-0.7948935031890869,0.8977295756340027,0.5570650100708008,0.6546443700790405,0.0372183583676815,0.9974988102912903,0.4027371406555176,0.6611384153366089,-0.03699382767081261,0.9958128333091736,0.5551126003265381,0.8691519498825073,-0.0980377271771431,0.3112352192401886,0.4211960732936859,0.8727558851242065,-0.07904444634914398,0.28494277596473694,0.5489616394042969,1.051290512084961,0.45583364367485046,0.12651965022087097,0.436716765165329,1.040396809577942,0.4482767879962921,0.16475096344947815,0.5384052991867065,1.0739879608154297,0.4936596751213074,0.17795395851135254,0.43206334114074707,1.075914978981018,0.4872349500656128,0.12110459059476852,0.579818069934845,1.1174476146697998,0.20077285170555115,0.14015468955039978,0.4415324330329895,1.1298396587371826,0.13249005377292633,0.15810322761535645
15169.412920526074,0.4790079891681671,0.2787529230117798,-0.8578745722770691,0.999870777130127,0.4969768226146698,0.25844308733940125,-0.8141157627105713,0.9996974468231201,0.5073418021202087,0.25832176208496094,-0.8142786026000977,0.9996324777603149,0.5169820189476013,0.25862181186676025,-0.8144599795341492,0.9995852112770081,0.4625410735607147,0.2577599287033081,-0.8341636061668396,0.9996609687805176,0.44773373007774353,0.2575368583202362,-0.8343056440353394,0.9996298551559448,0.43564939498901367,0.25754740834236145,-0.8345702290534973,0.9996262788772583,0.5271835327148438,0.2648504972457886,-0.4827202558517456,0.9994865655899048,0.41009384393692017,0.26486700773239136,-0.5875628590583801,0.9996932744979858,0.4935348927974701,0.3017556071281433,-0.725272536277771,0.999904990196228,0.4522319436073303,0.3007524907588959,-0.7558136582374573,0.9999265670776367,0.5872249603271484,0.38125836849212646,-0.2176053524017334,0.9998753070831299,0.3160407543182373,0.3781963288784027,-0.39007827639579773,0.9998348951339722,0.6159781217575073,0.5309492349624634,0.011640235781669617,0.9367102980613708,0.2969857454299927,0.5355353951454163,-0.4139608144760132,0.9697027802467346,0.6551157236099243,0.6610515713691711,-0.21654652059078217,0.8911548256874084,0.39277130365371704,0.5839189291000366,-0.7617775797843933,0.9335381984710693,0.6714287996292114,0.7043378353118896,-0.28907743096351624,0.8413670659065247,0.4109857678413391,0.59942227602005,-0.8496043086051941,0.9070730805397034,0.6583317518234253,0.7089621424674988,-0.37096643447875977,0.8563520312309265,0.4202122986316681,0.5807668566703796,-0.9113345742225647,0.9124812483787537,0.648341953754425,0.6990386843681335,-0.25262394547462463,0.8651739358901978,0.4153274893760681,0.5742514133453369,-0.7876678705215454,0.8934866189956665,0.5564242601394653,0.6552202105522156,0.034908246248960495,0.9976366758346558,0.40172356367111206,0.6616738438606262,-0.034659307450056076,0.9958207607269287,0.5546239018440247,0.8702388405799866,-0.1056542620062828,0.31660225987434387,0.4202316999435425,0.8741700649261475,-0.07632710039615631,0.28096798062324524,0.5495393872261047,1.0527076721191406,0.4493705630302429,0.12534494698047638,0.4266965091228485,1.0556278228759766,0.45513686537742615,0.1608552187681198,0.5393552780151367,1.075342059135437,0.48727142810821533,0.1759863644838333,0.4317387342453003,1.0755038261413574,0.49465107917785645,0.1189577728509903,0.5787764191627502,1.1189969778060913,0.19316396117210388,0.13647150993347168,0.4381929039955139,1.1293835639953613,0.14076511561870575,0.15409068763256073
15186.07958719274,0.47524234652519226,0.2774672210216522,-0.8359526991844177,0.9998911619186401,0.49475157260894775,0.25745418667793274,-0.7920472025871277,0.999745786190033,0.5051056742668152,0.2575799524784088,-0.792188286781311,0.9996922016143799,0.5147896409034729,0.2579256594181061,-0.7923382520675659,0.9996523857116699,0.459619402885437,0.2560645341873169,-0.8110743165016174,0.9997233748435974,0.44527527689933777,0.25565195083618164,-0.8112548589706421,0.9997053742408752,0.43300390243530273,0.25552892684936523,-0.8115274310112,0.9997005462646484,0.5252944231033325,0.2652333378791809,-0.4728536903858185,0.9995667338371277,0.41011711955070496,0.2630777060985565,-0.5745900869369507,0.9997374415397644,0.49123576283454895,0.3019699156284332,-0.7095303535461426,0.9999176263809204,0.448620468378067,0.30016493797302246,-0.7391733527183533,0.9999372959136963,0.5852974653244019,0.38460573554039,-0.22797952592372894,0.9998579025268555,0.3139917254447937,0.3804093301296234,-0.39284393191337585,0.9998278617858887,0.6156877875328064,0.5348751544952393,-0.006176829803735018,0.934246838092804,0.29761213064193726,0.5348958969116211,-0.45377984642982483,0.9641507267951965,0.6605589985847473,0.6628524661064148,-0.20581506192684174,0.8911049365997314,0.38882118463516235,0.5827652215957642,-0.8256474733352661,0.929753303527832,0.6733484864234924,0.7038642764091492,-0.27198120951652527,0.8460794687271118,0.40955135226249695,0.5990102291107178,-0.9144198298454285,0.9077432751655579,0.6590913534164429,0.7088759541511536,-0.3478310704231262,0.8594945073127747,0.4192200005054474,0.5807722210884094,-0.9702130556106567,0.9127820134162903,0.6499842405319214,0.6976616382598877,-0.23829931020736694,0.8690223693847656,0.4137393832206726,0.5737044811248779,-0.8502114415168762,0.8951168060302734,0.556401252746582,0.6552612781524658,0.03351932391524315,0.9978764057159424,0.40185534954071045,0.6627744436264038,-0.033357083797454834,0.9963766932487488,0.5570474863052368,0.8669771552085876,-0.0825386568903923,0.33023616671562195,0.4228995442390442,0.8700015544891357,-0.0588238351047039,0.2989184558391571,0.5511071681976318,1.0482151508331299,0.4576717019081116,0.13735400140285492,0.4318405091762543,1.0534480810165405,0.4614724814891815,0.16966265439987183,0.5420801639556885,1.0701476335525513,0.49491560459136963,0.17975960671901703,0.4359742999076843,1.0721279382705688,0.5007861256599426,0.12077637016773224,0.5779949426651001,1.1159570217132568,0.21423488855361938,0.14942996203899384,0.4462696611881256,1.1286176443099976,0.1612907350063324,0.16349893808364868
