0,1,2,3,4,5,6,7,8,9,10
18440.21314555378,514.236083984375,5101.6025390625,415.9506530761719,865.807373046875,24.09379768371582,108.14279174804688,62.600528717041016,122.22655487060547,16.638805389404297,65535.0
18440.213545562332,521.9230346679688,5083.43994140625,403.0406799316406,918.1365356445312,26.728282928466797,109.50657653808594,66.85429382324219,119.49237060546875,18.883378982543945,65535.0
18440.213945570886,528.8150024414062,5087.77734375,414.06036376953125,942.0050048828125,34.27734375,117.8616943359375,73.92510223388672,128.37509155273438,33.23777389526367,65535.0
18440.214345579436,573.8302612304688,5090.587890625,410.6686096191406,958.0681762695312,32.31796646118164,120.04692840576172,71.85672760009766,128.63534545898438,16.106128692626953,65535.0
18440.21474558799,605.8731079101562,5087.50048828125,408.4697570800781,992.5408325195312,37.08768844604492,124.02835845947266,78.60802459716797,133.88267517089844,17.993772506713867,65535.0
18440.215145596543,621.8040771484375,5092.9892578125,405.8503723144531,1000.685546875,34.501625061035156,118.12940216064453,71.03302764892578,129.5358123779297,28.053552627563477,65535.0
18440.215545605097,621.3961181640625,5102.2890625,406.8656311035156,1004.918701171875,32.438724517822266,121.31147003173828,70.79246520996094,129.28378295898438,23.09946060180664,65535.0
18440.215945613647,614.5393676757812,5097.7568359375,410.87054443359375,1003.1172485351562,31.62641716003418,120.135498046875,70.5431900024414,129.3221893310547,33.906124114990234,65535.0
18440.2163456222,615.384521484375,5085.9794921875,396.8135986328125,965.3306884765625,26.55127716064453,109.69548034667969,63.573028564453125,122.84342956542969,32.22035217285156,65535.0
18440.216745630754,596.6052856445312,5089.275390625,398.1867980957031,915.6502075195312,30.9107723236084,114.85904693603516,69.46629333496094,125.25129699707031,38.86673355102539,65535.0
18440.217145639304,576.107666015625,5088.65185546875,393.050048828125,885.9747924804688,26.194059371948242,109.76984405517578,65.19796752929688,121.11006927490234,38.13965606689453,65535.0
18440.217545647858,560.736083984375,5082.95263671875,390.81390380859375,878.3314819335938,27.832763671875,113.00653839111328,69.74272155761719,123.93187713623047,20.106605529785156,65535.0
18440.21794565641,523.4683837890625,5087.7880859375,392.92962646484375,911.07666015625,25.282642364501953,106.35274505615234,66.21151733398438,118.22137451171875,28.441415786743164,65535.0
18440.218345664965,510.0566711425781,5100.99658203125,388.4291687011719,978.1344604492188,28.06147575378418,109.48848724365234,67.38884735107422,124.9217758178711,28.29157066345215,65535.0
18440.218745673516,546.2979125976562,5118.35107421875,393.27239990234375,1060.1455078125,24.225032806396484,103.37135314941406,64.58418273925781,121.27880859375,40.07217788696289,65535.0
18440.21914568207,573.1034545898438,5117.17236328125,391.1988220214844,1148.1024169921875,21.731416702270508,99.52665710449219,62.04192352294922,117.00419616699219,30.88010025024414,65535.0
18440.219545690623,592.1803588867188,5101.5341796875,395.1300354003906,1191.3099365234375,21.144248962402344,100.96515655517578,61.04109191894531,117.00413513183594,31.56498908996582,65535.0
18440.219945699173,613.2861328125,5098.96533203125,407.4819030761719,1183.310791015625,22.642749786376953,99.9658432006836,63.64746856689453,122.4417724609375,25.8138484954834,65535.0
18440.220345707727,629.0020751953125,5093.7236328125,398.8505554199219,1160.98779296875,22.8476505279541,97.677978515625,61.41295623779297,117.25557708740234,37.75654220581055,65535.0
18440.22074571628,603.9149169921875,5057.568359375,391.4161376953125,1090.516845703125,23.898359298706055,96.40130615234375,62.919376373291016,118.33851623535156,44.035335540771484,65535.0
18440.221145724834,548.3812866210938,5043.5732421875,404.0608825683594,994.2877807617188,28.044889450073242,101.85137176513672,67.98401641845703,124.34074401855469,28.44332504272461,65535.0
18440.221545733384,482.9102478027344,5039.412109375,409.0706787109375,921.0677490234375,18.6793155670166,92.98959350585938,57.719905853271484,115.9410171508789,24.119159698486328,65535.0
18440.221945741938,461.7038269042969,5027.04736328125,397.8111877441406,894.6848754882812,13.655814170837402,84.02978515625,51.99394226074219,108.90352630615234,29.89254379272461,65535.0
18440.22234575049,481.8239440917969,5011.44384765625,394.12493896484375,930.144775390625,14.746506690979004,81.41985321044922,54.735389709472656,110.7610092163086,40.014617919921875,65535.0
18440.22274575904,508.68707275390625,5014.15087890625,400.8758544921875,1012.4605102539062,25.281980514526367,90.40675354003906,60.91872787475586,118.32616424560547,20.93244171142578,65535.0
18440.223145767595,531.6207275390625,5003.16796875,410.6239013671875,1075.5655517578125,16.835147857666016,84.8562240600586,53.12580108642578,111.09980773925781,21.700180053710938,65535.0
18440.22354577615,520.3969116210938,5000.74365234375,415.759765625,1084.2294921875,7.941564559936523,74.13497161865234,48.87896728515625,105.49600219726562,30.07564353942871,65535.0
18440.223945784703,495.2798767089844,5001.2802734375,433.49969482421875,1075.993408203125,7.117056369781494,71.2065200805664,44.625423431396484,104.7574462890625,18.698596954345703,65535.0
18440.224345793253,467.2268981933594,4996.68212890625,436.6142578125,1075.7666015625,2.491344928741455,66.64671325683594,41.91654968261719,98.04339599609375,20.995014190673828,65535.0
18440.224745801806,428.2710266113281,5012.3857421875,424.1942138671875,1095.7972412109375,9.923236846923828,73.67233276367188,51.359622955322266,103.8572006225586,18.636388778686523,65535.0
18440.22514581036,397.4898986816406,5011.197265625,418.7046813964844,1131.4693603515625,9.476545333862305,72.17887878417969,47.72722244262695,103.13367462158203,10.894285202026367,65535.0
18440.22554581891,381.8599548339844,5024.00244140625,426.2818908691406,1157.8349609375,16.209095001220703,79.16044616699219,50.81170654296875,108.30860137939453,12.496366500854492,65535.0
18440.225945827464,366.9490051269531,5034.45361328125,418.6899719238281,1146.1138916015625,20.568599700927734,86.96337890625,58.762168884277344,116.09800720214844,23.66564178466797,65535.0
18440.226345836018,357.83282470703125,5013.734375,418.4292297363281,1101.5169677734375,22.010007858276367,88.3331069946289,59.62625503540039,115.62117767333984,37.61381530761719,65535.0
18440.22674584457,355.083984375,4992.33544921875,432.07452392578125,1069.7423095703125,11.21175765991211,78.80128479003906,51.41209411621094,106.25457763671875,30.103633880615234,65535.0
18440.22714585312,359.8861389160156,4994.525390625,437.4923095703125,1058.268798828125,7.863396644592285,69.00008392333984,47.47849655151367,103.3515625,19.781700134277344,65535.0
18440.227545861675,368.8676452636719,4979.07568359375,423.4349060058594,1081.74560546875,4.901457786560059,69.83433532714844,43.48719787597656,99.92975616455078,19.259851455688477,65535.0
18440.22794587023,375.02508544921875,4962.8515625,421.9171142578125,1099.8504638671875,12.731586456298828,80.49786376953125,52.7430305480957,106.59290313720703,26.219961166381836,65535.0
18440.22834587878,367.7469482421875,4971.3935546875,421.6144104003906,1103.1207275390625,17.55065155029297,86.43368530273438,55.63639831542969,111.05889892578125,27.194339752197266,65535.0
18440.228745887332,372.73150634765625,4973.572265625,426.3793029785156,1110.3760986328125,20.911020278930664,90.8941650390625,59.88593673706055,116.41082000732422,34.46440887451172,65535.0
18440.229145895886,407.17822265625,4981.6650390625,430.5605773925781,1112.555908203125,14.73859977722168,87.55370330810547,56.157413482666016,110.85767364501953,31.66805648803711,65535.0
18440.22954590444,402.5916442871094,4985.201171875,416.02398681640625,1114.703125,14.538013458251953,86.85047149658203,54.42790222167969,108.0220718383789,27.324995040893555,65535.0
18440.22994591299,382.9276123046875,4976.955078125,405.8694763183594,1102.283935546875,14.531131744384766,86.88423919677734,52.98284149169922,109.38880920410156,25.68661117553711,65535.0
18440.230345921544,356.5930480957031,4979.63037109375,411.9582214355469,1077.1556396484375,19.26173210144043,91.57000732421875,56.80632781982422,115.00732421875,20.591720581054688,65535.0
18440.230745930097,311.5609436035156,4995.10107421875,406.4002685546875,1067.2838134765625,21.61943817138672,98.33502197265625,60.90499496459961,114.1694107055664,25.85019874572754,65535.0
18440.231145938647,271.19122314453125,5008.82763671875,394.0556945800781,1063.9879150390625,18.447368621826172,100.82730102539062,61.999473571777344,117.87657165527344,20.97426414489746,65535.0
18440.2315459472,254.2570037841797,5014.54443359375,384.251220703125,1065.001953125,24.809940338134766,104.39867401123047,64.28801727294922,122.33421325683594,36.0034065246582,65535.0
18440.231945955755,254.46531677246094,5017.82275390625,391.9079895019531,1059.2664794921875,26.001590728759766,109.86761474609375,69.22685241699219,124.80921173095703,24.825786590576172,65535.0
18440.23234596431,315.6313171386719,5034.2509765625,404.3748474121094,1079.29541015625,27.913898468017578,111.19319152832031,69.36112213134766,122.23070526123047,29.635578155517578,65535.0
18440.23274597286,388.0221252441406,5039.6787109375,401.1706848144531,1088.197021484375,34.06906509399414,118.77214813232422,70.30970001220703,130.25357055664062,28.728267669677734,65535.0
18440.233145981412,436.93768310546875,5051.6484375,406.6783142089844,1103.716552734375,39.00607681274414,128.1672821044922,80.1529541015625,134.82748413085938,25.993379592895508,65535.0
18440.233545989966,451.61236572265625,5073.9931640625,405.2149963378906,1105.1552734375,44.0223274230957,130.55584716796875,81.08763885498047,138.09841918945312,32.130638122558594,65535.0
18440.233945998516,448.6675720214844,5083.068359375,412.3912658691406,1103.5833740234375,35.10921859741211,127.03240966796875,75.24018096923828,131.78677368164062,22.678382873535156,65535.0
18440.23434600707,412.03875732421875,5090.775390625,420.89678955078125,1093.759765625,39.71329879760742,129.65049743652344,80.06702423095703,136.5198211669922,23.933794021606445,65535.0
18440.234746015623,381.6108093261719,5094.6591796875,410.97833251953125,1079.7613525390625,39.32234573364258,127.09956359863281,75.0869369506836,130.54827880859375,23.887720108032227,65535.0
18440.235146024177,376.6578369140625,5079.92578125,409.2312316894531,1071.3360595703125,43.27611541748047,133.60076904296875,79.98189544677734,134.4524688720703,19.258577346801758,65535.0
18440.235546032727,388.4582824707031,5072.0908203125,406.7230224609375,1072.817626953125,40.58948516845703,127.84698486328125,79.31916046142578,135.0863494873047,34.0216064453125,65535.0
18440.23594604128,402.94879150390625,5058.28515625,401.16015625,1064.9129638671875,35.74519348144531,123.22901153564453,74.41705322265625,128.15451049804688,23.75090217590332,65535.0
18440.236346049835,436.2496643066406,5042.75244140625,421.2477722167969,1048.5010986328125,38.127071380615234,126.66815185546875,78.20286560058594,131.8335723876953,22.350173950195312,65535.0
18440.236746058385,464.5303955078125,5030.59228515625,418.6456604003906,1046.8109130859375,30.153352737426758,116.21761322021484,71.1919174194336,125.89918518066406,41.205135345458984,65535.0
18440.23714606694,460.6844787597656,4999.97216796875,413.2803649902344,1054.5784912109375,41.851402282714844,127.34912872314453,80.49602508544922,136.6476593017578,18.873943328857422,65535.0
18440.237546075492,443.1120910644531,4977.99658203125,403.9019470214844,1065.7825927734375,37.9289436340332,123.49383544921875,74.91580963134766,132.76861572265625,21.28141975402832,65535.0
18440.237946084046,439.11029052734375,4995.4736328125,403.35137939453125,1067.9049072265625,31.556623458862305,113.03184509277344,69.6084976196289,126.89270782470703,42.52080154418945,65535.0
18440.238346092596,453.060302734375,4993.72412109375,409.8437194824219,1061.8756103515625,33.620967864990234,116.54512786865234,72.56549835205078,129.99461364746094,21.761695861816406,65535.0
18440.23874610115,447.679443359375,5007.4326171875,397.0448913574219,1063.580810546875,33.81140899658203,117.5237808227539,72.83535766601562,129.38694763183594,17.252437591552734,65535.0
18440.239146109703,433.5583801269531,5023.03369140625,407.3443603515625,1054.9810791015625,34.92051696777344,119.95994567871094,75.92317199707031,133.9408416748047,26.402624130249023,65535.0
18440.239546118253,411.2110290527344,5033.11279296875,422.3504638671875,1031.5194091796875,33.02503204345703,113.14775085449219,70.4912338256836,129.0608367919922,44.02171325683594,65535.0
18440.239946126807,407.9360046386719,5047.44189453125,418.933837890625,1039.4783935546875,32.48501968383789,111.04338073730469,73.2353286743164,127.5254898071289,27.2028751373291,65535.0
18440.24034613536,429.74554443359375,5062.59814453125,423.93267822265625,1044.81494140625,40.37788772583008,118.99898529052734,79.9591293334961,134.50177001953125,16.476423263549805,65535.0
18440.240746143914,458.16802978515625,5097.359375,420.2081298828125,1044.3321533203125,34.66587448120117,111.80309295654297,71.16376495361328,128.15133666992188,22.541641235351562,65535.0
18440.241146152464,465.4350280761719,5120.02001953125,420.0945129394531,1042.7698974609375,26.508024215698242,101.61906433105469,65.9955062866211,122.98591613769531,19.49354362487793,65535.0
18440.241546161018,470.28857421875,5131.037109375,425.1100769042969,1045.2047119140625,27.13050079345703,102.66931915283203,69.06922149658203,125.0660400390625,19.07683753967285,65535.0
18440.24194616957,450.7119445800781,5138.8974609375,445.42559814453125,1056.85986328125,23.286895751953125,96.89727783203125,62.704689025878906,119.78063201904297,36.6863899230957,65535.0
18440.24234617812,451.59564208984375,5157.57666015625,435.7457275390625,1057.149169921875,15.937588691711426,87.15040588378906,58.52264404296875,112.89189910888672,29.76927375793457,65535.0
18440.242746186676,471.3620300292969,5173.43408203125,419.80328369140625,1054.9859619140625,22.758710861206055,89.23825073242188,62.34072494506836,118.10730743408203,21.986040115356445,65535.0
18440.24314619523,468.0884094238281,5169.06494140625,414.8407287597656,1053.1727294921875,24.74126625061035,89.84326171875,64.76607513427734,119.66400146484375,24.897886276245117,65535.0
18440.243546203783,450.08172607421875,5164.677734375,409.8680725097656,1038.75048828125,13.335074424743652,77.65885925292969,52.51991653442383,109.89436340332031,10.853889465332031,65535.0
18440.243946212333,461.00433349609375,5159.5205078125,405.63958740234375,1040.0614013671875,19.425931930541992,85.21636199951172,60.48573684692383,117.05730438232422,21.612573623657227,65535.0
18440.244346220887,498.6481018066406,5145.3857421875,410.1197814941406,1041.6328125,17.36882209777832,83.00953674316406,60.565547943115234,112.36674499511719,33.636173248291016,65535.0
18440.24474622944,511.9354248046875,5140.2392578125,413.14727783203125,1051.929931640625,21.706926345825195,86.52116394042969,61.088748931884766,119.53239440917969,30.598068237304688,65535.0
18440.24514623799,508.58343505859375,5122.5439453125,413.6376953125,1064.2659912109375,15.858161926269531,79.15489196777344,55.54872512817383,111.1851806640625,34.165916442871094,65535.0
18440.245546246544,505.12567138671875,5117.626953125,409.36346435546875,1056.2559814453125,15.63079833984375,78.4172592163086,55.91333770751953,112.6109619140625,13.976651191711426,65535.0
18440.245946255098,500.4491271972656,5115.4423828125,411.8499755859375,1046.791259765625,23.030298233032227,84.69512939453125,61.98381805419922,116.57542419433594,17.21096420288086,65535.0
18440.24634626365,489.00439453125,5097.54638671875,391.8490295410156,1038.2333984375,21.345003128051758,81.54065704345703,58.780242919921875,111.82039642333984,29.439807891845703,65535.0
18440.2467462722,501.0876770019531,5087.8349609375,394.40972900390625,1027.691650390625,10.15122127532959,73.61682891845703,52.21095275878906,105.61911010742188,30.67208480834961,65535.0
18440.247146280755,517.6329956054688,5088.4833984375,408.5602722167969,1031.693603515625,17.461950302124023,84.35446166992188,55.23670959472656,113.55967712402344,21.8223934173584,65535.0
18440.24754628931,537.6171264648438,5101.73193359375,407.3016052246094,1039.286865234375,19.526912689208984,85.92249298095703,58.008583068847656,113.53675842285156,24.62822914123535,65535.0
18440.24794629786,541.0748291015625,5094.5380859375,417.2925109863281,1022.3792114257812,29.845836639404297,97.73523712158203,68.41049194335938,123.47958374023438,27.372940063476562,65535.0
18440.248346306413,535.703857421875,5073.8193359375,419.69305419921875,998.1892700195312,27.57020378112793,95.9566650390625,68.49027252197266,124.16879272460938,28.17032241821289,65535.0
18440.248746314966,501.61480712890625,5075.43017578125,425.5917053222656,986.7549438476562,25.555078506469727,97.2123794555664,66.19142150878906,123.747802734375,15.103382110595703,65535.0
18440.24914632352,452.5305480957031,5076.7587890625,418.6033630371094,1003.8113403320312,26.369935989379883,95.02510833740234,63.991363525390625,120.07891845703125,28.21728515625,65535.0
18440.24954633207,415.5474548339844,5055.44189453125,420.3357238769531,1006.9901123046875,26.761898040771484,94.02668762207031,66.05513000488281,119.34774780273438,19.905794143676758,65535.0
18440.249946340624,380.99578857421875,5019.3271484375,413.8800048828125,1024.888671875,27.502784729003906,98.00797271728516,63.127384185791016,121.97396087646484,13.188408851623535,65535.0
18440.250346349178,338.1235656738281,4998.46875,399.4642639160156,1042.8980712890625,24.43382453918457,98.54398345947266,61.64162826538086,117.82229614257812,30.47196388244629,65535.0
18440.250746357728,320.7607727050781,4988.4130859375,401.091552734375,1038.8031005859375,29.18572235107422,101.98006439208984,66.58648681640625,122.99282836914062,11.808737754821777,65535.0
18440.25114636628,312.29144287109375,4984.79833984375,391.0362854003906,1052.9354248046875,33.84980773925781,107.49884796142578,71.07987213134766,125.89784240722656,3.4796950817108154,65535.0
18440.251546374835,302.1983337402344,4982.033203125,401.1299743652344,1054.9263916015625,23.870555877685547,100.09233093261719,61.49412536621094,117.8110580444336,18.707000732421875,65535.0
18440.25194638339,289.3761901855469,4983.83837890625,398.2398681640625,1054.6341552734375,16.731019973754883,93.35455322265625,57.29694747924805,111.130126953125,36.23020553588867,65535.0
18440.25234639194,284.5141296386719,4985.54833984375,388.995849609375,1048.625244140625,33.183021545410156,110.6814193725586,71.80221557617188,125.68270874023438,17.569589614868164,65535.0
18440.252746400492,332.1427917480469,4977.1015625,397.72540283203125,1050.639892578125,37.31072998046875,118.93865966796875,74.43402862548828,132.87696838378906,18.56842041015625,65535.0
18440.253146409046,387.0330505371094,4973.1728515625,407.68756103515625,1059.6636962890625,31.996570587158203,111.21520233154297,69.45455169677734,125.71634674072266,24.299869537353516,65535.0
18440.253546417596,437.5444030761719,4965.9189453125,403.6699523925781,1061.3677978515625,27.325000762939453,113.91704559326172,71.8261947631836,126.89492797851562,34.92280960083008,65535.0
18440.25394642615,472.73248291015625,4962.48388671875,403.7187805175781,1059.981201171875,38.24716567993164,122.80790710449219,76.4581298828125,135.50521850585938,35.10224533081055,65535.0
18440.254346434704,547.055419921875,4959.33642578125,401.5191345214844,1057.5301513671875,41.078094482421875,127.73339080810547,79.45159149169922,134.3454132080078,29.434825897216797,65535.0
18440.254746443257,602.017333984375,4961.06591796875,404.41558837890625,1058.9757080078125,45.35481643676758,137.57545471191406,87.50757598876953,143.79681396484375,17.079547882080078,65535.0
18440.255146451807,610.0921630859375,4944.90673828125,409.10870361328125,1064.4959716796875,49.53455352783203,136.89761352539062,88.3635025024414,143.16183471679688,24.3327579498291,65535.0
18440.25554646036,621.7792358398438,4916.412109375,419.2559509277344,1055.85107421875,42.103858947753906,129.8688201904297,80.77851104736328,138.9883575439453,28.42428207397461,65535.0
18440.255946468915,639.9517211914062,4906.8984375,423.3014221191406,1028.138427734375,43.84128952026367,131.19564819335938,83.08611297607422,140.98431396484375,18.636926651000977,65535.0
18440.256346477465,651.0255126953125,4921.41015625,410.44940185546875,998.733642578125,43.203102111816406,128.6814727783203,83.75615692138672,136.3318328857422,25.935365676879883,65535.0
18440.25674648602,656.9612426757812,4948.2939453125,417.8399658203125,997.5392456054688,40.23540496826172,123.35997772216797,80.08551025390625,135.03326416015625,25.23371696472168,65535.0
18440.257146494572,697.4578857421875,4967.990234375,421.3252868652344,987.6541137695312,39.158912658691406,118.74385833740234,75.61177062988281,128.13160705566406,31.44251251220703,65535.0
18440.257546503126,739.75732421875,4976.251953125,409.2962646484375,994.5746459960938,25.32569694519043,108.0531997680664,67.07073211669922,120.97171783447266,44.93128967285156,65535.0
18440.257946511676,752.7909545898438,4978.4453125,414.09747314453125,1016.6475830078125,28.815547943115234,110.88368225097656,67.96385192871094,123.9659652709961,31.66283416748047,65535.0
18440.25834652023,750.3062744140625,4988.08984375,426.349365234375,1029.282470703125,31.849973678588867,117.05369567871094,74.55767059326172,130.11068725585938,42.05236053466797,65535.0
18440.258746528783,751.59375,5004.017578125,425.2859802246094,1030.18408203125,33.424949645996094,115.22077941894531,74.61748504638672,130.70664978027344,27.366119384765625,65535.0
18440.259146537333,745.155517578125,5022.572265625,430.9181823730469,1021.18701171875,31.99808692932129,109.12736511230469,69.90016174316406,125.5198974609375,22.083515167236328,65535.0
18440.259546545887,719.0556640625,5046.47509765625,430.146484375,1019.2953491210938,28.565677642822266,107.03329467773438,68.75215148925781,125.42887115478516,30.30583381652832,65535.0
18440.25994655444,673.7299194335938,5056.01953125,443.9127502441406,1031.662353515625,25.95417594909668,103.04364776611328,67.25985717773438,121.66651153564453,21.865358352661133,65535.0
18440.260346562995,645.10107421875,5058.60009765625,432.96124267578125,1040.392578125,30.282196044921875,104.6534423828125,70.99689483642578,124.04486083984375,24.869428634643555,65535.0
18440.260746571545,612.3753051757812,5081.71826171875,424.57000732421875,1027.9508056640625,25.0939998626709,99.1866683959961,65.4841079711914,119.97624969482422,26.636240005493164,65535.0
18440.2611465801,580.1903076171875,5103.88525390625,445.5779113769531,1011.3703002929688,21.71452522277832,93.63206481933594,61.348297119140625,114.84368133544922,15.692312240600586,65535.0
18440.261546588652,562.6520385742188,5096.560546875,444.23895263671875,1004.510009765625,23.29205322265625,97.75222778320312,63.91669464111328,120.40010833740234,19.460050582885742,65535.0
18440.261946597202,554.6067504882812,5105.49267578125,440.3577880859375,1017.735595703125,27.5128116607666,94.71005249023438,64.77581787109375,122.58047485351562,31.384553909301758,65535.0
18440.262346605756,530.0230102539062,5127.96044921875,449.3587341308594,1036.7559814453125,20.63611602783203,85.56336212158203,57.64069366455078,113.93207550048828,25.733062744140625,65535.0
18440.26274661431,552.0396728515625,5143.0029296875,442.9867248535156,1037.5931396484375,10.600851058959961,76.24166107177734,51.32997131347656,104.57032012939453,22.96961212158203,65535.0
18440.263146622863,569.1214599609375,5153.3857421875,439.9705505371094,1026.3880615234375,10.567575454711914,74.64763641357422,47.63523483276367,104.72207641601562,25.11827850341797,65535.0
18440.263546631413,539.7880249023438,5154.57421875,452.1730651855469,1027.338623046875,13.986404418945312,79.12666320800781,51.82596206665039,109.74247741699219,42.16710662841797,65535.0
18440.263946639967,516.3115844726562,5147.22021484375,437.7616271972656,1027.9217529296875,13.811516761779785,74.18433380126953,53.10768127441406,109.3133773803711,29.817611694335938,65535.0
18440.26434664852,520.4214477539062,5143.8759765625,427.25128173828125,1021.1412963867188,10.388919830322266,71.06407165527344,48.280391693115234,105.55421447753906,22.79766845703125,65535.0
18440.26474665707,526.6363525390625,5140.03076171875,425.2811584472656,992.437744140625,11.025261878967285,73.64791107177734,51.14430618286133,107.14556884765625,21.132951736450195,65535.0
18440.265146665624,523.1323852539062,5124.1357421875,412.8844909667969,945.901123046875,13.306483268737793,75.89130401611328,52.86616897583008,108.0191650390625,35.267452239990234,65535.0
18440.265546674178,509.7972717285156,5122.6611328125,414.1437683105469,938.3124389648438,20.017227172851562,82.0324478149414,57.8677978515625,114.97273254394531,33.63309860229492,65535.0
18440.26594668273,487.4681701660156,5121.931640625,428.4614562988281,935.1632080078125,7.601675987243652,70.21957397460938,48.091026306152344,103.62751007080078,28.167499542236328,65535.0
18440.26634669128,455.3628234863281,5115.67041015625,427.5380859375,922.1231689453125,8.258955001831055,72.21460723876953,47.91733932495117,103.19039154052734,17.796541213989258,65535.0
18440.266746699835,437.2261657714844,5116.3134765625,426.9805908203125,923.5744018554688,15.898002624511719,82.29783630371094,57.439056396484375,112.2044906616211,20.99503517150879,65535.0
18440.26714670839,409.0484313964844,5116.833984375,424.443115234375,922.0396118164062,11.802244186401367,81.81700134277344,54.94801712036133,109.96724700927734,27.00632667541504,65535.0
18440.26754671694,331.1618347167969,5091.4951171875,427.2729797363281,931.6793823242188,13.25733757019043,80.27140045166016,52.548988342285156,107.04031372070312,14.809823036193848,65535.0
18440.267946725493,253.42047119140625,5079.37646484375,425.39862060546875,946.1453247070312,8.135566711425781,74.89684295654297,49.492523193359375,103.17671966552734,23.950693130493164,65535.0
18440.268346734047,253.1074676513672,5068.7275390625,427.62506103515625,954.130615234375,9.7420015335083,77.99591064453125,52.1912841796875,106.03791046142578,33.510921478271484,65535.0
18440.2687467426,295.14404296875,5062.7080078125,446.1656494140625,941.8629150390625,24.670251846313477,93.9661636352539,61.68390655517578,118.196533203125,19.117815017700195,65535.0
18440.26914675115,307.7030944824219,5052.1669921875,445.09942626953125,934.2913818359375,15.205599784851074,86.1603012084961,55.74151611328125,111.81739044189453,9.742547035217285,65535.0
18440.269546759704,335.7319641113281,5059.69775390625,447.8336181640625,933.1620483398438,12.385432243347168,83.27503204345703,52.534324645996094,108.53408813476562,15.703229904174805,65535.0
18440.269946768258,348.8053894042969,5066.423828125,437.7740478515625,948.7407836914062,20.82392692565918,93.57154846191406,60.85983657836914,115.79692840576172,12.94966983795166,65535.0
18440.270346776808,339.22772216796875,5067.26806640625,436.5758056640625,966.652099609375,19.474897384643555,95.42806243896484,61.73308181762695,117.528564453125,12.309504508972168,65535.0
18440.27074678536,301.9958801269531,5079.5576171875,422.9450988769531,935.7349243164062,23.674619674682617,96.65857696533203,62.96966552734375,119.4349136352539,16.388479232788086,65535.0
18440.271146793915,296.8997802734375,5070.94580078125,413.8766174316406,874.69873046875,27.043947219848633,107.84855651855469,66.81171417236328,121.1429672241211,26.70228385925293,65535.0
18440.27154680247,331.63946533203125,5051.2470703125,417.88690185546875,850.45068359375,21.518226623535156,98.08552551269531,59.44208908081055,115.13916015625,26.209945678710938,65535.0
18440.27194681102,381.8724670410156,5040.30615234375,412.9598083496094,855.969970703125,26.874897003173828,102.12023162841797,67.24481201171875,121.22222137451172,31.687902450561523,65535.0
18440.272346819573,400.8518371582031,5051.39013671875,408.78619384765625,893.8110961914062,31.258621215820312,112.16063690185547,70.26594543457031,126.7057876586914,22.00723648071289,65535.0
18440.272746828126,403.94244384765625,5035.26513671875,416.7934265136719,925.0008544921875,42.50429153442383,124.34954833984375,81.87801361083984,136.26220703125,32.05112075805664,65535.0
18440.273146836676,425.2142639160156,5035.65966796875,424.3425598144531,974.3446044921875,43.041378021240234,126.29810333251953,80.97774505615234,135.84893798828125,29.774173736572266,65535.0
18440.27354684523,470.9251708984375,5048.51806640625,420.46868896484375,1006.5997314453125,38.915252685546875,125.51223754882812,78.60968780517578,134.21473693847656,34.290164947509766,65535.0
18440.273946853784,504.7098083496094,5071.4443359375,420.155517578125,1026.1756591796875,30.625581741333008,111.95441436767578,69.62296295166016,122.06758117675781,39.78214645385742,65535.0
18440.274346862338,500.20904541015625,5091.1796875,414.521728515625,1048.17822265625,41.148929595947266,126.8931884765625,79.37052154541016,135.06472778320312,27.44107437133789,65535.0
18440.274746870888,472.4001770019531,5106.64404296875,406.8172607421875,1072.0286865234375,37.867454528808594,130.7338104248047,80.66958618164062,134.7983856201172,26.36654281616211,65535.0
18440.27514687944,461.44891357421875,5105.5849609375,426.2399597167969,1097.13232421875,27.13608169555664,114.98486328125,69.52605438232422,125.91943359375,26.357303619384766,65535.0
18440.275546887995,434.79150390625,5099.19775390625,424.48614501953125,1085.14404296875,26.030414581298828,112.31327056884766,64.9256362915039,122.95195007324219,40.532405853271484,65535.0
18440.275946896545,390.3591613769531,5105.02783203125,402.4047546386719,1058.1134033203125,30.00419807434082,117.72250366210938,71.92125701904297,125.1753921508789,35.38920974731445,65535.0
18440.2763469051,365.19287109375,5098.5205078125,397.8628845214844,1065.5860595703125,26.713043212890625,111.1423110961914,67.3666763305664,121.58323669433594,27.233943939208984,65535.0
18440.276746913652,357.8897399902344,5105.25927734375,411.7506103515625,1061.8746337890625,30.03351402282715,114.42191314697266,69.43163299560547,126.85796356201172,20.820308685302734,65535.0
18440.277146922206,337.1424255371094,5127.60205078125,413.1929931640625,1035.3004150390625,31.714191436767578,115.52799987792969,71.058349609375,129.58529663085938,27.296791076660156,65535.0
18440.277546930756,332.1478576660156,5136.2939453125,412.3742980957031,1032.1630859375,32.12140655517578,111.47030639648438,68.13925170898438,124.43466186523438,27.638057708740234,65535.0
18440.27794693931,340.04058837890625,5130.265625,412.7701110839844,1043.73193359375,33.590721130371094,116.1443099975586,72.14874267578125,131.4790802001953,39.293643951416016,65535.0
18440.278346947864,343.3934631347656,5122.91845703125,433.6199035644531,1033.4840087890625,34.139793395996094,117.86481475830078,74.60687255859375,127.7071304321289,26.017866134643555,65535.0
18440.278746956414,351.7524108886719,5125.9716796875,439.5701904296875,1007.2708740234375,30.339862823486328,111.13298034667969,70.27967834472656,124.8299331665039,28.94246482849121,65535.0
18440.279146964967,374.5913391113281,5127.84765625,439.1620178222656,992.2982788085938,32.97794723510742,113.72718811035156,70.86112213134766,129.1007843017578,35.86021041870117,65535.0
18440.27954697352,412.6817321777344,5112.56787109375,440.3914489746094,975.1942138671875,30.826555252075195,111.23656463623047,70.35440826416016,126.18550872802734,41.44520568847656,65535.0
18440.279946982075,458.8586120605469,5108.80419921875,428.1767883300781,939.0084838867188,30.240175247192383,107.36772155761719,67.56396484375,123.17073059082031,23.603008270263672,65535.0
18440.280346990625,499.1214294433594,5099.302734375,419.4129333496094,905.1040649414062,22.487390518188477,97.494873046875,62.044498443603516,116.87135314941406,14.96017837524414,65535.0
18440.28074699918,487.83673095703125,5088.2021484375,423.7264404296875,893.3964233398438,16.2027530670166,90.09761810302734,55.45115661621094,111.4188461303711,34.9676513671875,65535.0
18440.281147007732,504.72479248046875,5083.94580078125,431.14117431640625,894.953369140625,15.897661209106445,89.15132904052734,54.85260772705078,111.6749496459961,24.653484344482422,65535.0
18440.281547016282,545.4462280273438,5059.5751953125,441.050537109375,897.1722412109375,28.317821502685547,101.32940673828125,69.18411254882812,121.78736877441406,19.841371536254883,65535.0
18440.281947024836,584.4991455078125,5069.435546875,430.2607421875,912.2593383789062,37.4521484375,112.74579620361328,80.11475372314453,133.43649291992188,17.445228576660156,65535.0
18440.28234703339,556.9369506835938,5082.990234375,420.6439208984375,923.1010131835938,31.667173385620117,102.81153106689453,74.21431732177734,128.6317138671875,30.385536193847656,65535.0
18440.282747041943,497.4755554199219,5090.81494140625,425.0428466796875,958.3870849609375,15.04791259765625,82.15255737304688,57.12200927734375,110.71186065673828,23.146711349487305,65535.0
18440.283147050493,517.931640625,5098.85693359375,439.8616027832031,1009.4685668945312,6.054904937744141,70.79859924316406,44.419586181640625,102.18555450439453,14.07123851776123,65535.0
18440.283547059047,547.360107421875,5090.58544921875,441.13397216796875,1039.80712890625,12.866774559020996,78.79534912109375,52.03386688232422,110.75003814697266,31.338581085205078,65535.0
18440.2839470676,543.2955932617188,5095.84814453125,434.0632019042969,1030.07177734375,19.493074417114258,82.89126586914062,58.46489334106445,112.78998565673828,17.446796417236328,65535.0
18440.28434707615,507.82855224609375,5105.00146484375,434.5975646972656,1018.0706787109375,14.141178131103516,80.7529525756836,55.64411163330078,111.0046615600586,39.03282165527344,65535.0
18440.284747084705,487.3785400390625,5102.54833984375,432.59173583984375,1010.7896728515625,11.294629096984863,78.96942138671875,52.17241668701172,107.64905548095703,31.402976989746094,65535.0
18440.28514709326,442.7909240722656,5092.2001953125,430.9615173339844,994.4239501953125,1.2006779909133911,65.87024688720703,43.6323356628418,98.5040054321289,23.94539451599121,65535.0
18440.285547101812,429.6745910644531,5093.2138671875,428.0628662109375,987.2656860351562,-0.07474839687347412,63.214759826660156,40.37629699707031,96.89742279052734,17.5948486328125,65535.0
18440.285947110362,453.488037109375,5084.16748046875,430.3418884277344,992.5316772460938,17.246807098388672,78.89659118652344,55.55416488647461,111.08515167236328,20.07655143737793,65535.0
18440.286347118916,443.4545593261719,5080.375,430.53411865234375,987.3839111328125,20.302305221557617,84.65015411376953,60.64158630371094,114.64041900634766,39.939754486083984,65535.0
18440.28674712747,449.67913818359375,5086.38134765625,427.0856018066406,1001.4055786132812,13.187667846679688,76.21499633789062,52.648345947265625,105.03873443603516,25.033462524414062,65535.0
18440.28714713602,456.71649169921875,5093.6240234375,421.25933837890625,1022.8900146484375,12.57827091217041,77.23985290527344,49.14838790893555,106.54668426513672,25.742433547973633,65535.0
18440.287547144573,466.5899658203125,5091.6923828125,415.6151123046875,1025.4019775390625,24.925996780395508,91.02898406982422,64.69541931152344,118.83482360839844,29.633895874023438,65535.0
18440.287947153127,488.2610168457031,5094.72607421875,420.03643798828125,1011.568115234375,26.63195037841797,94.71861267089844,68.5232162475586,121.11031341552734,30.601459503173828,65535.0
18440.28834716168,485.1614685058594,5085.41796875,422.1800537109375,1004.654052734375,16.428783416748047,87.95062255859375,59.426025390625,112.45914459228516,17.331741333007812,65535.0
18440.28874717023,484.4697265625,5099.8701171875,412.42340087890625,1013.83544921875,14.164246559143066,81.69866943359375,53.80616760253906,109.28465270996094,28.787179946899414,65535.0
18440.289147178784,497.88134765625,5105.79833984375,409.160888671875,1034.2767333984375,26.038877487182617,96.85285186767578,65.12471008300781,120.0682144165039,33.21625900268555,65535.0
18440.289547187338,517.8314819335938,5104.40380859375,426.8486328125,1053.8961181640625,22.33641815185547,96.33545684814453,63.02674102783203,117.98129272460938,33.729026794433594,65535.0
18440.289947195888,528.7785034179688,5112.53173828125,421.7530822753906,1064.6116943359375,29.1217041015625,101.66942596435547,70.15386199951172,125.65715789794922,36.7758903503418,65535.0
18440.29034720444,507.8053283691406,5116.1142578125,422.3742980957031,1068.104248046875,23.200096130371094,99.5634765625,65.75753784179688,120.3472900390625,36.45246124267578,65535.0
18440.290747212995,471.8685607910156,5104.36376953125,423.171630859375,1050.721923828125,30.103532791137695,108.18853759765625,68.90483093261719,124.69005584716797,28.292766571044922,65535.0
18440.29114722155,471.0888977050781,5100.43212890625,423.3489074707031,1034.640380859375,34.01935958862305,112.1707534790039,70.14918518066406,127.67088317871094,28.602149963378906,65535.0
18440.2915472301,518.9285888671875,5108.3974609375,428.0547790527344,1005.5005493164062,34.84783935546875,113.26514434814453,74.31017303466797,127.3079833984375,28.47068214416504,65535.0
18440.291947238653,602.1332397460938,5113.83837890625,436.3838806152344,997.0581665039062,41.093997955322266,122.05339050292969,79.71845245361328,136.0858612060547,31.022418975830078,65535.0
18440.292347247207,635.5452880859375,5116.87158203125,438.79302978515625,1005.9459838867188,34.18291091918945,119.66980743408203,74.76810455322266,131.24363708496094,28.876008987426758,65535.0
18440.292747255757,627.5949096679688,5109.73828125,435.0413513183594,1010.1904296875,31.994115829467773,115.11083221435547,71.09917449951172,125.4295425415039,24.387279510498047,65535.0
18440.29314726431,614.9114990234375,5114.580078125,424.98089599609375,1015.3535766601562,36.677513122558594,120.52313995361328,75.67178344726562,130.41600036621094,31.528379440307617,65535.0
18440.293547272864,585.5139770507812,5110.1044921875,431.1706848144531,1029.9427490234375,31.902233123779297,113.32270812988281,70.26730346679688,125.68757629394531,34.025474548339844,65535.0
18440.293947281418,557.7011108398438,5118.33349609375,433.75677490234375,1031.72412109375,30.257259368896484,114.97714233398438,69.63542938232422,124.70654296875,23.83452606201172,65535.0
18440.294347289968,560.9929809570312,5124.86083984375,438.08251953125,1029.6839599609375,28.9990234375,116.62762451171875,69.47277069091797,124.00406646728516,33.06456756591797,65535.0
18440.29474729852,573.0595703125,5128.7744140625,448.12530517578125,1030.1790771484375,28.75142478942871,110.92323303222656,68.39457702636719,122.76663970947266,21.48150062561035,65535.0
18440.295147307075,550.864013671875,5130.58251953125,449.9805603027344,1025.020263671875,33.61283493041992,120.19865417480469,75.59721374511719,131.615966796875,10.566654205322266,65535.0
18440.295547315625,513.6909790039062,5122.80615234375,451.9082336425781,1018.07177734375,39.905479431152344,124.56167602539062,80.43446350097656,133.25497436523438,27.519824981689453,65535.0
18440.29594732418,521.8541870117188,5126.36669921875,447.27978515625,1017.6648559570312,43.750545501708984,129.9091339111328,82.73654174804688,138.8690643310547,29.515195846557617,65535.0
18440.296347332733,554.24169921875,5120.95361328125,437.4935607910156,1010.02587890625,42.967994689941406,131.16331481933594,86.47735595703125,138.22178649902344,14.227994918823242,65535.0
18440.296747341286,551.6406860351562,5130.76708984375,443.7765197753906,1014.2879638671875,32.56532287597656,115.35684967041016,71.1696548461914,126.68753814697266,30.39522933959961,65535.0
18440.297147349836,531.054443359375,5120.8798828125,442.5323791503906,1025.89111328125,35.85090637207031,118.334228515625,76.5599136352539,133.22305297851562,23.239343643188477,65535.0
18440.29754735839,504.1292724609375,5108.08447265625,451.7962341308594,1026.06103515625,29.401866912841797,112.19808959960938,70.40478515625,124.03984832763672,17.60966682434082,65535.0
18440.297947366944,476.4114990234375,5105.22119140625,460.21142578125,1021.599365234375,25.03160285949707,101.16377258300781,63.9635009765625,118.3162612915039,23.170629501342773,65535.0
18440.298347375494,474.9297790527344,5118.60498046875,456.5658264160156,1026.90234375,30.5499267578125,108.39292907714844,68.95944213867188,126.02145385742188,32.60642623901367,65535.0
18440.298747384048,458.7290344238281,5121.53857421875,457.010009765625,1048.3280029296875,23.273405075073242,102.9902572631836,65.9322738647461,121.27793884277344,23.331552505493164,65535.0
18440.2991473926,436.5983581542969,5107.59716796875,457.54425048828125,1049.9696044921875,14.393638610839844,92.22981262207031,57.107330322265625,109.48684692382812,21.335851669311523,65535.0
18440.299547401155,426.78790283203125,5113.083984375,459.8207702636719,1056.48779296875,17.860946655273438,92.5523681640625,59.833045959472656,114.76522064208984,32.53731155395508,65535.0
18440.299947409705,453.5200500488281,5121.0869140625,466.7707824707031,1032.098876953125,18.184171676635742,92.12281036376953,59.699222564697266,117.17558288574219,32.35553741455078,65535.0
18440.30034741826,473.5037536621094,5115.806640625,458.4524841308594,972.24658203125,29.204954147338867,106.04509735107422,70.1754150390625,125.66474151611328,21.930280685424805,65535.0
18440.300747426812,476.6198425292969,5115.67822265625,467.9700927734375,906.6201782226562,32.03938293457031,107.06510162353516,77.53564453125,129.66453552246094,16.05246353149414,65535.0
18440.301147435363,506.2958068847656,5114.03125,474.2188720703125,872.6039428710938,18.339195251464844,91.81773376464844,60.01002502441406,114.24372100830078,21.08336639404297,65535.0
18440.301547443916,550.6624145507812,5118.33251953125,460.358154296875,880.077392578125,17.4263858795166,85.84129333496094,55.536991119384766,112.80828857421875,24.854036331176758,65535.0
18440.30194745247,569.443115234375,5111.7509765625,469.4271545410156,922.9332885742188,20.595441818237305,87.73309326171875,60.298118591308594,116.16253662109375,27.097721099853516,65535.0
18440.302347461024,570.2803344726562,5116.35205078125,465.7470703125,924.4545288085938,15.977312088012695,81.09786224365234,57.54714584350586,111.91129302978516,27.13184356689453,65535.0
18440.302747469574,532.71484375,5119.759765625,476.0796203613281,907.514892578125,14.989109992980957,80.62440490722656,55.6204948425293,110.8553466796875,18.130657196044922,65535.0
18440.303147478127,506.67864990234375,5120.82958984375,462.90118408203125,896.1340942382812,10.391172409057617,72.17496490478516,50.44953918457031,105.2887954711914,25.80908966064453,65535.0
18440.30354748668,485.2375183105469,5127.9814453125,463.7976989746094,898.0125122070312,10.041401863098145,70.60924530029297,49.081974029541016,104.12985229492188,26.696863174438477,65535.0
18440.30394749523,477.309814453125,5119.87060546875,476.9419860839844,905.5630493164062,4.360095500946045,64.36737060546875,42.09196853637695,93.9973373413086,23.11285972595215,65535.0
18440.304347503785,529.9967041015625,5115.02880859375,477.5657653808594,947.57177734375,-0.5853825211524963,61.322669982910156,41.99382400512695,94.38931274414062,27.60978126525879,65535.0
18440.30474751234,547.2520751953125,5114.09765625,482.4479064941406,982.1995849609375,9.832789421081543,67.63214874267578,50.795745849609375,104.67871856689453,27.513778686523438,65535.0
18440.305147520892,542.446044921875,5111.7021484375,477.63140869140625,972.2366333007812,18.959455490112305,76.29393768310547,54.43606185913086,112.12470245361328,6.572954177856445,65535.0
18440.305547529442,523.8065185546875,5108.12890625,465.19317626953125,955.8556518554688,12.54901123046875,76.42085266113281,52.748680114746094,107.58759307861328,22.24203109741211,65535.0
18440.305947537996,490.9311218261719,5106.10302734375,462.54620361328125,957.18310546875,12.933829307556152,74.37285614013672,53.03955841064453,107.41632843017578,38.14207077026367,65535.0
18440.30634754655,469.0288391113281,5105.7490234375,460.54351806640625,968.423828125,14.036965370178223,75.78079986572266,53.037750244140625,110.34358215332031,21.651878356933594,65535.0
18440.3067475551,462.0205383300781,5109.55615234375,460.9913330078125,987.0097045898438,10.810575485229492,75.21408081054688,49.26428985595703,108.6800537109375,17.70704460144043,65535.0
18440.307147563653,460.0264587402344,5105.39404296875,472.4860534667969,1005.742919921875,18.154356002807617,81.50274658203125,57.90143585205078,112.8945083618164,29.055830001831055,65535.0
18440.307547572207,460.02374267578125,5103.04248046875,470.65069580078125,1005.5869140625,5.133843421936035,68.35453033447266,45.38074493408203,100.75849151611328,20.762868881225586,65535.0
18440.30794758076,435.686279296875,5101.876953125,468.3002624511719,1008.1671752929688,0.3928697109222412,60.767452239990234,40.31199645996094,96.09491729736328,26.877267837524414,65535.0
18440.30834758931,393.6833801269531,5114.6875,478.9928894042969,1026.329833984375,17.50679588317871,78.3772964477539,54.378395080566406,110.29064178466797,20.640762329101562,65535.0
18440.308747597865,356.0566101074219,5115.767578125,468.1926574707031,1013.0701904296875,12.221423149108887,77.1966781616211,52.65301513671875,107.43438720703125,23.161300659179688,65535.0
18440.30914760642,335.5823974609375,5111.35986328125,472.1117858886719,998.6788330078125,9.320182800292969,75.84794616699219,51.01252746582031,104.31205749511719,24.188053131103516,65535.0
18440.30954761497,320.67132568359375,5093.19970703125,472.5030822753906,1013.554931640625,10.505335807800293,77.0385971069336,51.84493637084961,105.81736755371094,29.636226654052734,65535.0
18440.309947623522,310.0365295410156,5103.0947265625,467.0678405761719,998.93310546875,12.117635726928711,81.1026382446289,57.39317321777344,109.93424987792969,27.463109970092773,65535.0
18440.310347632076,267.2265625,5109.30078125,469.0528259277344,969.6810913085938,8.270318984985352,77.26306915283203,50.2270393371582,103.60987854003906,33.15522384643555,65535.0
18440.31074764063,305.66015625,5107.048828125,474.1584167480469,962.6184692382812,1.0815173387527466,71.07616424560547,41.44035720825195,99.3798828125,25.534748077392578,65535.0
18440.31114764918,403.2110900878906,5102.0634765625,487.11767578125,977.8764038085938,8.16703987121582,80.8590316772461,47.6474723815918,105.2319564819336,25.4486141204834,65535.0
18440.311547657733,469.6018981933594,5102.8095703125,469.57037353515625,972.0869750976562,30.753643035888672,102.54791259765625,66.10317993164062,121.52722930908203,35.2574348449707,65535.0
18440.311947666287,491.6025390625,5097.35791015625,455.8189697265625,963.89501953125,26.13123893737793,104.55786895751953,66.04470825195312,123.94023895263672,33.793914794921875,65535.0
18440.312347674837,503.8564453125,5082.65380859375,460.6578369140625,934.3522338867188,28.929826736450195,108.82268524169922,70.48688507080078,125.9590835571289,30.886478424072266,65535.0
18440.31274768339,495.2829284667969,5082.30810546875,466.7568054199219,892.6139526367188,34.698673248291016,114.07298278808594,73.10517120361328,129.66900634765625,33.05986022949219,65535.0
18440.313147691944,514.3800048828125,5093.46630859375,471.9981384277344,870.7427368164062,32.20446014404297,109.69393920898438,69.10322570800781,127.03523254394531,27.74308204650879,65535.0
18440.313547700498,502.004150390625,5092.10107421875,463.29473876953125,905.8389282226562,30.083621978759766,113.55754852294922,69.46180725097656,129.02671813964844,30.72877311706543,65535.0
18440.313947709048,482.76434326171875,5104.546875,467.8191223144531,947.2373046875,25.371721267700195,109.4722671508789,66.23628234863281,121.59473419189453,23.23139762878418,65535.0
18440.3143477176,495.38134765625,5109.25830078125,467.9731750488281,925.7481689453125,27.83698844909668,109.92835235595703,67.82225036621094,123.49398040771484,25.06306266784668,65535.0
18440.314747726155,501.673828125,5104.416015625,459.80267333984375,879.0848388671875,29.234514236450195,108.61613464355469,68.4526138305664,124.249755859375,19.997241973876953,65535.0
18440.315147734706,497.2393798828125,5120.033203125,461.54302978515625,858.3167114257812,40.23958206176758,123.70873260498047,81.13731384277344,133.3440399169922,24.447246551513672,65535.0
18440.31554774326,488.6138610839844,5109.69287109375,469.4686584472656,858.0875244140625,35.092491149902344,119.18742370605469,72.87338256835938,128.55697631835938,29.360553741455078,65535.0
18440.315947751813,479.876953125,5103.06787109375,474.04412841796875,870.5203247070312,30.559436798095703,114.09847259521484,70.38973236083984,126.93798828125,22.65949058532715,65535.0
18440.316347760367,461.2120361328125,5106.50634765625,482.2691345214844,899.772705078125,28.40033531188965,112.0929183959961,67.28364562988281,122.51374816894531,19.64956283569336,65535.0
18440.316747768917,447.1112976074219,5108.66064453125,485.3509216308594,904.3071899414062,34.858341217041016,114.98575592041016,72.7050552368164,128.71051025390625,20.969715118408203,65535.0
18440.31714777747,443.64276123046875,5097.91650390625,490.3369140625,886.1825561523438,29.612464904785156,114.31584930419922,71.11474609375,128.63560485839844,28.528963088989258,65535.0
18440.317547786024,435.9403381347656,5093.6123046875,489.5966796875,863.8963012695312,21.387897491455078,102.22216796875,62.61162567138672,115.58941650390625,28.044708251953125,65535.0
18440.317947794574,440.4736633300781,5097.78466796875,489.1909484863281,858.8084106445312,29.844282150268555,104.84353637695312,66.35517120361328,121.23661804199219,33.06510543823242,65535.0
18440.318347803128,425.1072692871094,5111.97509765625,493.6666564941406,881.8782348632812,19.408931732177734,97.46524047851562,57.838462829589844,113.72808837890625,19.415565490722656,65535.0
18440.31874781168,411.2693176269531,5125.41796875,494.8586120605469,895.496337890625,12.425061225891113,87.63270568847656,52.40931701660156,107.3982925415039,19.610158920288086,65535.0
18440.319147820235,417.62353515625,5129.33251953125,482.9825134277344,898.478515625,11.020971298217773,85.39779663085938,51.767333984375,107.8331298828125,19.981353759765625,65535.0
18440.319547828785,439.0602722167969,5128.23095703125,484.4618225097656,896.1879272460938,7.293351650238037,78.85496520996094,45.938350677490234,100.69803619384766,26.67255401611328,65535.0
18440.31994783734,448.7456970214844,5117.150390625,486.4358215332031,893.993896484375,7.572346210479736,78.95404815673828,48.28753662109375,101.1364517211914,22.66122055053711,65535.0
18440.320347845893,425.437744140625,5123.93408203125,477.705078125,881.5260620117188,15.662166595458984,87.22199249267578,54.15970230102539,113.0064926147461,18.782474517822266,65535.0
18440.320747854443,375.9989013671875,5126.17626953125,476.9246826171875,844.68359375,21.10721778869629,92.94824981689453,61.37510299682617,118.17166900634766,18.285743713378906,65535.0
18440.321147862996,356.03076171875,5139.759765625,492.4468994140625,811.1646118164062,10.5364990234375,81.9461441040039,51.86087417602539,107.86155700683594,32.11489486694336,65535.0
18440.32154787155,347.4192199707031,5137.908203125,486.6353454589844,816.1654663085938,4.972415924072266,72.79167938232422,47.34451675415039,98.82682800292969,30.27855682373047,65535.0
18440.321947880104,349.37359619140625,5122.5595703125,493.41845703125,820.7445678710938,7.36973762512207,75.22744750976562,47.71152114868164,103.72644805908203,34.61125946044922,65535.0
18440.322347888654,371.04840087890625,5127.279296875,486.2389221191406,831.5054931640625,4.520674705505371,71.04042053222656,44.45450210571289,102.08567810058594,30.4169921875,65535.0
18440.322747897208,361.6632995605469,5133.908203125,489.2330017089844,855.2313232421875,5.663906574249268,71.57056427001953,46.70764923095703,103.1573486328125,23.481122970581055,65535.0
18440.32314790576,354.7156982421875,5132.384765625,500.85198974609375,891.1936645507812,9.606956481933594,67.65216827392578,47.13344955444336,102.3002700805664,26.09058952331543,65535.0
18440.32354791431,402.71124267578125,5137.6796875,504.1045227050781,921.448974609375,11.48337173461914,75.42892456054688,52.92393493652344,105.07207489013672,27.049148559570312,65535.0
18440.323947922865,443.2328186035156,5137.06640625,500.6348876953125,960.58251953125,8.80717658996582,71.47871398925781,49.89310836791992,104.54286193847656,14.491218566894531,65535.0
18440.32434793142,487.1253662109375,5130.38232421875,499.82354736328125,974.4427490234375,8.41373062133789,68.61115264892578,45.59061050415039,103.73331451416016,24.23615074157715,65535.0
18440.324747939972,508.3260192871094,5127.046875,496.1909484863281,953.6661376953125,12.855804443359375,71.56655883789062,49.22629928588867,107.11800384521484,28.15362548828125,65535.0
18440.325147948522,542.681884765625,5123.22607421875,487.4053649902344,924.816650390625,17.177888870239258,79.13228607177734,58.180702209472656,111.46434783935547,26.607606887817383,65535.0
18440.325547957076,584.6414794921875,5117.80712890625,487.586669921875,919.6395874023438,9.541411399841309,71.20252227783203,48.25991439819336,102.76573944091797,26.813613891601562,65535.0
18440.32594796563,601.3224487304688,5125.1982421875,486.57733154296875,915.0260620117188,9.310681343078613,65.25587463378906,44.76068878173828,102.85320281982422,26.937435150146484,65535.0
18440.32634797418,600.8392944335938,5138.66650390625,483.9812927246094,930.7286376953125,2.404498815536499,58.274742126464844,40.39510726928711,96.00161743164062,30.16206932067871,65535.0
18440.326747982734,605.9537353515625,5135.0732421875,464.05084228515625,940.3663330078125,1.416372537612915,63.28532409667969,43.55541229248047,96.97091674804688,33.170413970947266,65535.0
18440.327147991287,623.882568359375,5122.66162109375,471.7250061035156,949.2259521484375,6.945407390594482,70.45262145996094,47.60276794433594,103.01129150390625,15.059549331665039,65535.0
18440.32754799984,663.3925170898438,5120.330078125,473.7822265625,933.5709838867188,7.73171854019165,73.3110580444336,47.89805603027344,104.14586639404297,16.194250106811523,65535.0
18440.32794800839,669.2455444335938,5130.8720703125,469.78839111328125,899.2532958984375,7.44061803817749,72.38420104980469,48.94158172607422,106.30577850341797,28.187705993652344,65535.0
18440.328348016945,663.6996459960938,5137.95703125,471.2707214355469,859.5302124023438,11.427654266357422,77.45669555664062,55.07295608520508,107.48037719726562,37.426116943359375,65535.0
18440.3287480255,691.7219848632812,5136.59765625,472.0904541015625,878.88916015625,8.9837007522583,77.37451171875,50.976417541503906,103.86284637451172,30.48930549621582,65535.0
18440.32914803405,701.9653930664062,5132.22412109375,467.17431640625,919.6502075195312,18.080852508544922,85.19786834716797,59.06861114501953,114.13604736328125,28.980314254760742,65535.0
18440.329548042602,714.5862426757812,5138.83544921875,470.80218505859375,924.843505859375,24.5341739654541,93.08333587646484,65.51637268066406,119.58076477050781,23.566980361938477,65535.0
18440.329948051156,731.8262329101562,5150.81494140625,473.8516845703125,930.9229125976562,24.06972312927246,96.50997924804688,63.97176742553711,120.10115814208984,30.84302520751953,65535.0
18440.33034805971,729.1828002929688,5140.74951171875,463.4986572265625,946.7581787109375,26.800552368164062,100.94336700439453,67.41756439208984,122.06969451904297,31.585390090942383,65535.0
18440.33074806826,735.8433837890625,5145.73876953125,475.1239013671875,987.6441040039062,28.531171798706055,101.56564331054688,67.13219451904297,121.67304992675781,29.88553810119629,65535.0
18440.331148076813,786.969482421875,5147.966796875,484.1794128417969,990.4890747070312,24.0026798248291,99.55526733398438,64.41160583496094,118.10630798339844,30.16042137145996,65535.0
18440.331548085367,813.311279296875,5135.22607421875,467.7466125488281,924.75732421875,36.0902099609375,114.77610778808594,76.37749481201172,129.33041381835938,28.067716598510742,65535.0
18440.331948093917,808.7615356445312,5138.08740234375,455.8815612792969,885.9144897460938,40.63344955444336,121.267578125,77.33709716796875,135.19064331054688,34.495521545410156,65535.0
18440.33234810247,797.2958374023438,5133.86328125,449.8482666015625,878.1592407226562,32.56112289428711,113.31956481933594,71.2929916381836,129.32843017578125,39.26315689086914,65535.0
18440.332748111025,785.2858276367188,5130.017578125,441.6204833984375,863.342041015625,35.05472183227539,116.3705825805664,74.97111511230469,131.1372833251953,30.62320899963379,65535.0
18440.333148119575,753.30419921875,5129.46337890625,434.5582580566406,858.7230834960938,40.52476119995117,127.03936767578125,81.34364318847656,136.33055114746094,31.216829299926758,65535.0
18440.33354812813,674.3682861328125,5123.107421875,435.3130187988281,871.8501586914062,38.91147994995117,125.10362243652344,77.2793197631836,134.73716735839844,25.43737030029297,65535.0
18440.333948136682,594.6289672851562,5118.9365234375,445.2370910644531,887.9839477539062,42.999908447265625,129.5116424560547,84.26216888427734,138.7676544189453,15.520942687988281,65535.0
18440.334348145236,519.3919677734375,5120.31689453125,434.8227844238281,905.1766967773438,34.87408447265625,124.13602447509766,77.21497344970703,130.6002960205078,20.192495346069336,65535.0
18440.334748153786,444.22979736328125,5132.1396484375,430.3890075683594,905.8075561523438,35.76945114135742,127.24961853027344,78.30963897705078,135.0757598876953,17.28997230529785,65535.0
18440.33514816234,449.6365661621094,5134.76318359375,431.3341979980469,905.810302734375,29.5084228515625,116.77017211914062,69.09961700439453,126.94575500488281,21.869647979736328,65535.0
18440.335548170893,482.4110107421875,5126.7998046875,445.2392272949219,911.6087646484375,41.302955627441406,123.1934814453125,77.6985092163086,135.3163604736328,21.143346786499023,65535.0
18440.335948179443,459.1263732910156,5136.4228515625,460.1528015136719,913.4197387695312,38.83639907836914,126.78791809082031,77.13893127441406,132.3203125,28.574243545532227,65535.0
18440.336348187997,442.02459716796875,5137.595703125,469.05126953125,946.5402221679688,29.406747817993164,117.51437377929688,68.80509185791016,126.88772583007812,28.847429275512695,65535.0
18440.33674819655,435.7498474121094,5125.7880859375,473.6205749511719,1012.0811157226562,37.475006103515625,118.03943634033203,75.88468170166016,131.0626678466797,31.479448318481445,65535.0
18440.337148205104,403.18994140625,5129.53173828125,489.629150390625,1074.596923828125,36.858497619628906,118.39871978759766,74.36318969726562,130.27525329589844,31.640348434448242,65535.0
18440.337548213654,367.3885803222656,5143.56103515625,492.9302062988281,1144.021484375,43.1046028137207,125.62454986572266,79.90422821044922,137.5377960205078,25.84760093688965,65535.0
18440.337948222208,368.3692321777344,5151.77392578125,473.1382141113281,1163.689697265625,30.297536849975586,113.42466735839844,70.2828140258789,124.82962799072266,32.46916961669922,65535.0
18440.33834823076,388.4442138671875,5153.19384765625,462.4257507324219,1167.602783203125,28.762910842895508,109.86582946777344,68.91381072998047,125.28693389892578,32.30978012084961,65535.0
18440.338748239312,422.1899719238281,5152.263671875,466.5113220214844,1139.6488037109375,29.66825294494629,111.36299133300781,70.33010864257812,126.43415832519531,36.11406707763672,65535.0
18440.339148247866,420.1368408203125,5154.69091796875,468.0484619140625,1078.680908203125,18.439165115356445,95.5645751953125,56.99427795410156,113.00253295898438,22.60567283630371,65535.0
18440.33954825642,414.6260681152344,5150.4853515625,480.3714599609375,998.6021118164062,18.455297470092773,95.92345428466797,57.910030364990234,116.44933319091797,23.963619232177734,65535.0
18440.339948264973,390.363037109375,5142.3798828125,484.37457275390625,969.4033203125,15.938209533691406,89.95525360107422,55.934181213378906,110.85810852050781,22.65134048461914,65535.0
18440.340348273523,341.7241516113281,5133.91845703125,476.373779296875,948.958740234375,19.697586059570312,91.87454986572266,56.701866149902344,113.63333892822266,31.145811080932617,65535.0
18440.340748282077,347.042236328125,5136.54345703125,459.96441650390625,923.390380859375,28.591224670410156,101.72577667236328,67.96142578125,122.00016021728516,31.542367935180664,65535.0
18440.34114829063,378.0638427734375,5144.48779296875,457.98272705078125,932.850830078125,12.886185646057129,87.06381225585938,54.27009582519531,108.60113525390625,29.63556671142578,65535.0
18440.34154829918,392.01239013671875,5140.826171875,452.7964782714844,950.5770874023438,13.334464073181152,82.02984619140625,50.216678619384766,107.813720703125,24.477720260620117,65535.0
18440.341948307734,392.90478515625,5146.15771484375,453.9582824707031,976.8539428710938,16.516925811767578,87.99142456054688,53.721065521240234,113.37731170654297,28.769893646240234,65535.0
18440.342348316288,411.425048828125,5155.1259765625,453.37457275390625,1007.8526000976562,17.72662925720215,84.9120101928711,59.8919677734375,115.15833282470703,35.414615631103516,65535.0
18440.34274832484,420.8808898925781,5153.9248046875,444.8782958984375,1030.6666259765625,24.99520492553711,94.04764556884766,65.86018371582031,123.52515411376953,27.039623260498047,65535.0
18440.34314833339,421.8070373535156,5152.267578125,449.00213623046875,1052.265869140625,18.188920974731445,84.93132019042969,56.106834411621094,113.27527618408203,4.172521114349365,65535.0
18440.343548341945,441.0569152832031,5157.8544921875,454.8316650390625,1049.8033447265625,15.009317398071289,79.16474151611328,50.88719177246094,108.63356018066406,14.376752853393555,65535.0
18440.3439483505,448.3732604980469,5157.82275390625,456.3413391113281,1037.6334228515625,15.010451316833496,80.1198501586914,54.913455963134766,112.0623550415039,34.36266326904297,65535.0
18440.34434835905,451.7153015136719,5165.30810546875,455.7603454589844,1024.1224365234375,18.4564266204834,82.69664764404297,56.024600982666016,111.29991149902344,21.68491554260254,65535.0
18440.344748367603,465.02874755859375,5167.3544921875,450.47442626953125,1009.2450561523438,15.099761962890625,78.36550903320312,53.66753387451172,108.3370590209961,19.507410049438477,65535.0
18440.345148376156,466.0882568359375,5161.82958984375,453.32049560546875,1017.1485595703125,16.374902725219727,80.40770721435547,55.85650634765625,112.46762084960938,16.900972366333008,65535.0
18440.34554838471,465.3074035644531,5155.03076171875,446.1127014160156,1020.5261840820312,12.656700134277344,77.74015808105469,52.76919937133789,109.79644775390625,20.910903930664062,65535.0
18440.34594839326,461.6012268066406,5149.763671875,444.3807678222656,1020.9837036132812,11.096687316894531,75.06890869140625,47.343231201171875,104.3455581665039,12.6696138381958,65535.0
18440.346348401814,515.8496704101562,5155.2177734375,439.5718688964844,1011.4867553710938,13.152605056762695,78.10953521728516,51.90153884887695,109.10041046142578,27.937450408935547,65535.0
18440.346748410368,586.1783447265625,5163.5673828125,440.3053283691406,1010.2061767578125,19.393077850341797,86.17424774169922,58.65525436401367,116.89237213134766,24.247888565063477,65535.0
18440.347148418918,654.5089721679688,5164.068359375,438.96270751953125,996.9017333984375,16.445240020751953,83.87574005126953,53.69132614135742,109.60338592529297,14.223602294921875,65535.0
18440.34754842747,691.08154296875,5173.064453125,439.42657470703125,1007.5618896484375,25.293514251708984,94.26661682128906,64.0577392578125,120.0695571899414,26.696367263793945,65535.0
18440.347948436025,675.9503173828125,5168.53564453125,438.2821350097656,1025.954345703125,18.828876495361328,88.42315673828125,57.81857681274414,112.99797058105469,14.247209548950195,65535.0
18440.34834844458,690.5723876953125,5160.728515625,449.5776062011719,1041.3260498046875,24.3831844329834,94.57669067382812,61.942176818847656,118.46350860595703,3.2736728191375732,65535.0
18440.34874845313,689.5946655273438,5155.3896484375,464.8423767089844,1031.1385498046875,27.581960678100586,100.26509094238281,66.60192108154297,123.27945709228516,16.138486862182617,65535.0
18440.349148461682,681.1522216796875,5170.73291015625,467.32342529296875,1002.6043090820312,21.640676498413086,93.5270004272461,60.45611572265625,116.55941009521484,12.802971839904785,65535.0
18440.349548470236,655.8780517578125,5156.3564453125,465.3161926269531,968.0988159179688,29.382028579711914,100.1878890991211,67.07176208496094,124.22730255126953,26.35837745666504,65535.0
18440.349948478786,625.7625732421875,5137.92431640625,457.13385009765625,942.4808349609375,20.52468490600586,92.25127410888672,58.26249313354492,114.38519287109375,23.567014694213867,65535.0
18440.35034848734,611.4091796875,5142.5439453125,448.8488464355469,924.6893310546875,13.314937591552734,86.13500213623047,52.540653228759766,106.72004699707031,44.29228591918945,65535.0
18440.350748495894,649.5408325195312,5136.8544921875,443.94073486328125,903.2893676757812,19.014204025268555,90.13404083251953,57.946311950683594,113.99364471435547,24.764936447143555,65535.0
18440.351148504447,663.1947631835938,5140.11572265625,457.73382568359375,904.3804321289062,32.22835922241211,108.81820678710938,71.161865234375,127.80717468261719,25.546131134033203,65535.0
18440.351548512997,629.6513061523438,5138.77685546875,464.0779113769531,908.5562133789062,26.102081298828125,105.25914764404297,64.58260345458984,119.94903564453125,27.520952224731445,65535.0
18440.35194852155,621.4495239257812,5152.2265625,466.2662353515625,922.8732299804688,27.018268585205078,108.64994049072266,66.95104217529297,122.49217224121094,26.592700958251953,65535.0
18440.352348530105,623.3598022460938,5151.390625,478.3386535644531,918.3994140625,24.040904998779297,106.24042510986328,63.60544967651367,121.74299621582031,32.21951675415039,65535.0
18440.352748538655,615.895751953125,5144.48291015625,469.5085144042969,922.65771484375,27.544036865234375,109.5989990234375,67.17546844482422,125.19723510742188,23.70151710510254,65535.0
18440.35314854721,577.918212890625,5153.2880859375,444.890380859375,929.6332397460938,38.54308319091797,123.01132202148438,77.77019500732422,132.54592895507812,11.468377113342285,65535.0
18440.353548555762,527.2813110351562,5164.81884765625,438.5206604003906,924.3802490234375,28.8804988861084,114.65095520019531,68.67918395996094,122.87002563476562,31.074596405029297,65535.0
18440.353948564316,490.2244873046875,5174.72705078125,437.3571472167969,933.6591796875,32.52449417114258,117.0654067993164,72.09485626220703,126.26190185546875,32.87345504760742,65535.0
18440.354348572866,483.8347473144531,5187.26416015625,448.6644592285156,954.9310302734375,32.82716369628906,116.42304992675781,70.45844268798828,127.76367950439453,22.062776565551758,65535.0
18440.35474858142,464.6869201660156,5185.177734375,450.9983215332031,963.8095703125,31.658817291259766,117.29082489013672,70.78717803955078,127.062744140625,27.407258987426758,65535.0
18440.355148589973,487.50860595703125,5189.720703125,454.9749755859375,950.5889282226562,28.247407913208008,112.00541687011719,66.50323486328125,123.3736343383789,28.201963424682617,65535.0
18440.355548598523,525.1060791015625,5194.2392578125,460.73321533203125,937.8252563476562,34.81863784790039,121.87470245361328,75.9189224243164,131.0001678466797,25.497873306274414,65535.0
18440.355948607077,520.8404541015625,5190.6376953125,449.2649841308594,946.39892578125,27.75642967224121,114.15963745117188,67.90348052978516,122.90587615966797,18.773805618286133,65535.0
18440.35634861563,514.4796142578125,5203.35595703125,458.8442077636719,945.6488037109375,26.40323257446289,114.25843048095703,67.79600524902344,124.3455581665039,26.264041900634766,65535.0
18440.356748624185,515.6930541992188,5199.0205078125,446.79949951171875,939.5521240234375,29.12251091003418,112.00935363769531,71.21733856201172,125.15560913085938,21.387451171875,65535.0
18440.357148632735,531.982666015625,5199.8544921875,436.7065124511719,942.2779541015625,23.587881088256836,104.33482360839844,63.49661636352539,119.07090759277344,22.890594482421875,65535.0
18440.35754864129,564.4614868164062,5202.4150390625,457.1248474121094,939.02587890625,25.407764434814453,105.74282836914062,65.48338317871094,120.59390258789062,28.574176788330078,65535.0
18440.357948649842,594.5086059570312,5202.59716796875,461.8627014160156,948.1978759765625,39.210548400878906,121.03439331054688,79.2634048461914,131.90850830078125,23.72612953186035,65535.0
18440.358348658392,580.5911254882812,5193.5380859375,458.5147399902344,971.5338134765625,32.93804168701172,117.49439239501953,76.49899291992188,132.02699279785156,21.679067611694336,65535.0
18440.358748666946,559.0308837890625,5199.728515625,454.90118408203125,995.1393432617188,24.783676147460938,102.98431396484375,68.86132049560547,123.30464935302734,15.57349967956543,65535.0
18440.3591486755,548.6503295898438,5205.0859375,454.2182312011719,1003.1116943359375,29.59121322631836,109.13521575927734,74.10136413574219,128.42044067382812,24.106229782104492,65535.0
18440.359548684053,562.8601684570312,5205.36962890625,465.0679016113281,1006.2864990234375,20.449748992919922,102.68052673339844,62.49769973754883,117.7525634765625,23.196659088134766,65535.0
18440.359948692603,572.7532348632812,5209.54248046875,470.40423583984375,1012.536865234375,21.165178298950195,97.29420471191406,60.58443069458008,118.31427001953125,21.915430068969727,65535.0
18440.360348701157,573.2733154296875,5204.50439453125,457.6016845703125,996.6961669921875,7.946700572967529,82.21907043457031,49.44825744628906,105.1291275024414,13.821954727172852,65535.0
18440.36074870971,584.19580078125,5200.318359375,473.65789794921875,964.0728759765625,12.782585144042969,82.55796813964844,52.98802185058594,108.53839111328125,12.116174697875977,65535.0
18440.36114871826,619.598876953125,5206.35205078125,483.3291931152344,951.1009521484375,13.448205947875977,86.15310668945312,53.61188888549805,107.68241119384766,25.455543518066406,65535.0
18440.361548726814,620.064697265625,5189.724609375,476.9111022949219,934.4282836914062,10.020875930786133,76.85945129394531,47.696964263916016,103.19340515136719,29.982833862304688,65535.0
18440.361948735368,624.1658325195312,5200.3125,472.2231140136719,941.6609497070312,12.01935863494873,79.45315551757812,50.48788833618164,106.50923156738281,23.252017974853516,65535.0
18440.36234874392,641.2362670898438,5200.03955078125,468.1846618652344,963.7819213867188,10.244717597961426,77.99695587158203,50.648155212402344,106.78628540039062,20.64461326599121,65535.0
18440.36274875247,681.2254028320312,5189.3935546875,467.4361267089844,989.5386962890625,16.2237548828125,79.98194885253906,52.232704162597656,110.50145721435547,37.10210418701172,65535.0
18440.363148761026,699.70361328125,5169.42626953125,471.87542724609375,1003.573974609375,7.682196140289307,77.44709777832031,49.11257553100586,105.88806915283203,21.913280487060547,65535.0
18440.36354876958,628.6123657226562,5145.85693359375,470.5133056640625,1000.7962036132812,8.864297866821289,73.30599975585938,49.296199798583984,104.58346557617188,12.111834526062012,65535.0
18440.36394877813,555.9224243164062,5122.28271484375,488.6177673339844,978.596435546875,14.947915077209473,76.5737533569336,53.928192138671875,107.35375213623047,24.701763153076172,65535.0
18440.364348786683,537.2333984375,5107.00244140625,504.6009826660156,934.0579833984375,13.961761474609375,72.95417785644531,52.69561004638672,108.67948150634766,21.002485275268555,65535.0
18440.364748795237,570.6625366210938,5119.3212890625,492.86968994140625,895.0675659179688,6.62180233001709,68.523193359375,47.55501937866211,102.01884460449219,9.246479988098145,65535.0
18440.36514880379,591.2965698242188,5116.056640625,479.0190734863281,884.2188110351562,11.261154174804688,68.65711212158203,44.91035842895508,105.44949340820312,19.6104736328125,65535.0
18440.36554881234,595.0205078125,5124.8935546875,466.5116882324219,879.272216796875,12.870057106018066,76.10360717773438,54.936119079589844,111.27604675292969,25.710693359375,65535.0
18440.365948820894,595.6879272460938,5135.44384765625,457.20318603515625,880.128662109375,1.6046602725982666,66.58756256103516,44.00385665893555,97.13627624511719,16.633804321289062,65535.0
18440.366348829448,607.6985473632812,5130.92919921875,459.6858825683594,876.7272338867188,5.275649070739746,65.5835189819336,45.393470764160156,98.66316986083984,15.147774696350098,65535.0
18440.366748837998,604.5005493164062,5136.75927734375,446.3924560546875,882.08154296875,-3.3675737380981445,58.60093688964844,38.91254806518555,89.14019012451172,21.273340225219727,65535.0
18440.36714884655,575.9854736328125,5153.65673828125,449.645263671875,908.5794067382812,1.9603347778320312,65.69424438476562,41.39634704589844,97.09324645996094,18.805660247802734,65535.0
18440.367548855105,550.250244140625,5162.46826171875,457.6109619140625,913.7295532226562,9.683992385864258,73.01914978027344,49.15658187866211,102.35297393798828,18.90311622619629,65535.0
18440.36794886366,495.36590576171875,5172.029296875,438.57208251953125,908.91015625,15.1185302734375,77.04452514648438,51.62996292114258,107.2244644165039,20.981979370117188,65535.0
18440.36834887221,475.0124206542969,5192.16796875,437.9371337890625,898.3649291992188,10.029658317565918,75.888427734375,49.00914764404297,107.47512817382812,23.882959365844727,65535.0
18440.368748880763,532.1890869140625,5205.00341796875,431.1359558105469,888.1718139648438,10.934941291809082,79.52587890625,49.719757080078125,108.0924301147461,24.35331916809082,65535.0
18440.369148889316,567.400146484375,5210.58203125,445.7008361816406,883.7750244140625,10.780373573303223,78.82781219482422,50.063812255859375,107.53072357177734,25.77727508544922,65535.0
18440.369548897866,587.6807861328125,5224.3955078125,478.49932861328125,878.0374145507812,10.361920356750488,77.25060272216797,51.42673873901367,102.91436004638672,27.09560775756836,65535.0
18440.36994890642,590.3866577148438,5229.69580078125,476.7047119140625,895.5474243164062,13.298233032226562,82.28781127929688,54.34758377075195,108.44583129882812,17.890214920043945,65535.0
18440.370348914974,580.3334350585938,5245.1552734375,471.52978515625,907.6798706054688,9.437145233154297,79.80805969238281,49.1005859375,105.70697784423828,9.143001556396484,65535.0
18440.370748923528,594.691162109375,5260.78271484375,469.0780029296875,878.483642578125,12.285051345825195,81.60834503173828,48.76341247558594,105.34278869628906,17.829946517944336,65535.0
18440.371148932078,615.5859375,5267.66357421875,473.9661865234375,826.21044921875,17.85279655456543,89.04713439941406,56.24114990234375,113.49820709228516,27.13697052001953,65535.0
18440.37154894063,633.4559326171875,5265.56103515625,471.5215148925781,775.2434692382812,18.88528823852539,95.20818328857422,59.363094329833984,113.493408203125,10.031644821166992,65535.0
18440.371948949185,623.609619140625,5264.39013671875,467.4529113769531,776.9644165039062,14.47506332397461,92.99766540527344,54.659095764160156,112.57542419433594,4.511614799499512,65535.0
18440.372348957735,618.1636962890625,5261.5830078125,462.4027099609375,792.0770263671875,17.15685272216797,95.85021209716797,56.470794677734375,114.38825225830078,31.728260040283203,65535.0
18440.37274896629,640.051513671875,5248.78271484375,464.0945739746094,823.08203125,17.23166847229004,92.82937622070312,57.10127639770508,112.33090209960938,21.752086639404297,65535.0
18440.373148974842,660.6141357421875,5233.71435546875,464.50146484375,865.5361938476562,19.371614456176758,99.47967529296875,56.71056365966797,116.13225555419922,20.84083366394043,65535.0
18440.373548983396,630.7581176757812,5238.01318359375,462.1985168457031,905.20166015625,19.333005905151367,100.87455749511719,59.33663558959961,115.4076919555664,24.930482864379883,65535.0
18440.373948991946,602.6585083007812,5233.93505859375,469.5651550292969,908.6123046875,26.355243682861328,110.95537567138672,67.33153533935547,119.48892974853516,32.74653244018555,65535.0
18440.3743490005,605.0694580078125,5228.1552734375,454.7873840332031,923.9473876953125,30.625341415405273,117.73233795166016,73.49752044677734,124.0124740600586,29.505151748657227,65535.0
18440.374749009054,596.32275390625,5238.18505859375,458.0865478515625,936.4981079101562,21.11202049255371,101.46183013916016,59.79286575317383,115.7427749633789,18.549991607666016,65535.0
18440.375149017604,591.245361328125,5238.6259765625,467.9989013671875,959.1994018554688,21.237699508666992,102.8077392578125,60.332950592041016,115.75031280517578,19.89191246032715,65535.0
18440.375549026157,608.5927124023438,5250.12255859375,470.2960205078125,970.1241455078125,20.786592483520508,105.23773193359375,61.305667877197266,116.65605163574219,25.935861587524414,65535.0
18440.37594903471,632.8063354492188,5251.52587890625,469.2120361328125,991.4022827148438,20.79812240600586,103.9532470703125,61.30083465576172,115.84620666503906,21.063024520874023,65535.0
18440.376349043265,624.5126342773438,5251.0517578125,466.32763671875,988.6582641601562,31.58384132385254,115.15744018554688,69.46305847167969,127.2877426147461,28.497331619262695,65535.0
18440.376749051815,614.8804321289062,5271.90576171875,482.3843688964844,974.1627197265625,23.683326721191406,106.77369689941406,64.48448181152344,120.59418487548828,25.679868698120117,65535.0
18440.37714906037,653.8450927734375,5277.4140625,475.3005676269531,994.1187744140625,27.933168411254883,109.00303649902344,67.77013397216797,122.3300552368164,18.925094604492188,65535.0
18440.377549068922,690.4634399414062,5279.49365234375,466.0423583984375,1022.333984375,18.225854873657227,101.8840560913086,59.08991241455078,113.10298919677734,5.364006519317627,65535.0
18440.377949077472,704.0657348632812,5278.5576171875,463.5072937011719,1032.6944580078125,24.216482162475586,105.92220306396484,63.574790954589844,119.20269775390625,12.861966133117676,65535.0
18440.378349086026,704.1779174804688,5269.52685546875,469.1614990234375,1023.0841064453125,24.132497787475586,107.8605728149414,65.51628112792969,120.1241226196289,12.988927841186523,65535.0
18440.37874909458,715.9688110351562,5269.76123046875,485.4867248535156,1021.4622802734375,21.255088806152344,101.10224151611328,61.75339126586914,117.79228210449219,8.878576278686523,65535.0
18440.379149103133,709.5343017578125,5270.15087890625,481.9089660644531,1013.99462890625,27.359697341918945,107.42049407958984,66.41419219970703,123.81318664550781,24.154451370239258,65535.0
18440.379549111683,712.0574340820312,5275.796875,471.6287841796875,974.5038452148438,27.470130920410156,106.74527740478516,63.61594772338867,121.94310760498047,15.063368797302246,65535.0
18440.379949120237,714.0064697265625,5281.15185546875,466.3780517578125,908.4176025390625,25.326860427856445,102.37694549560547,65.81358337402344,119.10862731933594,19.318986892700195,65535.0
18440.38034912879,731.2711791992188,5272.7900390625,482.3879089355469,852.4404296875,26.981666564941406,103.62522888183594,68.17252349853516,123.25891876220703,34.819122314453125,65535.0
18440.38074913734,728.2716674804688,5265.69287109375,489.49700927734375,838.1928100585938,24.248546600341797,101.30433654785156,62.548851013183594,120.87047576904297,19.873336791992188,65535.0
18440.381149145895,700.2018432617188,5262.26904296875,489.419677734375,850.9840087890625,16.07973289489746,92.64886474609375,59.47695541381836,112.48860931396484,16.255573272705078,65535.0
18440.38154915445,656.2550659179688,5281.77978515625,479.7200927734375,862.6141967773438,15.074925422668457,87.25373840332031,54.130645751953125,108.98796081542969,34.28398132324219,65535.0
18440.381949163002,634.9415893554688,5284.673828125,472.4429016113281,881.5242309570312,12.615195274353027,84.42283630371094,52.41768264770508,109.14552307128906,19.575929641723633,65535.0
18440.382349171552,648.6649780273438,5280.65771484375,490.77935791015625,893.8837280273438,17.41472816467285,88.786376953125,57.95734786987305,117.11859893798828,31.833505630493164,65535.0
18440.382749180106,657.4813232421875,5278.3916015625,497.8439025878906,892.6119384765625,20.04003143310547,89.97447967529297,59.2890739440918,113.38760375976562,7.017901420593262,65535.0
18440.38314918866,655.9551391601562,5281.640625,491.62066650390625,900.1552734375,27.084484100341797,97.56698608398438,64.21796417236328,121.86158752441406,7.639070987701416,65535.0
18440.38354919721,659.8203125,5286.96875,488.3891906738281,919.0591430664062,18.178823471069336,88.66337585449219,57.441009521484375,117.25192260742188,16.441638946533203,65535.0
18440.383949205763,648.2679443359375,5293.3203125,492.57476806640625,945.57177734375,15.073603630065918,80.04138946533203,52.04634094238281,111.08829498291016,13.32127571105957,65535.0
18440.384349214317,637.96337890625,5289.84716796875,492.57611083984375,963.7628784179688,20.331275939941406,86.68035125732422,60.82754898071289,114.66698455810547,5.663073539733887,65535.0
18440.38474922287,633.4874877929688,5275.34814453125,498.54949951171875,949.8403930664062,18.392118453979492,85.31048583984375,55.272769927978516,111.32306671142578,12.058794021606445,65535.0
18440.38514923142,639.9981079101562,5282.34814453125,494.8036804199219,931.2504272460938,18.98810577392578,85.3882064819336,57.33982467651367,115.39717102050781,12.97848129272461,65535.0
18440.385549239974,650.7841796875,5286.197265625,490.1471252441406,887.1460571289062,22.5065975189209,89.92784118652344,64.49189758300781,119.3542251586914,13.089543342590332,65535.0
18440.385949248528,652.1320190429688,5286.57861328125,490.11907958984375,858.4772338867188,22.413745880126953,90.71977233886719,63.648502349853516,115.388916015625,14.45273208618164,65535.0
18440.386349257078,641.0621337890625,5279.302734375,493.24359130859375,856.8176879882812,13.913833618164062,78.10387420654297,51.039215087890625,108.71759033203125,10.952895164489746,65535.0
18440.38674926563,644.006591796875,5276.7744140625,479.27447509765625,864.1343994140625,14.681867599487305,81.90681457519531,54.311622619628906,110.49990844726562,26.416006088256836,65535.0
18440.387149274186,640.38232421875,5287.236328125,475.24420166015625,867.67578125,21.257572174072266,87.60155487060547,57.41069030761719,112.93818664550781,16.633697509765625,65535.0
18440.38754928274,623.3043212890625,5295.4169921875,491.45458984375,883.9024047851562,25.37279510498047,92.10099792480469,61.785911560058594,117.00443267822266,11.8643159866333,65535.0
18440.38794929129,606.8599853515625,5297.26416015625,483.4241027832031,893.2477416992188,15.147294044494629,88.25153350830078,56.791587829589844,110.72195434570312,8.742919921875,65535.0
18440.388349299843,590.2437744140625,5298.173828125,486.2121276855469,912.9588623046875,17.339792251586914,89.27423858642578,57.738346099853516,115.25005340576172,21.895586013793945,65535.0
18440.388749308397,571.8190307617188,5290.7177734375,505.0394592285156,927.8516235351562,15.466066360473633,87.75691986083984,57.233642578125,112.62174987792969,20.66876220703125,65535.0
18440.389149316947,550.9337158203125,5290.27685546875,493.84100341796875,928.1935424804688,15.859403610229492,88.36474609375,57.02043533325195,110.81813049316406,3.8674705028533936,65535.0
18440.3895493255,542.5433959960938,5285.44873046875,496.67242431640625,923.0088500976562,27.92937469482422,102.77388763427734,68.50115203857422,123.33998107910156,21.56599235534668,65535.0
18440.389949334054,576.2298583984375,5288.087890625,489.8919372558594,917.3489379882812,28.4338321685791,104.7360610961914,67.8134994506836,124.30823516845703,18.162107467651367,65535.0
18440.390349342608,633.0806884765625,5298.0693359375,491.68414306640625,904.1696166992188,15.031780242919922,91.190673828125,56.32721710205078,112.29521179199219,5.890247821807861,65535.0
18440.390749351158,671.0904541015625,5294.7724609375,504.6988830566406,887.6883544921875,23.197416305541992,98.08910369873047,62.28248977661133,119.09986114501953,19.09284782409668,65535.0
18440.39114935971,651.8500366210938,5281.314453125,492.23175048828125,865.1611938476562,22.421979904174805,102.99827575683594,63.16630935668945,119.19239807128906,18.8477840423584,65535.0
18440.391549368265,606.8917846679688,5283.83935546875,482.8332214355469,883.6209106445312,23.656518936157227,104.57868957519531,63.79412841796875,120.66051483154297,3.665666103363037,65535.0
18440.391949376815,577.29638671875,5285.1826171875,460.0111999511719,906.7113037109375,32.50505828857422,113.77870178222656,71.11540985107422,128.01541137695312,21.199745178222656,65535.0
18440.39234938537,598.7089233398438,5289.5576171875,448.0090637207031,912.6563110351562,28.550495147705078,112.60931396484375,67.17897033691406,124.7275390625,33.287841796875,65535.0
18440.392749393923,645.6612548828125,5296.013671875,450.61029052734375,912.5872192382812,24.178810119628906,106.83125305175781,63.446144104003906,119.38005065917969,3.3018722534179688,65535.0
18440.393149402476,651.9459228515625,5286.8828125,445.43780517578125,890.988525390625,34.89614486694336,118.49632263183594,74.32168579101562,131.81109619140625,7.1117634773254395,65535.0
18440.393549411026,663.5086669921875,5293.7998046875,457.69049072265625,858.4989013671875,49.89173126220703,137.1417694091797,86.45711517333984,143.95616149902344,15.219714164733887,65535.0
18440.39394941958,692.4867553710938,5293.7060546875,460.5926513671875,830.9107666015625,37.02880859375,130.13514709472656,76.6820297241211,135.02174377441406,6.705092430114746,65535.0
18440.394349428134,708.0059814453125,5295.26025390625,463.64044189453125,824.01416015625,29.19877052307129,113.52422332763672,67.9308090209961,128.00271606445312,3.786051034927368,65535.0
18440.394749436684,692.796142578125,5303.140625,470.955810546875,829.593994140625,36.735748291015625,122.94821166992188,77.51341247558594,134.13296508789062,20.182544708251953,65535.0
18440.395149445238,663.8997802734375,5298.72509765625,475.9606628417969,855.7890014648438,32.40156936645508,120.37493896484375,73.6727066040039,129.6560821533203,18.419687271118164,65535.0
18440.39554945379,667.7833251953125,5303.7568359375,466.27685546875,873.8005981445312,32.623043060302734,120.1963119506836,72.52212524414062,129.8319091796875,11.852745056152344,65535.0
18440.395949462345,676.943115234375,5312.15087890625,463.89251708984375,861.3009033203125,35.99940490722656,128.08273315429688,78.06616973876953,134.91403198242188,12.274002075195312,65535.0
18440.396349470895,697.2158813476562,5323.25830078125,473.9886779785156,853.74951171875,25.286413192749023,109.38211059570312,64.34867095947266,123.3745346069336,16.613542556762695,65535.0
18440.39674947945,718.457275390625,5318.033203125,478.8330993652344,837.3999633789062,27.12055015563965,109.04354095458984,65.62953186035156,120.20672607421875,21.550928115844727,65535.0
18440.397149488002,728.9287109375,5327.970703125,475.19830322265625,813.9698486328125,31.417448043823242,113.59706115722656,72.5330581665039,128.54945373535156,13.88831615447998,65535.0
18440.397549496553,741.0891723632812,5335.9912109375,472.60137939453125,802.9906616210938,27.615177154541016,107.39301300048828,64.18151092529297,123.88153839111328,23.108280181884766,65535.0
18440.397949505106,716.8977661132812,5331.31884765625,489.3929748535156,806.2022094726562,19.551204681396484,97.5776138305664,58.84600830078125,116.1355209350586,11.729974746704102,65535.0
18440.39834951366,689.2756958007812,5334.51513671875,480.0695495605469,827.394775390625,21.08429718017578,98.2647705078125,62.565853118896484,116.26725769042969,21.18765640258789,65535.0
18440.398749522214,700.5822143554688,5323.486328125,490.15570068359375,839.7852172851562,17.384119033813477,96.81197357177734,58.78618621826172,113.97419738769531,18.380714416503906,65535.0
18440.399149530764,751.1393432617188,5322.80419921875,491.405517578125,858.7280883789062,23.305419921875,102.44127655029297,65.9642562866211,118.49119567871094,10.410994529724121,65535.0
18440.399549539317,817.0923461914062,5326.92041015625,478.060546875,884.0183715820312,25.875625610351562,101.82856750488281,64.81607818603516,120.01664733886719,18.407865524291992,65535.0
18440.39994954787,905.250732421875,5325.8720703125,478.6419372558594,890.1990356445312,31.96195411682129,111.36243438720703,71.74642944335938,127.43385314941406,21.206562042236328,65535.0
18440.40034955642,941.7496337890625,5328.2265625,481.4025573730469,888.1795043945312,34.20854949951172,114.07853698730469,74.49107360839844,133.7347412109375,19.019899368286133,65535.0
18440.400749564975,926.1439819335938,5311.93505859375,479.4062194824219,879.8057861328125,23.51055908203125,103.02498626708984,65.07797241210938,123.1787338256836,22.626224517822266,65535.0
18440.40114957353,948.4346313476562,5323.05224609375,487.28131103515625,886.5341796875,25.799562454223633,101.86557006835938,63.83538055419922,121.43828582763672,18.779739379882812,65535.0
18440.401549582082,980.6900024414062,5328.5302734375,473.63702392578125,917.9514770507812,19.94341468811035,94.62611389160156,61.587501525878906,118.15506744384766,16.866695404052734,65535.0
18440.401949590632,977.2476196289062,5324.93017578125,469.7047424316406,931.9359741210938,26.234710693359375,93.82991027832031,66.93986511230469,122.02277374267578,18.958812713623047,65535.0
18440.402349599186,963.8006591796875,5318.44091796875,473.84649658203125,946.10205078125,26.533283233642578,96.02186584472656,66.66116333007812,123.16596221923828,23.862478256225586,65535.0
18440.40274960774,950.425537109375,5310.580078125,474.5979309082031,949.1317749023438,19.026020050048828,88.59492492675781,58.66803741455078,115.77558898925781,22.43022918701172,65535.0
18440.40314961629,942.4349975585938,5316.98828125,476.10614013671875,920.5010986328125,21.777856826782227,91.16931915283203,62.38304138183594,117.84068298339844,38.137367248535156,65535.0
18440.403549624843,939.8938598632812,5327.46142578125,481.28570556640625,910.28369140625,22.528322219848633,92.47549438476562,63.88679122924805,120.2542724609375,39.223995208740234,65535.0
18440.403949633397,883.8148803710938,5317.8466796875,468.89166259765625,905.9450073242188,12.359108924865723,80.53753662109375,52.939125061035156,110.3171157836914,21.954877853393555,65535.0
18440.40434964195,863.4378662109375,5312.0888671875,465.2677917480469,902.2445678710938,14.18751049041748,81.67530059814453,54.06477737426758,109.84354400634766,12.718850135803223,65535.0
18440.4047496505,886.5660400390625,5318.39697265625,459.47247314453125,885.3602294921875,22.623401641845703,86.97186279296875,61.87622833251953,117.90900421142578,16.999109268188477,65535.0
18440.405149659055,876.8900756835938,5320.04638671875,464.1453552246094,867.2305297851562,17.167062759399414,78.64627838134766,55.517974853515625,113.01445007324219,6.260177135467529,65535.0
18440.40554966761,838.6283569335938,5317.97802734375,481.64013671875,876.563232421875,21.33829689025879,84.2066421508789,58.5236930847168,114.5926284790039,16.48917579650879,65535.0
18440.40594967616,815.0626220703125,5315.92041015625,469.5847473144531,893.4214477539062,21.609615325927734,87.4202651977539,61.56032180786133,117.2752456665039,21.816329956054688,65535.0
18440.406349684712,767.254638671875,5312.58203125,472.431640625,896.3236083984375,21.45735740661621,85.77899169921875,59.774322509765625,113.28395080566406,14.892884254455566,65535.0
18440.406749693266,721.2635498046875,5302.080078125,462.52557373046875,900.1917724609375,15.52662181854248,77.3644790649414,53.399757385253906,108.93110656738281,12.483407974243164,65535.0
18440.40714970182,679.8306274414062,5310.18115234375,465.04974365234375,901.8927001953125,20.117679595947266,82.99867248535156,58.4590950012207,116.78358459472656,17.539289474487305,65535.0
18440.40754971037,663.8525390625,5315.17578125,463.9597473144531,900.6875610351562,17.097537994384766,82.92494201660156,56.45650863647461,112.28893280029297,29.084331512451172,65535.0
18440.407949718923,655.0777587890625,5305.353515625,458.3118896484375,888.8519287109375,20.678003311157227,88.9216079711914,60.43586349487305,116.05322265625,17.884557723999023,65535.0
18440.408349727477,662.6342163085938,5311.19189453125,451.03839111328125,888.9129028320312,18.1830997467041,87.94377136230469,59.063289642333984,113.74444580078125,24.734485626220703,65535.0
18440.408749736027,681.791748046875,5294.0048828125,450.3282470703125,905.9310913085938,20.423614501953125,90.24696350097656,57.722808837890625,115.89532470703125,27.114887237548828,65535.0
18440.40914974458,678.3318481445312,5294.87890625,453.56072998046875,893.2496337890625,25.18856430053711,97.05738067626953,66.0606918334961,120.82903289794922,26.81418800354004,65535.0
18440.409549753134,683.4400634765625,5308.08447265625,464.8439025878906,884.8607788085938,25.810699462890625,97.80492401123047,66.4211196899414,118.35691833496094,10.747748374938965,65535.0
18440.409949761688,723.2208251953125,5302.7802734375,463.4754943847656,886.8095703125,27.231731414794922,99.78489685058594,69.36698150634766,123.21482849121094,18.437435150146484,65535.0
18440.410349770238,736.3611450195312,5304.09033203125,458.5493469238281,870.1815185546875,21.33449935913086,92.44003295898438,58.92721939086914,114.4106216430664,13.254179954528809,65535.0
18440.41074977879,709.8032836914062,5304.67822265625,439.4208984375,868.98046875,23.59069061279297,100.6657943725586,62.46163558959961,118.56295776367188,9.897431373596191,65535.0
18440.411149787345,664.9957885742188,5303.22802734375,435.73095703125,866.8191528320312,21.708194732666016,97.02558135986328,63.297298431396484,118.2171630859375,10.049086570739746,65535.0
18440.411549795896,634.8781127929688,5311.71923828125,446.00048828125,873.2799072265625,27.438091278076172,103.99075317382812,65.94319915771484,124.39996337890625,23.49024200439453,65535.0
18440.41194980445,648.6577758789062,5309.349609375,454.7345886230469,876.0899047851562,14.823280334472656,96.17955780029297,56.3171501159668,112.16584014892578,15.985055923461914,65535.0
18440.412349813003,671.9673461914062,5315.34130859375,452.20782470703125,876.8245239257812,23.461294174194336,103.08812713623047,66.03302001953125,120.45536041259766,22.591829299926758,65535.0
18440.412749821553,641.900634765625,5309.16943359375,444.3453369140625,884.3652954101562,30.425140380859375,108.49114227294922,68.83594512939453,123.81459045410156,13.908300399780273,65535.0
18440.413149830107,578.6429443359375,5295.404296875,449.95526123046875,875.5850830078125,22.969945907592773,107.45362091064453,62.150203704833984,120.28736114501953,23.972864151000977,65535.0
18440.41354983866,545.0089721679688,5306.05615234375,463.3399963378906,880.3924560546875,30.94131088256836,111.59776306152344,67.1138916015625,124.9321060180664,18.460050582885742,65535.0
18440.413949847214,482.09429931640625,5309.61279296875,462.3861999511719,884.0205078125,31.270708084106445,111.64995574951172,68.42987823486328,123.65634155273438,25.606876373291016,65535.0
18440.414349855764,447.5409240722656,5312.5048828125,448.100341796875,890.1265258789062,25.615652084350586,110.37129211425781,65.2226333618164,121.31483459472656,23.219018936157227,65535.0
18440.414749864318,490.729248046875,5313.79638671875,460.69903564453125,905.2968139648438,24.377355575561523,108.63483428955078,65.07331085205078,120.59852600097656,23.1773738861084,65535.0
18440.41514987287,607.4799194335938,5324.2529296875,475.37225341796875,908.859130859375,17.083229064941406,98.18502044677734,56.487945556640625,112.07854461669922,22.843524932861328,65535.0
18440.41554988142,631.1952514648438,5327.90625,480.6898498535156,911.8741455078125,31.459741592407227,113.22199249267578,70.12799072265625,124.85790252685547,14.344592094421387,65535.0
18440.415949889975,595.14306640625,5323.56591796875,478.50494384765625,922.9895629882812,24.63858985900879,109.2237548828125,64.55314636230469,121.05998992919922,11.901337623596191,65535.0
18440.41634989853,567.9852905273438,5328.26806640625,460.2576599121094,944.7024536132812,22.985916137695312,108.39608001708984,64.31710052490234,119.43598175048828,6.129953384399414,65535.0
18440.416749907083,556.7623901367188,5340.01318359375,461.67852783203125,952.267822265625,23.434825897216797,103.5087661743164,61.37669372558594,117.29574584960938,13.407204627990723,65535.0
18440.417149915633,581.1506958007812,5334.421875,453.6830139160156,955.086669921875,31.78281021118164,111.7696533203125,70.67678833007812,129.1293182373047,23.110517501831055,65535.0
18440.417549924186,609.901611328125,5338.8095703125,460.3026428222656,949.7180786132812,32.59477996826172,113.4229965209961,70.53533172607422,125.91737365722656,13.413771629333496,65535.0
18440.41794993274,649.993896484375,5336.7294921875,459.532470703125,943.705322265625,27.215476989746094,109.15727996826172,67.55762481689453,123.87113952636719,12.885496139526367,65535.0
18440.41834994129,674.732666015625,5319.39013671875,455.9599304199219,932.3357543945312,19.74173355102539,99.25145721435547,60.751625061035156,115.18653869628906,1.5710220336914062,65535.0
18440.418749949844,683.0513305664062,5312.330078125,462.2606506347656,922.9349365234375,23.596080780029297,98.42695617675781,61.47211456298828,117.29469299316406,5.97663688659668,65535.0
18440.419149958398,699.0783081054688,5312.3701171875,451.54095458984375,879.6749267578125,19.583377838134766,93.45911407470703,56.50358963012695,114.89349365234375,23.62963104248047,65535.0
18440.41954996695,719.8377685546875,5314.23486328125,455.3477783203125,853.8876953125,21.63238525390625,95.21896362304688,60.33388137817383,118.4544677734375,17.75531005859375,65535.0
18440.4199499755,741.12646484375,5323.42236328125,463.4688415527344,857.2730102539062,19.391021728515625,95.5179443359375,63.30674743652344,116.72644805908203,9.590519905090332,65535.0
18440.420349984055,768.9013671875,5327.43115234375,474.6272888183594,875.7549438476562,15.86147403717041,89.62757110595703,58.27510070800781,113.16915893554688,15.531344413757324,65535.0
18440.42074999261,801.7109985351562,5334.10009765625,459.52752685546875,908.5989990234375,13.704809188842773,86.08651733398438,55.775001525878906,112.60578918457031,32.637691497802734,65535.0
18440.42115000116,805.9982299804688,5339.322265625,445.3768005371094,931.488525390625,14.937872886657715,83.38450622558594,54.39903259277344,110.43392944335938,20.491056442260742,65535.0
18440.421550009713,805.22509765625,5338.28857421875,462.4656982421875,921.5333862304688,19.989364624023438,89.30724334716797,58.475032806396484,113.7307357788086,11.880332946777344,65535.0
18440.421950018266,790.6156616210938,5341.41015625,461.67340087890625,912.3048095703125,19.433244705200195,89.88618469238281,61.16570281982422,115.4787368774414,17.05440330505371,65535.0
18440.42235002682,739.7490844726562,5343.27099609375,457.8769836425781,862.9284057617188,17.518959045410156,88.00393676757812,56.68593215942383,112.12351989746094,11.90884017944336,65535.0
18440.42275003537,700.9635009765625,5352.3720703125,472.3063049316406,822.185546875,20.625972747802734,88.8467788696289,62.052703857421875,115.84806060791016,21.060665130615234,65535.0
18440.423150043924,671.7945556640625,5345.05810546875,473.6612243652344,801.6828002929688,21.710603713989258,87.13439178466797,59.70359802246094,116.2020492553711,23.90799903869629,65535.0
18440.423550052477,631.3652954101562,5340.75390625,468.7334289550781,768.1453247070312,19.810331344604492,83.80708312988281,57.268028259277344,113.68914031982422,10.719964027404785,65535.0
18440.423950061027,623.4924926757812,5340.0615234375,458.2717590332031,769.66552734375,22.45298957824707,83.55587768554688,59.920753479003906,116.89830017089844,17.649234771728516,65535.0
18440.42435006958,645.3720092773438,5326.20361328125,451.0867614746094,799.650390625,19.42035675048828,82.1838150024414,57.64962387084961,112.18570709228516,14.327402114868164,65535.0
18440.424750078135,658.6426391601562,5320.88134765625,453.57061767578125,837.8336791992188,9.381994247436523,73.81281280517578,50.49079895019531,105.80715942382812,11.643808364868164,65535.0
18440.42515008669,688.5899047851562,5321.75341796875,466.13861083984375,843.3662109375,9.897993087768555,70.82524108886719,48.799617767333984,103.2775650024414,15.800929069519043,65535.0
18440.42555009524,701.472900390625,5326.17578125,468.7364501953125,854.4963989257812,15.048858642578125,78.28923034667969,53.741092681884766,111.20741271972656,12.699716567993164,65535.0
18440.425950103792,717.7041625976562,5329.4033203125,466.5045166015625,843.3922729492188,12.203951835632324,77.1194076538086,52.50400924682617,107.52252197265625,19.678176879882812,65535.0
18440.426350112346,720.387451171875,5320.71875,455.9350891113281,842.9876708984375,4.727838516235352,68.75782775878906,45.541725158691406,101.38893127441406,18.918807983398438,65535.0
18440.426750120896,713.0924072265625,5320.5380859375,461.939453125,843.8392333984375,8.175690650939941,71.2988052368164,47.59086990356445,103.54566955566406,2.572988748550415,65535.0
18440.42715012945,713.6848754882812,5322.16064453125,458.973876953125,834.931884765625,10.245372772216797,75.56293487548828,50.15549087524414,107.11632537841797,8.693115234375,65535.0
18440.427550138003,723.5711059570312,5326.125,471.07720947265625,839.7503051757812,6.181122303009033,70.54247283935547,46.28998565673828,101.8062973022461,11.931281089782715,65535.0
18440.427950146557,735.8590698242188,5334.90673828125,480.3173828125,843.3936767578125,17.353214263916016,81.29238891601562,56.08742904663086,112.59980773925781,16.106403350830078,65535.0
18440.428350155107,722.7488403320312,5337.15478515625,464.9481506347656,827.58056640625,15.088578224182129,84.5692367553711,53.3348503112793,111.21900177001953,7.281506538391113,65535.0
18440.42875016366,720.6985473632812,5330.60693359375,461.6402282714844,803.7041015625,16.740060806274414,84.85948944091797,56.23776626586914,112.15192413330078,11.155086517333984,65535.0
18440.429150172215,728.5348510742188,5332.4140625,451.8948669433594,805.0137329101562,17.110944747924805,87.5028305053711,60.13516616821289,114.69696807861328,10.574310302734375,65535.0
18440.429550180765,729.7474365234375,5330.59423828125,452.70721435546875,813.3159790039062,5.893307209014893,76.8465347290039,46.83719253540039,103.30436706542969,1.95793616771698,65535.0
18440.42995018932,705.7245483398438,5336.1455078125,472.0038757324219,811.2826538085938,13.34996509552002,84.6924819946289,52.60599899291992,110.40245819091797,7.771398544311523,65535.0
18440.430350197872,677.8229370117188,5345.19970703125,452.0997009277344,813.7828369140625,20.30267333984375,91.6791000366211,58.151954650878906,112.66319274902344,14.157792091369629,65535.0
18440.430750206426,663.02734375,5330.38037109375,445.0384216308594,805.814697265625,22.58781623840332,94.99063873291016,60.472408294677734,118.0478744506836,28.323291778564453,65535.0
18440.431150214976,682.2081909179688,5321.7216796875,458.6857604980469,800.5213012695312,26.378013610839844,102.3340835571289,65.74703979492188,121.60696411132812,16.184110641479492,65535.0
18440.43155022353,707.7302856445312,5310.8017578125,452.92657470703125,818.7957763671875,9.88525390625,87.6346435546875,52.9774284362793,107.16234588623047,13.219179153442383,65535.0
18440.431950232083,705.7276611328125,5301.078125,459.5952453613281,806.8397827148438,20.165428161621094,95.26189422607422,57.6489143371582,113.9666976928711,23.316543579101562,65535.0
18440.432350240633,692.0342407226562,5292.634765625,456.6349182128906,803.2395629882812,22.167739868164062,103.06112670898438,61.9500846862793,120.38155364990234,19.23666000366211,65535.0
18440.432750249187,725.6238403320312,5279.57958984375,453.6868591308594,815.5769653320312,20.44487190246582,103.34589385986328,60.97509765625,118.8888931274414,9.992782592773438,65535.0
18440.43315025774,743.7592163085938,5283.76806640625,458.8984375,805.4768676757812,30.41796875,111.80037689208984,67.88268280029297,123.91017150878906,16.354053497314453,65535.0
18440.433550266294,732.6156616210938,5285.58935546875,458.686767578125,812.7986450195312,28.224525451660156,110.46380615234375,68.77420806884766,123.7293930053711,22.60398292541504,65535.0
18440.433950274844,694.8362426757812,5284.794921875,462.82403564453125,816.5199584960938,32.5438346862793,118.11857604980469,70.4789047241211,128.6013946533203,14.322561264038086,65535.0
18440.434350283398,651.5944213867188,5298.32275390625,472.83349609375,834.3331298828125,37.05190658569336,122.7131118774414,74.30421447753906,131.87135314941406,2.9843642711639404,65535.0
18440.43475029195,615.8731079101562,5300.966796875,467.843994140625,850.6566162109375,39.268707275390625,128.3730926513672,76.65544128417969,138.19712829589844,8.722646713256836,65535.0
18440.435150300502,621.4176635742188,5314.056640625,459.12579345703125,846.1813354492188,34.52314758300781,119.44046783447266,70.56979370117188,128.65664672851562,11.710260391235352,65535.0
18440.435550309056,663.5297241210938,5326.41259765625,457.01007080078125,837.34033203125,31.92446517944336,118.92760467529297,71.87804412841797,131.23977661132812,3.300243616104126,65535.0
18440.43595031761,721.288330078125,5327.12890625,473.20892333984375,826.3975830078125,33.20817947387695,119.86996459960938,72.18170928955078,130.6517791748047,8.321282386779785,65535.0
18440.436350326163,721.0851440429688,5333.00048828125,468.1583251953125,824.998046875,40.12403106689453,124.26776123046875,81.0212631225586,136.9674835205078,4.670111179351807,65535.0
18440.436750334713,696.6925659179688,5340.373046875,478.8288879394531,827.1412963867188,41.53120803833008,127.60604858398438,83.90731811523438,139.78564453125,17.986059188842773,65535.0
18440.437150343267,669.7491455078125,5330.33349609375,488.73516845703125,838.5702514648438,39.5395622253418,127.2645492553711,80.78716278076172,139.30410766601562,14.7554931640625,65535.0
18440.43755035182,639.2672729492188,5331.68505859375,474.5965270996094,848.7039184570312,38.01766586303711,121.84830474853516,79.86015319824219,135.84762573242188,7.858639240264893,65535.0
18440.43795036037,621.6207275390625,5345.75390625,468.1284484863281,848.4110107421875,40.22301483154297,119.06420135498047,77.66598510742188,133.41722106933594,24.551143646240234,65535.0
18440.438350368924,647.5916137695312,5349.39404296875,471.7376708984375,852.8557739257812,36.873504638671875,119.52566528320312,76.25472259521484,132.5957489013672,22.446928024291992,65535.0
18440.438750377478,687.773681640625,5365.556640625,476.7030944824219,857.9324951171875,30.72233009338379,114.01358032226562,70.7596206665039,125.52364349365234,19.656763076782227,65535.0
18440.43915038603,699.614990234375,5363.98828125,485.9031066894531,851.2064819335938,39.75380325317383,119.59419250488281,78.88311004638672,135.53330993652344,6.0016770362854,65535.0
18440.43955039458,712.442138671875,5360.33984375,483.19244384765625,850.4347534179688,41.09039306640625,123.52880096435547,82.89973449707031,137.09912109375,10.791864395141602,65535.0
18440.439950403135,711.0842895507812,5369.53955078125,478.7833557128906,864.3467407226562,37.52595520019531,118.76981353759766,77.04676055908203,134.85049438476562,-5.640235900878906,65535.0
18440.44035041169,685.3002319335938,5380.81689453125,483.8168640136719,871.399658203125,32.309207916259766,110.26651000976562,74.81303405761719,129.3924560546875,10.483373641967773,65535.0
18440.44075042024,669.544189453125,5376.568359375,477.8872375488281,880.96337890625,16.515579223632812,92.97869873046875,57.64306640625,114.35746765136719,23.76092529296875,65535.0
18440.441150428793,670.0523681640625,5379.3037109375,480.5088195800781,860.2223510742188,24.31048011779785,97.82119750976562,62.96232604980469,120.2868423461914,0.27678608894348145,65535.0
18440.441550437346,675.0843505859375,5378.21142578125,480.77935791015625,855.513671875,27.32264518737793,98.78466796875,63.035606384277344,120.25181579589844,5.275164604187012,65535.0
18440.4419504459,674.5094604492188,5368.3779296875,474.11572265625,832.7244873046875,34.94108581542969,105.27506256103516,70.82366180419922,127.81947326660156,12.53972053527832,65535.0
18440.44235045445,677.1009521484375,5363.3017578125,463.37982177734375,800.492919921875,26.143436431884766,95.61448669433594,66.1050033569336,120.97158813476562,8.849538803100586,65535.0
18440.442750463004,669.1771850585938,5368.0224609375,457.6964416503906,799.5282592773438,17.152549743652344,86.1639175415039,60.85559844970703,114.93507385253906,11.11980152130127,65535.0
18440.443150471558,648.0807495117188,5366.107421875,448.317626953125,828.1044311523438,15.052931785583496,85.49573516845703,58.50980758666992,112.9721908569336,-5.4522833824157715,65535.0
18440.443550480108,649.5778198242188,5351.84765625,446.5465393066406,851.4560546875,13.803265571594238,76.93382263183594,56.354339599609375,113.28946685791016,2.4907567501068115,65535.0
18440.44395048866,695.4739379882812,5346.94091796875,457.5721130371094,841.3782958984375,25.33506965637207,86.68994903564453,63.975643157958984,120.47838592529297,9.888792037963867,65535.0
18440.444350497215,719.0458984375,5355.3779296875,465.12628173828125,838.00732421875,17.85247039794922,85.01759338378906,59.99635696411133,115.43385314941406,20.258588790893555,65535.0
18440.44475050577,719.4511108398438,5359.54443359375,457.3946533203125,836.7708129882812,15.517351150512695,82.66870880126953,59.54263687133789,113.46815490722656,13.610620498657227,65535.0
18440.44515051432,702.8572998046875,5359.1572265625,433.1351013183594,856.6585083007812,13.745333671569824,79.13019561767578,53.02241134643555,111.33401489257812,2.981584310531616,65535.0
18440.445550522873,668.1854858398438,5349.78369140625,432.0079650878906,854.0048828125,18.486751556396484,82.27112579345703,55.553955078125,114.98700714111328,13.488763809204102,65535.0
18440.445950531426,633.268798828125,5338.69189453125,428.6430969238281,824.1967163085938,20.167034149169922,81.903564453125,57.67130661010742,115.05463409423828,21.457870483398438,65535.0
18440.446350539976,640.9893188476562,5339.326171875,443.9883728027344,811.0170288085938,25.9998779296875,93.90470123291016,64.65342712402344,122.60906982421875,14.97445011138916,65535.0
18440.44675054853,676.3760375976562,5348.0751953125,451.4827880859375,822.7241821289062,18.875900268554688,83.32543182373047,57.950439453125,113.31466674804688,7.425764560699463,65535.0
18440.447150557084,702.912109375,5354.9892578125,449.5843505859375,846.513671875,15.090039253234863,84.71138000488281,58.043766021728516,112.15473937988281,9.882789611816406,65535.0
18440.447550565637,756.537841796875,5345.86572265625,465.1615905761719,862.2646484375,22.275409698486328,87.02680969238281,59.24922180175781,114.2684555053711,22.310142517089844,65535.0
18440.447950574187,793.0380859375,5342.3701171875,456.4541320800781,854.2386474609375,25.342288970947266,91.93316650390625,63.06788635253906,122.23896789550781,16.227909088134766,65535.0
18440.44835058274,857.9685668945312,5352.57958984375,469.0010681152344,843.6344604492188,19.52484893798828,87.14893341064453,57.9981689453125,114.52995300292969,7.892343044281006,65535.0
18440.448750591295,898.8588256835938,5348.251953125,476.4630126953125,816.6957397460938,30.104049682617188,99.13327026367188,65.51476287841797,122.66189575195312,20.69925880432129,65535.0
18440.449150599845,910.3115844726562,5334.27587890625,478.3796691894531,800.1652221679688,21.521812438964844,89.52494812011719,58.32548141479492,115.44522857666016,12.973939895629883,65535.0
18440.4495506084,825.7432861328125,5331.08935546875,485.5357666015625,768.8555908203125,19.563873291015625,89.91436767578125,58.48210525512695,116.32905578613281,10.088383674621582,65535.0
18440.449950616952,720.904052734375,5336.0615234375,472.7690734863281,763.56787109375,21.93852996826172,95.28684997558594,62.33257293701172,117.59088134765625,21.148784637451172,65535.0
18440.450350625506,697.580810546875,5334.68017578125,449.1507568359375,794.8822631835938,20.280160903930664,91.59912109375,59.86704635620117,117.32537841796875,14.606220245361328,65535.0
18440.450750634056,742.747314453125,5334.0576171875,437.1684875488281,810.8583984375,24.235082626342773,99.06568908691406,62.788780212402344,118.42932891845703,-3.0992650985717773,65535.0
18440.45115064261,781.1710205078125,5332.6298828125,427.2301940917969,825.5667114257812,20.407621383666992,99.02537536621094,64.27476501464844,118.1163558959961,-2.524517059326172,65535.0
18440.451550651163,787.9033203125,5335.36572265625,437.29730224609375,850.9894409179688,30.748144149780273,105.10530090332031,68.2181396484375,120.93368530273438,19.271133422851562,65535.0
18440.451950659713,804.661376953125,5321.3359375,451.4593811035156,866.4129028320312,33.1779899597168,114.5252914428711,73.0384750366211,127.88703155517578,13.659778594970703,65535.0
18440.452350668267,808.1005249023438,5326.9111328125,459.1644287109375,863.8334350585938,30.657146453857422,111.64842224121094,72.87353515625,127.22235107421875,11.533354759216309,65535.0
18440.45275067682,763.0922241210938,5335.65625,451.4382019042969,865.1873168945312,45.73432922363281,128.17738342285156,83.77616119384766,140.93984985351562,15.261056900024414,65535.0
18440.453150685375,745.2843017578125,5337.59814453125,451.8521423339844,877.6712646484375,39.2898063659668,124.43312072753906,78.86653137207031,132.40359497070312,7.763309001922607,65535.0
18440.453550693925,693.6673583984375,5346.6845703125,447.5420837402344,881.5010375976562,34.552284240722656,121.57659912109375,77.5653076171875,133.6346435546875,17.856945037841797,65535.0
18440.45395070248,624.3829956054688,5347.29541015625,449.76519775390625,900.9620971679688,31.928491592407227,118.64619445800781,74.72554779052734,130.7056121826172,7.876922130584717,65535.0
18440.454350711032,590.0523071289062,5359.71875,459.7076721191406,913.3280639648438,38.34524917602539,122.56627655029297,75.8921890258789,134.2471466064453,-3.6241958141326904,65535.0
18440.454750719582,552.494873046875,5359.8291015625,465.488525390625,907.5408325195312,51.44364547729492,138.5216522216797,86.40531158447266,145.03224182128906,9.195073127746582,65535.0
18440.455150728136,539.3681030273438,5358.150390625,452.8401184082031,911.734130859375,48.55202865600586,141.95460510253906,90.56089782714844,143.64913940429688,8.665360450744629,65535.0
18440.45555073669,535.0498046875,5362.35595703125,459.5668029785156,926.8054809570312,41.81991958618164,130.78245544433594,80.90557098388672,136.64466857910156,3.7156667709350586,65535.0
18440.455950745243,544.3723754882812,5354.41455078125,461.74761962890625,940.4596557617188,41.443519592285156,128.33055114746094,81.33622741699219,138.36354064941406,10.77825927734375,65535.0
18440.456350753793,553.1997680664062,5347.140625,457.1027526855469,953.0765380859375,39.328948974609375,128.30471801757812,81.76133728027344,135.04736328125,-6.413043975830078,65535.0
18440.456750762347,549.6242065429688,5351.20458984375,458.0002136230469,923.238525390625,25.538406372070312,105.9560775756836,64.23411560058594,118.30563354492188,-9.102383613586426,65535.0
18440.4571507709,577.1112060546875,5346.83447265625,467.9597473144531,848.7195434570312,30.432598114013672,107.83757781982422,67.8485336303711,125.59344482421875,14.485694885253906,65535.0
18440.45755077945,596.88623046875,5342.44580078125,463.2238464355469,784.2368774414062,37.25391387939453,121.34831237792969,79.74058532714844,133.82601928710938,-0.5066043734550476,65535.0
18440.457950788004,594.4802856445312,5336.341796875,465.3861083984375,784.6768798828125,37.539947509765625,122.2299575805664,79.64636993408203,135.69985961914062,1.960894227027893,65535.0
18440.458350796558,630.816650390625,5343.71630859375,452.5610046386719,790.7413330078125,26.658920288085938,108.9369125366211,67.28689575195312,122.32456970214844,22.220800399780273,65535.0
18440.45875080511,643.7040405273438,5365.96044921875,444.4605407714844,789.7020263671875,27.06419563293457,104.30005645751953,64.21672821044922,119.07633972167969,15.568890571594238,65535.0
18440.459150813662,662.3743896484375,5370.85107421875,447.8269348144531,763.039306640625,40.66511154174805,120.21379852294922,78.15962219238281,133.41397094726562,-0.5797129273414612,65535.0
18440.459550822216,751.7064208984375,5369.697265625,457.814697265625,727.3392333984375,20.66451072692871,101.18413543701172,63.051021575927734,117.43281555175781,13.595754623413086,65535.0
18440.45995083077,824.287353515625,5371.4365234375,457.7913818359375,731.1517333984375,21.73097801208496,95.34046936035156,61.30333709716797,118.77947998046875,16.359922409057617,65535.0
18440.46035083932,845.4049072265625,5368.42626953125,453.13140869140625,735.5994873046875,31.979198455810547,106.0163345336914,67.92608642578125,125.57220458984375,15.17946720123291,65535.0
18440.460750847873,860.774169921875,5358.24072265625,437.24554443359375,725.8621826171875,27.15987777709961,101.7993392944336,68.63286590576172,120.19702911376953,-1.5377779006958008,65535.0
18440.461150856427,866.7910766601562,5364.8544921875,441.156005859375,711.5265502929688,20.074932098388672,94.22081756591797,62.24959182739258,116.17289733886719,3.3077950477600098,65535.0
18440.46155086498,861.7169799804688,5363.37646484375,447.0579528808594,710.1505126953125,9.88514518737793,80.92313385009766,51.403900146484375,107.87194061279297,24.462053298950195,65535.0
18440.46195087353,831.372802734375,5359.5400390625,444.1391296386719,700.9154663085938,15.062368392944336,81.18305969238281,54.0405158996582,110.83897399902344,15.748374938964844,65535.0
18440.462350882084,808.1249389648438,5358.69580078125,442.8731384277344,723.7337646484375,21.303998947143555,86.23640441894531,62.11186981201172,116.86248016357422,11.265850067138672,65535.0
18440.462750890638,811.7984619140625,5354.29541015625,455.5481262207031,748.96337890625,19.549007415771484,87.01677703857422,58.77311706542969,115.70693969726562,-4.262095928192139,65535.0
18440.463150899188,798.0422973632812,5358.0283203125,440.9159851074219,764.122314453125,18.61826515197754,85.2515869140625,59.268436431884766,113.49768829345703,8.698205947875977,65535.0
18440.46355090774,790.6455688476562,5354.63671875,438.89898681640625,784.2671508789062,22.116790771484375,85.48902893066406,60.227699279785156,119.45789337158203,13.755744934082031,65535.0
18440.463950916295,788.40576171875,5340.0869140625,432.5582580566406,790.9773559570312,24.859323501586914,88.2507095336914,63.058292388916016,120.392822265625,8.318190574645996,65535.0
18440.46435092485,765.8989868164062,5332.87939453125,425.0360412597656,807.2066040039062,10.539166450500488,72.49617004394531,48.73469924926758,104.36763763427734,20.676143646240234,65535.0
18440.4647509334,740.8767700195312,5335.09375,427.1571350097656,789.7006225585938,11.231943130493164,72.66057586669922,51.04375457763672,105.25357818603516,21.37867546081543,65535.0
18440.465150941953,739.18115234375,5321.6064453125,433.3607177734375,738.2725830078125,18.263092041015625,83.5302963256836,60.96257400512695,115.10926818847656,5.503801345825195,65535.0
18440.465550950506,720.8554077148438,5318.30859375,423.1353759765625,701.1951293945312,5.1679158210754395,67.03524780273438,45.12250900268555,100.6707534790039,12.314156532287598,65535.0
18440.465950959056,708.7575073242188,5333.97119140625,420.8868103027344,662.9241333007812,11.853824615478516,74.05011749267578,52.5173225402832,107.57455444335938,8.68609619140625,65535.0
18440.46635096761,713.9569091796875,5326.935546875,421.07891845703125,643.4813842773438,12.7272310256958,78.14125061035156,56.171722412109375,112.03076934814453,13.06714153289795,65535.0
18440.466750976164,670.7607421875,5329.0498046875,421.15478515625,639.5802612304688,11.514582633972168,71.52033996582031,52.089012145996094,107.04012298583984,27.495725631713867,65535.0
18440.467150984718,647.1002807617188,5330.9326171875,422.1279602050781,628.1521606445312,12.036351203918457,76.87531280517578,52.917091369628906,106.94975280761719,21.518857955932617,65535.0
18440.467550993268,634.820068359375,5341.56005859375,425.5508728027344,616.4712524414062,14.466771125793457,79.42788696289062,53.77330017089844,109.70184326171875,16.86168670654297,65535.0
18440.46795100182,634.9381713867188,5346.01318359375,435.7937316894531,660.6817626953125,14.54165267944336,79.60369873046875,53.822998046875,110.53763580322266,7.965943336486816,65535.0
