0,1
13589.719746937308,-357.0
13589.71980943452,-339.0
13589.719871931733,-329.0
13589.719934428946,-358.0
13589.719996926158,-343.0
13589.720059423371,-330.0
13589.720121920582,-339.0
13589.720184417794,-342.0
13589.720246915007,-351.0
13589.72030941222,-332.0
13589.720371909432,-342.0
13589.720434406645,-341.0
13589.720496903858,-343.0
13589.72055940107,-342.0
13589.720621898283,-349.0
13589.720684395495,-361.0
13589.720746892708,-342.0
13589.720809389919,-330.0
13589.720871887132,-333.0
13589.720934384344,-348.0
13589.720996881557,-345.0
13589.72105937877,-345.0
13589.721121875982,-340.0
13589.721184373195,-348.0
13589.721246870407,-345.0
13589.72130936762,-344.0
13589.721371864833,-375.0
13589.721434362044,-365.0
13589.721496859256,-351.0
13589.721559356469,-362.0
13589.721621853681,-349.0
13589.721684350894,-355.0
13589.721746848107,-348.0
13589.72180934532,-312.0
13589.721871842532,-342.0
13589.721934339745,-338.0
13589.721996836957,-328.0
13589.72205933417,-332.0
13589.722121831383,-330.0
13589.722184328593,-362.0
13589.722246825806,-330.0
13589.722309323019,-303.0
13589.722371820231,-311.0
13589.722434317444,-291.0
13589.722496814657,-308.0
13589.72255931187,-333.0
13589.722621809082,-318.0
13589.722684306294,-324.0
13589.722746803507,-330.0
13589.722809300718,-312.0
13589.72287179793,-325.0
13589.722934295143,-330.0
13589.722996792356,-293.0
13589.723059289568,-291.0
13589.723121786781,-300.0
13589.723184283994,-297.0
13589.723246781206,-301.0
13589.723309278419,-276.0
13589.723371775632,-281.0
13589.723434272844,-284.0
13589.723496770055,-305.0
13589.723559267268,-334.0
13589.72362176448,-302.0
13589.723684261693,-302.0
13589.723746758906,-305.0
13589.723809256118,-278.0
13589.723871753331,-297.0
13589.723934250544,-280.0
13589.723996747756,-265.0
13589.724059244969,-270.0
13589.724121742182,-280.0
13589.724184239392,-333.0
13589.724246736605,-312.0
13589.724309233818,-287.0
13589.72437173103,-317.0
13589.724434228243,-310.0
13589.724496725456,-314.0
13589.724559222668,-313.0
13589.72462171988,-322.0
13589.724684217093,-344.0
13589.724746714306,-301.0
13589.724809211519,-288.0
13589.72487170873,-314.0
13589.724934205942,-330.0
13589.724996703155,-344.0
13589.725059200367,-329.0
13589.72512169758,-326.0
13589.725184194793,-350.0
13589.725246692005,-337.0
13589.725309189218,-315.0
13589.72537168643,-323.0
13589.725434183643,-327.0
13589.725496680856,-327.0
13589.725559178067,-326.0
13589.72562167528,-341.0
13589.725684172492,-323.0
13589.725746669705,-301.0
13589.725809166917,-323.0
13589.72587166413,-326.0
13589.725934161343,-323.0
13589.725996658555,-350.0
13589.726059155768,-374.0
13589.72612165298,-352.0
13589.726184150193,-354.0
13589.726246647404,-338.0
13589.726309144617,-302.0
13589.72637164183,-310.0
13589.726434139042,-290.0
13589.726496636255,-287.0
13589.726559133467,-296.0
13589.72662163068,-297.0
13589.726684127892,-320.0
13589.726746625105,-328.0
13589.726809122318,-326.0
13589.72687161953,-351.0
13589.726934116741,-322.0
13589.726996613954,-300.0
13589.727059111166,-308.0
13589.72712160838,-289.0
13589.727184105592,-319.0
13589.727246602804,-299.0
13589.727309100017,-272.0
13589.72737159723,-310.0
13589.727434094442,-338.0
13589.727496591655,-368.0
13589.727559088868,-329.0
13589.727621586078,-316.0
13589.727684083291,-349.0
13589.727746580504,-316.0
13589.727809077716,-294.0
13589.727871574929,-310.0
13589.727934072142,-324.0
13589.727996569354,-328.0
13589.728059066567,-298.0
13589.72812156378,-282.0
13589.728184060992,-331.0
13589.728246558205,-323.0
13589.728309055416,-304.0
13589.728371552628,-339.0
13589.72843404984,-351.0
13589.728496547054,-334.0
13589.728559044266,-307.0
13589.728621541479,-333.0
13589.728684038691,-349.0
13589.728746535904,-326.0
13589.728809033117,-327.0
13589.72887153033,-333.0
13589.728934027542,-317.0
13589.728996524753,-309.0
13589.729059021965,-307.0
13589.729121519178,-300.0
13589.72918401639,-323.0
13589.729246513603,-304.0
13589.729309010816,-292.0
13589.729371508029,-339.0
13589.729434005241,-350.0
13589.729496502454,-322.0
13589.729558999667,-318.0
13589.72962149688,-321.0
13589.72968399409,-310.0
13589.729746491303,-309.0
13589.729808988515,-306.0
13589.729871485728,-300.0
13589.72993398294,-294.0
13589.729996480153,-304.0
13589.730058977366,-293.0
13589.730121474578,-295.0
13589.730183971791,-297.0
13589.730246469004,-268.0
13589.730308966216,-258.0
13589.730371463427,-271.0
13589.73043396064,-271.0
13589.730496457852,-282.0
13589.730558955065,-290.0
13589.730621452278,-271.0
13589.73068394949,-272.0
13589.730746446703,-296.0
13589.730808943916,-302.0
13589.730871441128,-285.0
13589.730933938341,-280.0
13589.730996435554,-297.0
13589.731058932764,-289.0
13589.731121429977,-296.0
13589.73118392719,-341.0
13589.731246424402,-325.0
13589.731308921615,-301.0
13589.731371418828,-312.0
13589.73143391604,-302.0
13589.731496413253,-298.0
13589.731558910466,-295.0
13589.731621407678,-289.0
13589.73168390489,-282.0
13589.731746402102,-279.0
13589.731808899314,-268.0
13589.731871396527,-261.0
13589.73193389374,-270.0
13589.731996390952,-281.0
13589.732058888165,-268.0
13589.732121385377,-253.0
13589.73218388259,-282.0
13589.732246379803,-272.0
13589.732308877015,-240.0
13589.732371374226,-260.0
13589.732433871439,-251.0
13589.732496368651,-229.0
13589.732558865864,-221.0
13589.732621363077,-235.0
13589.73268386029,-268.0
13589.732746357502,-258.0
13589.732808854715,-240.0
13589.732871351927,-221.0
13589.73293384914,-232.0
13589.732996346353,-258.0
13589.733058843565,-235.0
13589.733121340776,-241.0
13589.733183837989,-281.0
13589.733246335201,-236.0
13589.733308832414,-213.0
13589.733371329627,-259.0
13589.73343382684,-238.0
13589.733496324052,-236.0
13589.733558821265,-273.0
13589.733621318477,-274.0
13589.73368381569,-245.0
13589.7337463129,-222.0
13589.733808810113,-243.0
13589.733871307326,-250.0
13589.733933804539,-225.0
13589.733996301751,-242.0
13589.734058798964,-266.0
13589.734121296176,-238.0
13589.73418379339,-237.0
13589.734246290602,-230.0
13589.734308787814,-202.0
13589.734371285027,-238.0
13589.734433782238,-214.0
13589.73449627945,-210.0
13589.734558776663,-224.0
13589.734621273876,-194.0
13589.734683771088,-199.0
13589.734746268301,-206.0
13589.734808765514,-209.0
13589.734871262726,-204.0
13589.734933759939,-192.0
13589.734996257152,-205.0
13589.735058754364,-183.0
13589.735121251575,-174.0
13589.735183748788,-212.0
13589.735246246,-203.0
13589.735308743213,-164.0
13589.735371240426,-155.0
13589.735433737638,-154.0
13589.73549623485,-167.0
13589.735558732064,-156.0
13589.735621229276,-117.0
13589.735683726489,-127.0
13589.735746223701,-157.0
13589.735808720912,-165.0
13589.735871218125,-154.0
13589.735933715338,-147.0
13589.73599621255,-137.0
13589.736058709763,-142.0
13589.736121206975,-164.0
13589.736183704188,-192.0
13589.7362462014,-151.0
13589.736308698613,-161.0
13589.736371195826,-191.0
13589.736433693039,-161.0
13589.73649619025,-161.0
13589.736558687462,-132.0
13589.736621184675,-135.0
13589.736683681887,-148.0
13589.7367461791,-150.0
13589.736808676313,-129.0
13589.736871173525,-145.0
13589.736933670738,-165.0
13589.73699616795,-141.0
13589.737058665163,-163.0
13589.737121162376,-164.0
13589.737183659587,-139.0
13589.7372461568,-117.0
13589.737308654012,-116.0
13589.737371151225,-134.0
13589.737433648437,-113.0
13589.73749614565,-113.0
13589.737558642862,-115.0
13589.737621140075,-88.0
13589.737683637288,-93.0
13589.7377461345,-70.0
13589.737808631713,-66.0
13589.737871128924,-72.0
13589.737933626137,-62.0
13589.73799612335,-70.0
13589.738058620562,-59.0
13589.738121117774,-77.0
13589.738183614987,-96.0
13589.7382461122,-59.0
13589.738308609412,-39.0
13589.738371106625,-65.0
13589.738433603838,-77.0
13589.73849610105,-71.0
13589.738558598261,-23.0
13589.738621095474,-8.0
13589.738683592686,-24.0
13589.738746089899,-2.0
13589.738808587112,13.0
13589.738871084324,-12.0
13589.738933581537,-11.0
13589.73899607875,1.0
13589.739058575962,-48.0
13589.739121073175,-51.0
13589.739183570387,-60.0
13589.739246067598,-54.0
13589.739308564811,-13.0
13589.739371062024,-40.0
13589.739433559236,-46.0
13589.739496056449,-57.0
13589.739558553661,-59.0
13589.739621050874,-47.0
13589.739683548087,-52.0
13589.7397460453,-41.0
13589.739808542512,-30.0
13589.739871039725,-18.0
13589.739933536935,-20.0
13589.739996034148,-30.0
13589.74005853136,-41.0
13589.740121028573,-14.0
13589.740183525786,-32.0
13589.740246022999,-25.0
13589.740308520211,22.0
13589.740371017424,23.0
13589.740433514637,26.0
13589.74049601185,30.0
13589.740558509062,34.0
13589.740621006273,9.0
13589.740683503485,-5.0
13589.740746000698,11.0
13589.74080849791,5.0
13589.740870995123,6.0
13589.740933492336,36.0
13589.740995989549,34.0
13589.741058486761,24.0
13589.741120983974,24.0
13589.741183481186,-2.0
13589.7412459784,25.0
13589.74130847561,52.0
13589.741370972823,15.0
13589.741433470035,23.0
13589.741495967248,36.0
13589.74155846446,67.0
13589.741620961673,80.0
13589.741683458886,47.0
13589.741745956098,50.0
13589.741808453311,64.0
13589.741870950524,71.0
13589.741933447736,88.0
13589.741995944947,95.0
13589.74205844216,82.0
13589.742120939372,85.0
13589.742183436585,57.0
13589.742245933798,80.0
13589.74230843101,131.0
13589.742370928223,105.0
13589.742433425436,94.0
13589.742495922648,123.0
13589.74255841986,113.0
13589.742620917074,101.0
13589.742683414284,150.0
13589.742745911497,138.0
13589.74280840871,125.0
13589.742870905922,154.0
13589.742933403135,156.0
13589.742995900348,169.0
13589.74305839756,178.0
13589.743120894773,180.0
13589.743183391985,142.0
13589.743245889198,168.0
13589.74330838641,188.0
13589.743370883622,171.0
13589.743433380834,187.0
13589.743495878047,191.0
13589.74355837526,199.0
13589.743620872472,166.0
13589.743683369685,162.0
13589.743745866897,189.0
13589.74380836411,203.0
13589.743870861323,211.0
13589.743933358535,210.0
13589.743995855748,193.0
13589.744058352959,185.0
13589.744120850171,186.0
13589.744183347384,159.0
13589.744245844597,214.0
13589.74430834181,252.0
13589.744370839022,201.0
13589.744433336235,200.0
13589.744495833447,233.0
13589.74455833066,227.0
13589.744620827872,214.0
13589.744683325083,247.0
13589.744745822296,259.0
13589.744808319509,255.0
13589.744870816721,235.0
13589.744933313934,248.0
13589.744995811147,259.0
13589.74505830836,249.0
13589.745120805572,257.0
13589.745183302784,226.0
13589.745245799997,271.0
13589.74530829721,302.0
13589.74537079442,290.0
13589.745433291633,288.0
13589.745495788846,265.0
13589.745558286058,299.0
13589.745620783271,252.0
13589.745683280484,255.0
13589.745745777696,311.0
13589.745808274909,312.0
13589.745870772122,313.0
13589.745933269334,298.0
13589.745995766547,320.0
13589.746058263758,329.0
13589.74612076097,333.0
13589.746183258183,306.0
13589.746245755396,330.0
13589.746308252608,376.0
13589.746370749821,363.0
13589.746433247034,361.0
13589.746495744246,364.0
13589.746558241459,361.0
13589.746620738671,351.0
13589.746683235884,355.0
13589.746745733095,361.0
13589.746808230308,368.0
13589.74687072752,369.0
13589.746933224733,343.0
13589.746995721945,349.0
13589.747058219158,387.0
13589.74712071637,387.0
13589.747183213583,340.0
13589.747245710796,362.0
13589.747308208009,390.0
13589.747370705221,356.0
13589.747433202432,369.0
13589.747495699645,364.0
13589.747558196857,358.0
13589.74762069407,380.0
13589.747683191283,381.0
13589.747745688495,379.0
13589.747808185708,386.0
13589.74787068292,359.0
13589.747933180133,368.0
13589.747995677346,384.0
13589.748058174559,361.0
13589.74812067177,383.0
13589.748183168982,340.0
13589.748245666195,347.0
13589.748308163407,403.0
13589.74837066062,364.0
13589.748433157833,356.0
13589.748495655045,372.0
13589.748558152258,349.0
13589.74862064947,312.0
13589.748683146683,326.0
13589.748745643896,346.0
13589.748808141107,356.0
13589.74887063832,346.0
13589.748933135532,324.0
13589.748995632744,324.0
13589.749058129957,324.0
13589.74912062717,353.0
13589.749183124382,314.0
13589.749245621595,317.0
13589.749308118808,357.0
13589.74937061602,326.0
13589.749433113233,336.0
13589.749495610444,331.0
13589.749558107656,353.0
13589.749620604869,347.0
13589.749683102082,339.0
13589.749745599294,384.0
13589.749808096507,383.0
13589.74987059372,374.0
13589.749933090932,371.0
13589.749995588145,366.0
13589.750058085358,360.0
13589.75012058257,373.0
13589.750183079781,344.0
13589.750245576994,365.0
13589.750308074206,393.0
13589.750370571419,361.0
13589.750433068632,375.0
13589.750495565844,358.0
13589.750558063057,341.0
13589.75062056027,357.0
13589.750683057482,367.0
13589.750745554695,350.0
13589.750808051907,334.0
13589.750870549118,334.0
13589.75093304633,332.0
13589.750995543543,321.0
13589.751058040756,320.0
13589.751120537969,310.0
13589.751183035181,263.0
13589.751245532394,311.0
13589.751308029607,344.0
13589.75137052682,289.0
13589.751433024032,300.0
13589.751495521245,301.0
13589.751558018455,273.0
13589.751620515668,273.0
13589.75168301288,269.0
13589.751745510093,261.0
13589.751808007306,264.0
13589.751870504519,247.0
13589.751933001731,247.0
13589.751995498944,262.0
13589.752057996157,268.0
13589.75212049337,299.0
13589.752182990582,266.0
13589.752245487793,266.0
13589.752307985005,320.0
13589.752370482218,299.0
13589.75243297943,284.0
13589.752495476643,297.0
13589.752557973856,291.0
13589.752620471068,266.0
13589.752682968281,263.0
13589.752745465494,250.0
13589.752807962706,265.0
13589.752870459919,241.0
13589.75293295713,221.0
13589.752995454342,218.0
13589.753057951555,202.0
13589.753120448768,227.0
13589.75318294598,200.0
13589.753245443193,219.0
13589.753307940406,261.0
13589.753370437618,198.0
13589.753432934831,223.0
13589.753495432044,252.0
13589.753557929256,205.0
13589.753620426467,211.0
13589.75368292368,200.0
13589.753745420892,205.0
13589.753807918105,241.0
13589.753870415318,222.0
13589.75393291253,221.0
13589.753995409743,221.0
13589.754057906955,200.0
13589.754120404168,195.0
13589.75418290138,163.0
13589.754245398593,190.0
13589.754307895804,274.0
13589.754370393017,257.0
13589.75443289023,249.0
13589.754495387442,272.0
13589.754557884655,262.0
13589.754620381867,228.0
13589.75468287908,225.0
13589.754745376293,219.0
13589.754807873505,215.0
13589.754870370718,226.0
13589.75493286793,212.0
13589.754995365141,220.0
13589.755057862354,224.0
13589.755120359567,239.0
13589.75518285678,217.0
13589.755245353992,210.0
13589.755307851205,226.0
13589.755370348417,190.0
13589.75543284563,187.0
13589.755495342843,179.0
13589.755557840055,170.0
13589.755620337266,178.0
13589.755682834479,167.0
13589.755745331691,163.0
13589.755807828904,165.0
13589.755870326117,178.0
13589.75593282333,210.0
13589.755995320542,228.0
13589.756057817754,229.0
13589.756120314967,235.0
13589.75618281218,192.0
13589.756245309392,194.0
13589.756307806605,227.0
13589.756370303816,202.0
13589.756432801028,213.0
13589.756495298241,208.0
13589.756557795454,182.0
13589.756620292666,205.0
13589.756682789879,234.0
13589.756745287092,213.0
13589.756807784304,185.0
13589.756870281517,200.0
13589.75693277873,204.0
13589.75699527594,211.0
13589.757057773153,226.0
13589.757120270366,219.0
13589.757182767578,177.0
13589.757245264791,243.0
13589.757307762004,283.0
13589.757370259216,203.0
13589.757432756429,228.0
13589.757495253642,244.0
13589.757557750854,220.0
13589.757620248067,212.0
13589.757682745278,197.0
13589.75774524249,220.0
13589.757807739703,226.0
13589.757870236916,226.0
13589.757932734128,231.0
13589.75799523134,241.0
13589.758057728553,241.0
13589.758120225766,229.0
13589.758182722979,227.0
13589.758245220191,255.0
13589.758307717404,270.0
13589.758370214615,229.0
13589.758432711827,227.0
13589.75849520904,237.0
13589.758557706253,228.0
13589.758620203465,252.0
13589.758682700678,242.0
13589.75874519789,248.0
13589.758807695103,274.0
13589.758870192316,257.0
13589.758932689529,258.0
13589.758995186741,266.0
13589.759057683952,279.0
13589.759120181165,261.0
13589.759182678377,217.0
13589.75924517559,284.0
13589.759307672803,303.0
13589.759370170015,239.0
13589.759432667228,260.0
13589.75949516444,255.0
13589.759557661653,237.0
13589.759620158866,228.0
13589.759682656078,229.0
13589.75974515329,272.0
13589.759807650502,280.0
13589.759870147715,285.0
13589.759932644927,299.0
13589.75999514214,294.0
13589.760057639352,303.0
13589.760120136565,297.0
13589.760182633778,274.0
13589.76024513099,324.0
13589.760307628203,348.0
13589.760370125416,323.0
13589.760432622626,315.0
13589.76049511984,315.0
13589.760557617052,322.0
13589.760620114264,322.0
13589.760682611477,329.0
13589.76074510869,332.0
13589.760807605902,337.0
13589.760870103115,343.0
13589.760932600328,369.0
13589.76099509754,378.0
13589.761057594753,356.0
13589.761120091964,376.0
13589.761182589176,354.0
13589.761245086389,367.0
13589.761307583602,406.0
13589.761370080814,369.0
13589.761432578027,338.0
13589.76149507524,342.0
13589.761557572452,360.0
13589.761620069665,350.0
13589.761682566877,343.0
13589.76174506409,359.0
13589.7618075613,365.0
13589.761870058514,370.0
13589.761932555726,388.0
13589.761995052939,384.0
13589.762057550151,365.0
13589.762120047364,397.0
13589.762182544577,392.0
13589.76224504179,392.0
13589.762307539002,427.0
13589.762370036215,403.0
13589.762432533427,395.0
13589.762495030638,395.0
13589.76255752785,390.0
13589.762620025063,384.0
13589.762682522276,390.0
13589.762745019489,407.0
13589.762807516701,415.0
13589.762870013914,406.0
13589.762932511127,413.0
13589.76299500834,422.0
13589.763057505552,396.0
13589.763120002764,408.0
13589.763182499975,363.0
13589.763244997188,385.0
13589.7633074944,459.0
13589.763369991613,433.0
13589.763432488826,428.0
13589.763494986038,430.0
13589.763557483251,452.0
13589.763619980464,440.0
13589.763682477676,457.0
13589.763744974889,469.0
13589.763807472102,461.0
13589.763869969313,479.0
13589.763932466525,472.0
13589.763994963738,456.0
13589.76405746095,446.0
13589.764119958163,459.0
13589.764182455376,417.0
13589.764244952588,418.0
13589.764307449801,460.0
13589.764369947014,452.0
13589.764432444226,432.0
13589.764494941439,425.0
13589.76455743865,450.0
13589.764619935862,428.0
13589.764682433075,402.0
13589.764744930288,421.0
13589.7648074275,408.0
13589.764869924713,412.0
13589.764932421926,420.0
13589.764994919138,423.0
13589.76505741635,434.0
13589.765119913563,439.0
13589.765182410776,404.0
13589.765244907987,398.0
13589.7653074052,445.0
13589.765369902412,435.0
13589.765432399625,419.0
13589.765494896837,410.0
13589.76555739405,412.0
13589.765619891263,421.0
13589.765682388475,408.0
13589.765744885688,406.0
13589.7658073829,423.0
13589.765869880113,418.0
13589.765932377324,433.0
13589.765994874537,428.0
13589.76605737175,415.0
13589.766119868962,451.0
13589.766182366175,408.0
13589.766244863387,437.0
13589.7663073606,483.0
13589.766369857813,434.0
13589.766432355025,435.0
13589.766494852238,430.0
13589.766557349449,441.0
13589.766619846661,437.0
13589.766682343874,421.0
13589.766744841087,407.0
13589.7668073383,410.0
13589.766869835512,436.0
13589.766932332725,416.0
13589.766994829937,427.0
13589.76705732715,427.0
13589.767119824362,395.0
13589.767182321575,368.0
13589.767244818788,399.0
13589.767307315999,464.0
13589.767369813211,438.0
13589.767432310424,396.0
13589.767494807636,413.0
13589.76755730485,412.0
13589.767619802062,369.0
13589.767682299274,350.0
13589.767744796487,384.0
13589.7678072937,382.0
13589.767869790912,347.0
13589.767932288123,387.0
13589.767994785336,384.0
13589.768057282548,344.0
13589.768119779761,342.0
13589.768182276974,317.0
13589.768244774186,356.0
13589.768307271399,379.0
13589.768369768612,342.0
13589.768432265824,369.0
13589.768494763037,367.0
13589.76855726025,361.0
13589.76861975746,369.0
13589.768682254673,372.0
13589.768744751886,410.0
13589.768807249098,392.0
13589.76886974631,375.0
13589.768932243524,420.0
13589.768994740736,403.0
13589.769057237949,374.0
13589.769119735161,397.0
13589.769182232374,395.0
13589.769244729587,429.0
13589.769307226798,463.0
13589.76936972401,414.0
13589.769432221223,416.0
13589.769494718435,437.0
13589.769557215648,395.0
13589.76961971286,395.0
13589.769682210073,428.0
13589.769744707286,408.0
13589.769807204499,374.0
13589.769869701711,416.0
13589.769932198924,442.0
13589.769994696135,381.0
13589.770057193347,411.0
13589.77011969056,441.0
13589.770182187773,405.0
13589.770244684985,411.0
13589.770307182198,462.0
13589.77036967941,406.0
13589.770432176623,411.0
13589.770494673836,422.0
13589.770557171048,397.0
13589.770619668261,385.0
13589.770682165472,370.0
13589.770744662685,409.0
13589.770807159897,428.0
13589.77086965711,445.0
13589.770932154323,449.0
13589.770994651535,452.0
13589.771057148748,431.0
13589.77111964596,417.0
13589.771182143173,393.0
13589.771244640386,421.0
13589.771307137598,474.0
13589.77136963481,445.0
13589.771432132022,441.0
13589.771494629234,470.0
13589.771557126447,473.0
13589.77161962366,480.0
13589.771682120872,480.0
13589.771744618085,511.0
13589.771807115298,505.0
13589.77186961251,487.0
13589.771932109723,499.0
13589.771994606936,508.0
13589.772057104146,488.0
13589.772119601359,515.0
13589.772182098572,518.0
13589.772244595784,517.0
13589.772307092997,563.0
13589.77236959021,539.0
13589.772432087422,506.0
13589.772494584635,499.0
13589.772557081847,545.0
13589.77261957906,567.0
13589.772682076273,559.0
13589.772744573484,556.0
13589.772807070696,521.0
13589.772869567909,526.0
13589.772932065121,529.0
13589.772994562334,512.0
13589.773057059547,524.0
13589.77311955676,547.0
13589.773182053972,533.0
13589.773244551185,559.0
13589.773307048397,586.0
13589.77336954561,560.0
13589.77343204282,566.0
13589.773494540033,594.0
13589.773557037246,588.0
13589.773619534459,582.0
13589.773682031671,587.0
13589.773744528884,589.0
13589.773807026097,587.0
13589.77386952331,565.0
13589.773932020522,600.0
13589.773994517735,604.0
13589.774057014947,565.0
13589.774119512158,572.0
13589.77418200937,524.0
13589.774244506583,543.0
13589.774307003796,621.0
13589.774369501009,591.0
13589.774431998221,577.0
13589.774494495434,582.0
13589.774556992646,583.0
13589.77461948986,594.0
13589.774681987072,605.0
13589.774744484284,588.0
13589.774806981495,582.0
13589.774869478708,591.0
13589.77493197592,588.0
13589.774994473133,583.0
13589.775056970346,567.0
13589.775119467558,569.0
13589.775181964771,552.0
13589.775244461984,574.0
13589.775306959196,572.0
13589.775369456409,539.0
13589.775431953622,556.0
13589.775494450832,551.0
13589.775556948045,550.0
13589.775619445258,545.0
13589.77568194247,531.0
13589.775744439683,522.0
13589.775806936896,543.0
13589.775869434108,559.0
13589.77593193132,557.0
13589.775994428534,556.0
13589.776056925746,569.0
13589.776119422959,539.0
13589.77618192017,545.0
13589.776244417382,517.0
13589.776306914595,499.0
13589.776369411808,624.0
13589.77643190902,545.0
13589.776494406233,529.0
13589.776556903445,511.0
13589.776619400658,481.0
13589.77668189787,496.0
13589.776744395083,489.0
13589.776806892296,528.0
13589.776869389507,538.0
13589.77693188672,531.0
13589.776994383932,529.0
13589.777056881145,492.0
13589.777119378357,480.0
13589.77718187557,453.0
13589.777244372783,470.0
13589.777306869995,503.0
13589.777369367208,491.0
13589.77743186442,484.0
13589.777494361631,454.0
13589.777556858844,471.0
13589.777619356057,489.0
13589.77768185327,451.0
13589.777744350482,448.0
13589.777806847695,466.0
13589.777869344907,440.0
13589.77793184212,460.0
13589.777994339333,443.0
13589.778056836545,433.0
13589.778119333758,462.0
13589.77818183097,432.0
13589.778244328181,455.0
13589.778306825394,477.0
13589.778369322607,429.0
13589.77843181982,420.0
13589.778494317032,432.0
13589.778556814244,408.0
13589.778619311457,416.0
13589.77868180867,432.0
13589.778744305882,424.0
13589.778806803095,409.0
13589.778869300306,395.0
13589.778931797518,405.0
13589.778994294731,419.0
13589.779056791944,423.0
13589.779119289156,438.0
13589.779181786369,410.0
13589.779244283582,408.0
13589.779306780794,422.0
13589.779369278007,404.0
13589.77943177522,425.0
13589.779494272432,448.0
13589.779556769643,454.0
13589.779619266856,418.0
13589.779681764068,401.0
13589.779744261281,419.0
13589.779806758494,430.0
13589.779869255706,415.0
13589.779931752919,403.0
13589.779994250131,402.0
13589.780056747344,433.0
13589.780119244557,444.0
13589.78018174177,402.0
13589.78024423898,442.0
13589.780306736193,449.0
13589.780369233406,412.0
13589.780431730618,426.0
13589.78049422783,426.0
13589.780556725043,444.0
13589.780619222256,454.0
13589.780681719469,437.0
13589.780744216681,443.0
13589.780806713894,457.0
13589.780869211107,460.0
13589.780931708317,471.0
13589.78099420553,448.0
13589.781056702743,449.0
13589.781119199955,470.0
13589.781181697168,433.0
13589.78124419438,458.0
13589.781306691593,472.0
13589.781369188806,434.0
13589.781431686019,448.0
13589.781494183231,450.0
13589.781556680444,463.0
13589.781619177655,458.0
13589.781681674867,436.0
13589.78174417208,440.0
13589.781806669293,403.0
13589.781869166505,461.0
13589.781931663718,375.0
13589.78199416093,352.0
13589.782056658143,541.0
13589.782119155356,414.0
13589.782181652568,402.0
13589.782244149781,448.0
13589.782306646992,468.0
13589.782369144204,466.0
13589.782431641417,456.0
13589.78249413863,474.0
13589.782556635842,453.0
13589.782619133055,449.0
13589.782681630268,503.0
13589.78274412748,513.0
13589.782806624693,515.0
13589.782869121906,514.0
13589.782931619118,516.0
13589.782994116329,535.0
13589.783056613542,549.0
13589.783119110754,537.0
13589.783181607967,512.0
13589.78324410518,549.0
13589.783306602392,528.0
13589.783369099605,546.0
13589.783431596818,575.0
13589.78349409403,526.0
13589.783556591243,557.0
13589.783619088455,542.0
13589.783681585666,511.0
13589.783744082879,540.0
13589.783806580092,513.0
13589.783869077304,518.0
13589.783931574517,535.0
13589.78399407173,495.0
13589.784056568942,492.0
13589.784119066155,514.0
13589.784181563367,473.0
13589.78424406058,489.0
13589.784306557793,534.0
13589.784369055003,487.0
13589.784431552216,503.0
13589.784494049429,528.0
13589.784556546641,518.0
13589.784619043854,543.0
13589.784681541067,541.0
13589.78474403828,533.0
13589.784806535492,555.0
13589.784869032705,539.0
13589.784931529917,541.0
13589.78499402713,546.0
13589.78505652434,524.0
13589.785119021553,544.0
13589.785181518766,513.0
13589.785244015979,545.0
13589.785306513191,595.0
13589.785369010404,543.0
13589.785431507617,524.0
13589.78549400483,545.0
13589.785556502042,571.0
13589.785618999254,586.0
13589.785681496467,592.0
13589.785743993678,583.0
13589.78580649089,572.0
13589.785868988103,570.0
13589.785931485316,579.0
13589.785993982528,615.0
13589.786056479741,612.0
13589.786118976954,579.0
13589.786181474166,547.0
13589.786243971379,576.0
13589.786306468592,597.0
13589.786368965804,569.0
13589.786431463015,557.0
13589.786493960228,560.0
13589.78655645744,567.0
13589.786618954653,560.0
13589.786681451866,572.0
13589.786743949078,567.0
13589.786806446291,562.0
13589.786868943504,553.0
13589.786931440716,555.0
13589.786993937929,556.0
13589.787056435141,572.0
13589.787118932352,573.0
13589.787181429565,530.0
13589.787243926778,584.0
13589.78730642399,620.0
13589.787368921203,580.0
13589.787431418416,583.0
13589.787493915628,551.0
13589.78755641284,552.0
13589.787618910053,571.0
13589.787681407266,574.0
13589.787743904479,594.0
13589.78780640169,557.0
13589.787868898902,528.0
13589.787931396115,554.0
13589.787993893327,527.0
13589.78805639054,526.0
13589.788118887753,562.0
13589.788181384965,509.0
13589.788243882178,555.0
13589.78830637939,586.0
13589.788368876603,525.0
13589.788431373814,547.0
13589.788493871027,534.0
13589.78855636824,535.0
13589.788618865452,537.0
13589.788681362665,503.0
13589.788743859877,501.0
13589.78880635709,497.0
13589.788868854303,505.0
13589.788931351515,520.0
13589.788993848728,509.0
13589.78905634594,554.0
13589.789118843153,576.0
13589.789181340364,522.0
13589.789243837577,557.0
13589.78930633479,602.0
13589.789368832002,594.0
13589.789431329214,579.0
13589.789493826427,579.0
13589.78955632364,560.0
13589.789618820852,555.0
13589.789681318065,559.0
13589.789743815278,560.0
13589.789806312489,558.0
13589.789868809701,547.0
13589.789931306914,531.0
13589.789993804126,501.0
13589.790056301339,517.0
13589.790118798552,555.0
13589.790181295764,519.0
13589.790243792977,557.0
13589.79030629019,606.0
13589.790368787402,556.0
13589.790431284615,580.0
13589.790493781826,568.0
13589.790556279038,545.0
13589.790618776251,569.0
13589.790681273464,553.0
13589.790743770676,556.0
13589.790806267889,582.0
13589.790868765102,562.0
13589.790931262314,556.0
13589.790993759527,564.0
13589.79105625674,555.0
13589.791118753952,563.0
13589.791181251163,521.0
13589.791243748376,559.0
13589.791306245588,605.0
13589.7913687428,551.0
13589.791431240013,540.0
13589.791493737226,560.0
13589.791556234439,561.0
13589.791618731651,571.0
13589.791681228864,578.0
13589.791743726077,573.0
13589.79180622329,575.0
13589.7918687205,583.0
13589.791931217713,599.0
13589.791993714925,592.0
13589.792056212138,590.0
13589.79211870935,588.0
13589.792181206563,550.0
13589.792243703776,594.0
13589.792306200989,635.0
13589.792368698201,581.0
13589.792431195414,593.0
13589.792493692627,619.0
13589.792556189837,593.0
13589.79261868705,582.0
13589.792681184263,598.0
13589.792743681475,589.0
13589.792806178688,588.0
13589.7928686759,604.0
13589.792931173113,603.0
13589.792993670326,603.0
13589.793056167538,586.0
13589.793118664751,587.0
13589.793181161964,558.0
13589.793243659175,593.0
13589.793306156387,630.0
13589.7933686536,601.0
13589.793431150812,582.0
13589.793493648025,584.0
13589.793556145238,581.0
13589.79361864245,505.0
13589.793681139663,536.0
13589.793743636876,518.0
13589.793806134088,507.0
13589.793868631301,523.0
13589.793931128512,538.0
13589.793993625724,532.0
13589.794056122937,549.0
13589.79411862015,520.0
13589.794181117362,462.0
13589.794243614575,519.0
13589.794306111788,575.0
13589.794368609,502.0
13589.794431106213,521.0
13589.794493603426,552.0
13589.794556100638,553.0
13589.794618597849,484.0
13589.794681095062,473.0
13589.794743592274,500.0
13589.794806089487,488.0
13589.7948685867,498.0
13589.794931083912,498.0
13589.794993581125,517.0
13589.795056078337,517.0
13589.79511857555,535.0
13589.795181072763,486.0
13589.795243569975,528.0
13589.795306067186,563.0
13589.795368564399,497.0
13589.795431061611,499.0
13589.795493558824,492.0
13589.795556056037,505.0
13589.79561855325,488.0
13589.795681050462,519.0
13589.795743547675,531.0
13589.795806044887,511.0
13589.7958685421,528.0
13589.795931039313,493.0
13589.795993536523,497.0
13589.796056033736,535.0
13589.796118530949,537.0
13589.796181028161,493.0
13589.796243525374,512.0
13589.796306022587,554.0
13589.7963685198,508.0
13589.796431017012,503.0
13589.796493514224,494.0
13589.796556011437,463.0
13589.79661850865,485.0
13589.79668100586,492.0
13589.796743503073,448.0
13589.796806000286,447.0
13589.796868497499,461.0
13589.796930994711,454.0
13589.796993491924,415.0
13589.797055989136,424.0
13589.797118486349,464.0
13589.797180983562,418.0
13589.797243480774,448.0
13589.797305977987,491.0
13589.797368475198,465.0
13589.79743097241,477.0
13589.797493469623,476.0
13589.797555966836,483.0
13589.797618464048,483.0
13589.797680961261,480.0
13589.797743458474,505.0
13589.797805955686,493.0
13589.797868452899,473.0
13589.797930950112,495.0
13589.797993447324,480.0
13589.798055944535,506.0
13589.798118441748,527.0
13589.79818093896,458.0
13589.798243436173,508.0
13589.798305933386,544.0
13589.798368430598,514.0
13589.79843092781,488.0
13589.798493425023,495.0
13589.798555922236,529.0
13589.798618419449,505.0
13589.798680916661,486.0
13589.798743413872,502.0
13589.798805911085,481.0
13589.798868408297,477.0
13589.79893090551,469.0
13589.798993402723,463.0
13589.799055899935,467.0
13589.799118397148,448.0
13589.79918089436,440.0
13589.799243391573,500.0
13589.799305888786,530.0
13589.799368385999,480.0
13589.79943088321,490.0
13589.799493380422,500.0
13589.799555877635,514.0
13589.799618374847,537.0
13589.79968087206,527.0
13589.799743369273,520.0
13589.799805866485,524.0
13589.799868363698,524.0
13589.79993086091,533.0
13589.799993358123,554.0
13589.800055855336,538.0
13589.800118352547,507.0
13589.80018084976,494.0
13589.800243346972,523.0
13589.800305844185,570.0
13589.800368341397,504.0
13589.80043083861,482.0
13589.800493335822,521.0
13589.800555833035,489.0
13589.800618330248,497.0
13589.80068082746,516.0
13589.800743324671,490.0
13589.800805821884,488.0
13589.800868319096,494.0
13589.80093081631,482.0
13589.800993313522,494.0
13589.801055810734,497.0
13589.801118307947,492.0
13589.80118080516,469.0
13589.801243302372,488.0
13589.801305799585,553.0
13589.801368296798,502.0
13589.80143079401,516.0
13589.801493291221,536.0
13589.801555788434,514.0
13589.801618285646,557.0
13589.801680782859,591.0
13589.801743280072,608.0
13589.801805777284,586.0
13589.801868274497,594.0
13589.80193077171,596.0
13589.801993268922,576.0
13589.802055766135,587.0
13589.802118263346,595.0
13589.802180760558,546.0
13589.80224325777,569.0
13589.802305754984,583.0
13589.802368252196,555.0
13589.802430749409,577.0
13589.802493246621,552.0
13589.802555743834,530.0
13589.802618241047,549.0
13589.80268073826,516.0
13589.802743235472,510.0
13589.802805732683,510.0
13589.802868229895,491.0
13589.802930727108,523.0
13589.80299322432,503.0
13589.803055721533,499.0
13589.803118218746,497.0
13589.803180715959,468.0
13589.803243213171,512.0
13589.803305710384,548.0
13589.803368207597,515.0
13589.80343070481,477.0
13589.80349320202,443.0
13589.803555699233,490.0
13589.803618196445,496.0
13589.803680693658,492.0
13589.80374319087,503.0
13589.803805688083,506.0
13589.803868185296,499.0
13589.803930682509,492.0
13589.803993179721,512.0
13589.804055676934,510.0
13589.804118174146,531.0
13589.804180671357,472.0
13589.80424316857,469.0
13589.804305665783,501.0
13589.804368162995,456.0
13589.804430660208,463.0
13589.80449315742,424.0
13589.804555654633,415.0
13589.804618151846,459.0
13589.804680649058,412.0
13589.804743146271,418.0
13589.804805643484,451.0
13589.804868140694,397.0
13589.804930637907,418.0
13589.80499313512,424.0
13589.805055632332,397.0
13589.805118129545,408.0
13589.805180626758,351.0
13589.80524312397,398.0
13589.805305621183,449.0
13589.805368118396,411.0
13589.805430615608,453.0
13589.80549311282,441.0
13589.805555610032,452.0
13589.805618107244,493.0
13589.805680604457,472.0
13589.80574310167,479.0
13589.805805598882,467.0
13589.805868096095,455.0
13589.805930593307,473.0
13589.80599309052,467.0
13589.806055587733,443.0
13589.806118084945,470.0
13589.806180582158,460.0
13589.806243079369,467.0
13589.806305576582,531.0
13589.806368073794,495.0
13589.806430571007,474.0
13589.80649306822,463.0
13589.806555565432,434.0
13589.806618062645,432.0
13589.806680559857,432.0
13589.80674305707,443.0
13589.806805554283,457.0
13589.806868051495,454.0
13589.806930548706,442.0
13589.806993045919,432.0
13589.807055543131,454.0
13589.807118040344,452.0
13589.807180537557,414.0
13589.80724303477,435.0
13589.807305531982,477.0
13589.807368029195,453.0
13589.807430526407,453.0
13589.80749302362,452.0
13589.807555520832,456.0
13589.807618018043,450.0
13589.807680515256,474.0
13589.807743012469,509.0
13589.807805509681,496.0
13589.807868006894,496.0
13589.807930504106,481.0
13589.80799300132,480.0
13589.808055498532,511.0
13589.808117995744,538.0
13589.808180492957,471.0
13589.80824299017,472.0
13589.80830548738,561.0
13589.808367984593,435.0
13589.808430481806,463.0
13589.808492979018,500.0
13589.808555476231,453.0
13589.808617973444,498.0
13589.808680470656,441.0
13589.808742967869,420.0
13589.808805465082,463.0
13589.808867962294,454.0
13589.808930459507,417.0
13589.808992956718,427.0
13589.80905545393,447.0
13589.809117951143,463.0
13589.809180448356,412.0
13589.809242945568,432.0
13589.80930544278,506.0
13589.809367939994,452.0
13589.809430437206,456.0
13589.809492934419,487.0
13589.809555431631,473.0
13589.809617928844,474.0
13589.809680426055,460.0
13589.809742923268,478.0
13589.80980542048,503.0
13589.809867917693,496.0
13589.809930414905,503.0
13589.809992912118,507.0
13589.81005540933,507.0
13589.810117906543,501.0
13589.810180403756,483.0
13589.810242900969,502.0
13589.810305398181,507.0
13589.810367895392,484.0
13589.810430392605,499.0
13589.810492889817,505.0
13589.81055538703,506.0
13589.810617884243,528.0
13589.810680381455,524.0
13589.810742878668,500.0
13589.81080537588,508.0
13589.810867873093,536.0
13589.810930370306,562.0
13589.810992867519,532.0
13589.81105536473,503.0
13589.811117861942,515.0
13589.811180359155,470.0
13589.811242856367,503.0
13589.81130535358,549.0
13589.811367850793,518.0
13589.811430348005,500.0
13589.811492845218,475.0
13589.81155534243,484.0
13589.811617839643,482.0
13589.811680336854,477.0
13589.811742834067,478.0
13589.81180533128,467.0
13589.811867828492,473.0
13589.811930325704,493.0
13589.811992822917,474.0
13589.81205532013,472.0
13589.812117817342,494.0
13589.812180314555,460.0
13589.812242811768,488.0
13589.81230530898,519.0
13589.812367806193,472.0
13589.812430303404,476.0
13589.812492800616,499.0
13589.812555297829,483.0
13589.812617795042,445.0
13589.812680292254,448.0
13589.812742789467,472.0
13589.81280528668,479.0
13589.812867783892,482.0
13589.812930281105,531.0
13589.812992778317,414.0
13589.813055275528,520.0
13589.813117772741,636.0
13589.813180269954,457.0
13589.813242767166,478.0
13589.813305264379,572.0
13589.813367761592,502.0
13589.813430258804,487.0
13589.813492756017,542.0
13589.81355525323,521.0
13589.813617750442,463.0
13589.813680247655,486.0
13589.813742744866,508.0
13589.813805242078,461.0
13589.81386773929,441.0
13589.813930236503,481.0
13589.813992733716,468.0
13589.814055230929,469.0
13589.814117728141,500.0
13589.814180225354,439.0
13589.814242722567,401.0
13589.81430521978,439.0
13589.814367716992,468.0
13589.814430214203,442.0
13589.814492711415,454.0
13589.814555208628,465.0
13589.81461770584,469.0
13589.814680203053,512.0
13589.814742700266,499.0
13589.814805197479,494.0
13589.814867694691,481.0
13589.814930191904,457.0
13589.814992689116,477.0
13589.81505518633,484.0
13589.81511768354,481.0
13589.815180180753,460.0
13589.815242677965,480.0
13589.815305175178,527.0
13589.81536767239,480.0
13589.815430169603,491.0
13589.815492666816,490.0
13589.815555164028,460.0
13589.815617661241,445.0
13589.815680158454,424.0
13589.815742655666,445.0
13589.815805152877,488.0
13589.81586765009,460.0
13589.815930147302,421.0
13589.815992644515,433.0
13589.816055141728,449.0
13589.81611763894,468.0
13589.816180136153,405.0
13589.816242633366,433.0
13589.816305130578,496.0
13589.81636762779,452.0
13589.816430125004,478.0
13589.816492622214,477.0
13589.816555119427,467.0
13589.81661761664,495.0
13589.816680113852,467.0
13589.816742611065,467.0
13589.816805108278,484.0
13589.81686760549,466.0
13589.816930102703,471.0
13589.816992599915,468.0
13589.817055097128,466.0
13589.81711759434,474.0
13589.817180091552,441.0
13589.817242588764,460.0
13589.817305085977,501.0
13589.81736758319,453.0
13589.817430080402,463.0
13589.817492577615,462.0
13589.817555074827,455.0
13589.81761757204,467.0
13589.817680069253,450.0
13589.817742566465,461.0
13589.817805063678,473.0
13589.817867560889,459.0
13589.817930058101,433.0
13589.817992555314,451.0
13589.818055052527,462.0
13589.81811754974,446.0
13589.818180046952,405.0
13589.818242544165,417.0
13589.818305041377,483.0
13589.81836753859,450.0
13589.818430035803,417.0
13589.818492533015,418.0
13589.818555030226,413.0
13589.818617527439,409.0
13589.818680024651,420.0
13589.818742521864,405.0
13589.818805019077,392.0
13589.81886751629,387.0
13589.818930013502,351.0
13589.818992510714,331.0
13589.819055007927,322.0
13589.81911750514,372.0
13589.819180002352,346.0
13589.819242499563,308.0
13589.819304996776,366.0
13589.819367493988,366.0
13589.819429991201,350.0
13589.819492488414,324.0
13589.819554985626,321.0
13589.819617482839,313.0
13589.819679980052,303.0
13589.819742477264,339.0
13589.819804974477,340.0
13589.81986747169,350.0
13589.8199299689,363.0
13589.819992466113,364.0
13589.820054963326,355.0
13589.820117460538,365.0
13589.820179957751,348.0
13589.820242454964,396.0
13589.820304952176,440.0
13589.820367449389,403.0
13589.820429946602,418.0
13589.820492443814,389.0
13589.820554941027,387.0
13589.820617438238,390.0
13589.82067993545,379.0
13589.820742432663,366.0
13589.820804929876,343.0
13589.820867427088,355.0
13589.8209299243,381.0
13589.820992421513,321.0
13589.821054918726,301.0
13589.821117415939,346.0
13589.821179913151,256.0
13589.821242410364,248.0
13589.821304907575,309.0
13589.821367404787,323.0
13589.821429902,299.0
13589.821492399213,302.0
13589.821554896425,303.0
13589.821617393638,295.0
13589.82167989085,318.0
13589.821742388063,308.0
13589.821804885276,341.0
13589.821867382489,310.0
13589.821929879701,307.0
13589.821992376912,328.0
13589.822054874125,287.0
13589.822117371337,291.0
13589.82217986855,273.0
13589.822242365763,251.0
13589.822304862975,257.0
13589.822367360188,227.0
13589.8224298574,234.0
13589.822492354613,248.0
13589.822554851826,238.0
13589.822617349037,211.0
13589.82267984625,222.0
13589.822742343462,240.0
13589.822804840675,227.0
13589.822867337887,242.0
13589.8229298351,232.0
13589.822992332312,197.0
13589.823054829525,200.0
13589.823117326738,228.0
13589.82317982395,197.0
13589.823242321163,211.0
13589.823304818376,247.0
13589.823367315586,231.0
13589.823429812799,245.0
13589.823492310012,242.0
13589.823554807224,188.0
13589.823617304437,210.0
13589.82367980165,240.0
13589.823742298862,219.0
13589.823804796075,262.0
13589.823867293288,244.0
13589.8239297905,238.0
13589.823992287711,249.0
13589.824054784924,252.0
13589.824117282136,245.0
13589.824179779349,259.0
13589.824242276562,191.0
13589.824304773774,286.0
13589.824367270987,388.0
13589.8244297682,-6.0
13589.824492265412,302.0
13589.824554762625,244.0
13589.824617259837,104.0
13589.824679757048,232.0
13589.82474225426,143.0
13589.824804751473,241.0
13589.824867248686,204.0
13589.824929745899,267.0
13589.824992243111,285.0
13589.825054740324,266.0
13589.825117237537,324.0
13589.82517973475,329.0
13589.825242231962,360.0
13589.825304729175,365.0
13589.825367226385,319.0
13589.825429723598,342.0
13589.82549222081,265.0
13589.825554718023,367.0
13589.825617215236,354.0
13589.825679712449,274.0
13589.825742209661,343.0
13589.825804706874,273.0
13589.825867204087,277.0
13589.8259297013,273.0
13589.825992198512,266.0
13589.826054695723,216.0
13589.826117192935,199.0
13589.826179690148,148.0
13589.82624218736,152.0
13589.826304684573,215.0
13589.826367181786,157.0
13589.826429678998,137.0
13589.826492176211,111.0
13589.826554673424,87.0
13589.826617170636,80.0
13589.826679667849,108.0
13589.82674216506,-2.0
13589.826804662272,203.0
13589.826867159485,18.0
13589.826929656698,-158.0
13589.82699215391,74.0
13589.827054651123,-129.0
13589.827117148336,-61.0
13589.827179645548,-74.0
13589.827242142761,-67.0
13589.827304639974,-68.0
13589.827367137186,-49.0
13589.827429634397,25.0
13589.82749213161,-53.0
13589.827554628822,1.0
13589.827617126035,48.0
13589.827679623248,69.0
13589.82774212046,98.0
13589.827804617673,135.0
13589.827867114886,160.0
13589.827929612098,138.0
13589.82799210931,172.0
13589.828054606523,233.0
13589.828117103734,228.0
13589.828179600947,204.0
13589.82824209816,241.0
13589.828304595372,294.0
13589.828367092585,204.0
13589.828429589797,142.0
13589.82849208701,167.0
13589.828554584223,175.0
13589.828617081435,145.0
13589.828679578648,114.0
13589.82874207586,83.0
13589.828804573071,36.0
13589.828867070284,14.0
13589.828929567497,-33.0
13589.82899206471,-21.0
13589.829054561922,0.0
13589.829117059135,-25.0
13589.829179556347,-62.0
13589.82924205356,-21.0
13589.829304550773,43.0
13589.829367047985,6.0
13589.829429545198,94.0
13589.829492042409,101.0
13589.829554539621,70.0
13589.829617036834,74.0
13589.829679534047,11.0
13589.82974203126,150.0
13589.829804528472,157.0
13589.829867025685,59.0
13589.829929522897,94.0
13589.82999202011,30.0
13589.830054517322,-241.0
13589.830117014535,221.0
13589.830179511746,-109.0
13589.830242008959,-51.0
13589.830304506171,65.0
13589.830367003384,-258.0
13589.830429500596,151.0
13589.830491997809,-175.0
13589.830554495022,-59.0
13589.830616992234,-118.0
13589.830679489447,-155.0
13589.83074198666,55.0
13589.830804483872,-84.0
13589.830866981083,-163.0
13589.830929478296,-170.0
13589.830991975508,88.0
13589.831054472721,-53.0
13589.831116969934,-112.0
13589.831179467146,-49.0
13589.831241964359,-71.0
13589.831304461572,-9.0
13589.831366958784,20.0
13589.831429455997,56.0
13589.83149195321,-39.0
13589.83155445042,-41.0
13589.831616947633,6.0
13589.831679444846,26.0
13589.831741942058,96.0
13589.83180443927,62.0
13589.831866936483,55.0
13589.831929433696,33.0
13589.831991930909,55.0
13589.832054428121,149.0
13589.832116925334,83.0
13589.832179422547,79.0
13589.832241919758,124.0
13589.83230441697,117.0
13589.832366914183,60.0
13589.832429411395,34.0
13589.832491908608,81.0
13589.83255440582,75.0
13589.832616903033,48.0
13589.832679400246,14.0
13589.832741897459,-48.0
13589.832804394671,-13.0
13589.832866891884,-7.0
13589.832929389095,-7.0
13589.832991886307,26.0
13589.83305438352,-78.0
13589.833116880733,-48.0
13589.833179377945,-123.0
13589.833241875158,-73.0
13589.83330437237,22.0
13589.833366869583,-136.0
13589.833429366796,-170.0
13589.833491864008,-176.0
13589.83355436122,-127.0
13589.833616858432,-118.0
13589.833679355645,-73.0
13589.833741852857,-94.0
13589.83380435007,-262.0
13589.833866847282,-222.0
13589.833929344495,-138.0
13589.833991841708,-151.0
13589.83405433892,-142.0
13589.834116836133,-124.0
13589.834179333346,-211.0
13589.834241830558,-232.0
13589.83430432777,-137.0
13589.834366824982,-118.0
13589.834429322194,-119.0
13589.834491819407,-115.0
13589.83455431662,-132.0
13589.834616813832,-113.0
13589.834679311045,-37.0
13589.834741808258,-18.0
13589.83480430547,-19.0
13589.834866802683,-23.0
13589.834929299894,-46.0
13589.834991797106,-20.0
13589.835054294319,9.0
13589.835116791532,22.0
13589.835179288744,-28.0
13589.835241785957,1.0
13589.83530428317,25.0
13589.835366780382,-87.0
13589.835429277595,-75.0
13589.835491774807,-1.0
13589.83555427202,-29.0
13589.835616769231,-98.0
13589.835679266444,-85.0
13589.835741763656,-70.0
13589.835804260869,-71.0
13589.835866758081,-95.0
13589.835929255294,-175.0
13589.835991752507,-179.0
13589.83605424972,-73.0
13589.836116746932,-24.0
13589.836179244145,-67.0
13589.836241741357,-89.0
13589.836304238568,-76.0
13589.83636673578,-79.0
13589.836429232993,-75.0
13589.836491730206,-91.0
13589.836554227419,-48.0
13589.836616724631,27.0
13589.836679221844,-37.0
13589.836741719057,-60.0
13589.83680421627,31.0
13589.836866713482,58.0
13589.836929210695,-15.0
13589.836991707905,-86.0
13589.837054205118,-67.0
13589.83711670233,-49.0
13589.837179199543,-92.0
13589.837241696756,-55.0
13589.837304193969,-63.0
13589.837366691181,-129.0
13589.837429188394,-118.0
13589.837491685606,-109.0
13589.837554182819,-90.0
13589.837616680032,-80.0
13589.837679177243,-125.0
13589.837741674455,-142.0
13589.837804171668,-122.0
13589.83786666888,-68.0
13589.837929166093,-99.0
13589.837991663306,-16.0
13589.838054160518,21.0
13589.838116657731,-64.0
13589.838179154944,-95.0
13589.838241652156,-32.0
13589.838304149369,150.0
13589.83836664658,106.0
13589.838429143792,-133.0
13589.838491641005,-147.0
13589.838554138218,57.0
13589.83861663543,81.0
13589.838679132643,-36.0
13589.838741629856,-175.0
13589.838804127068,-177.0
13589.83886662428,-69.0
13589.838929121493,20.0
13589.838991618706,18.0
13589.839054115917,-64.0
13589.83911661313,-114.0
13589.839179110342,-73.0
13589.839241607555,-8.0
13589.839304104768,-9.0
13589.83936660198,-17.0
13589.839429099193,-43.0
13589.839491596405,-61.0
13589.839554093618,6.0
13589.83961659083,37.0
13589.839679088043,13.0
13589.839741585254,-76.0
13589.839804082467,-108.0
13589.83986657968,-68.0
13589.839929076892,-55.0
13589.839991574105,1.0
13589.840054071317,-3.0
13589.84011656853,-61.0
13589.840179065743,-70.0
13589.840241562955,-84.0
13589.840304060168,-53.0
13589.84036655738,4.0
13589.840429054591,-14.0
13589.840491551804,-54.0
13589.840554049017,-50.0
13589.84061654623,-37.0
13589.840679043442,-36.0
13589.840741540655,-31.0
13589.840804037867,-72.0
13589.84086653508,-124.0
13589.840929032292,-99.0
13589.840991529505,-78.0
13589.841054026718,-60.0
13589.841116523929,-31.0
13589.841179021141,-81.0
13589.841241518354,-116.0
13589.841304015566,-87.0
13589.84136651278,-78.0
13589.841429009992,-67.0
13589.841491507204,-78.0
13589.841554004417,-73.0
13589.84161650163,-85.0
13589.841678998842,-68.0
13589.841741496055,-30.0
13589.841803993266,-152.0
13589.841866490478,0.0
13589.841928987691,38.0
13589.841991484904,-158.0
13589.842053982116,-41.0
13589.842116479329,54.0
13589.842178976542,-22.0
13589.842241473754,-85.0
13589.842303970967,-36.0
13589.84236646818,-26.0
13589.842428965392,-75.0
13589.842491462603,-65.0
13589.842553959816,-78.0
13589.842616457028,-68.0
13589.842678954241,-45.0
13589.842741451454,-103.0
13589.842803948666,-133.0
13589.842866445879,-80.0
13589.842928943091,-97.0
13589.842991440304,-143.0
13589.843053937517,-89.0
13589.84311643473,-37.0
13589.84317893194,-88.0
13589.843241429153,-75.0
13589.843303926365,-34.0
13589.843366423578,-51.0
13589.84342892079,-47.0
13589.843491418003,-43.0
13589.843553915216,-90.0
13589.843616412429,-71.0
13589.843678909641,-23.0
13589.843741406854,-78.0
13589.843803904067,-85.0
13589.843866401277,-81.0
13589.84392889849,-77.0
13589.843991395703,-88.0
13589.844053892915,-75.0
13589.844116390128,-34.0
13589.84417888734,-70.0
13589.844241384553,-67.0
13589.844303881766,-33.0
13589.844366378979,-34.0
13589.844428876191,-41.0
13589.844491373404,-40.0
13589.844553870615,-49.0
13589.844616367827,-74.0
13589.84467886504,-70.0
13589.844741362253,-38.0
13589.844803859465,-10.0
13589.844866356678,-45.0
13589.84492885389,-64.0
13589.844991351103,-57.0
13589.845053848316,-56.0
13589.845116345528,-47.0
13589.845178842741,-65.0
13589.845241339952,-42.0
13589.845303837164,-11.0
13589.845366334377,-49.0
13589.84542883159,-88.0
13589.845491328802,-63.0
13589.845553826015,-54.0
13589.845616323228,-63.0
13589.84567882044,-50.0
13589.845741317653,-42.0
13589.845803814866,-46.0
13589.845866312076,-83.0
13589.845928809289,-75.0
13589.845991306502,-55.0
13589.846053803714,-97.0
13589.846116300927,-37.0
13589.84617879814,-43.0
13589.846241295352,-87.0
13589.846303792565,-56.0
13589.846366289778,-87.0
13589.84642878699,-85.0
13589.846491284203,-101.0
13589.846553781414,-37.0
13589.846616278626,-5.0
13589.846678775839,-93.0
13589.846741273052,-35.0
13589.846803770264,-9.0
13589.846866267477,-30.0
13589.84692876469,-6.0
13589.846991261902,2.0
13589.847053759115,-33.0
13589.847116256327,-57.0
13589.84717875354,-28.0
13589.84724125075,-21.0
13589.847303747963,17.0
13589.847366245176,27.0
13589.847428742389,-22.0
13589.847491239601,-51.0
13589.847553736814,-26.0
13589.847616234027,-12.0
13589.84767873124,-51.0
13589.847741228452,-39.0
13589.847803725665,-20.0
13589.847866222877,-76.0
13589.847928720088,-71.0
13589.8479912173,-43.0
13589.848053714513,-77.0
13589.848116211726,-62.0
13589.848178708939,-85.0
13589.848241206151,-97.0
13589.848303703364,-46.0
13589.848366200576,-59.0
13589.84842869779,-72.0
13589.848491195002,-60.0
13589.848553692214,-87.0
13589.848616189425,-108.0
13589.848678686638,-91.0
13589.84874118385,-75.0
13589.848803681063,-92.0
13589.848866178276,-104.0
13589.848928675488,-114.0
13589.848991172701,-106.0
13589.849053669914,-82.0
13589.849116167126,-93.0
13589.849178664339,-130.0
13589.849241161552,-126.0
13589.849303658762,-128.0
13589.849366155975,-128.0
13589.849428653188,-117.0
13589.8494911504,-132.0
13589.849553647613,-135.0
13589.849616144826,-174.0
13589.849678642038,-164.0
13589.84974113925,-144.0
13589.849803636464,-144.0
13589.849866133676,-113.0
13589.849928630889,-140.0
13589.8499911281,-159.0
13589.850053625312,-130.0
13589.850116122525,-136.0
13589.850178619738,-151.0
13589.85024111695,-115.0
13589.850303614163,-93.0
13589.850366111375,-104.0
13589.850428608588,-109.0
13589.8504911058,-96.0
13589.850553603013,-92.0
13589.850616100226,-100.0
13589.850678597437,-104.0
13589.85074109465,-103.0
13589.850803591862,-119.0
13589.850866089075,-104.0
13589.850928586287,-109.0
13589.8509910835,-111.0
13589.851053580713,-105.0
13589.851116077925,-136.0
13589.851178575138,-154.0
13589.85124107235,-150.0
13589.851303569563,-123.0
13589.851366066774,-101.0
13589.851428563987,-143.0
13589.8514910612,-157.0
13589.851553558412,-122.0
13589.851616055625,-130.0
13589.851678552837,-134.0
13589.85174105005,-122.0
13589.851803547263,-114.0
13589.851866044475,-135.0
13589.851928541688,-134.0
13589.8519910389,-106.0
13589.852053536111,-140.0
13589.852116033324,-146.0
13589.852178530537,-140.0
13589.85224102775,-115.0
13589.852303524962,-118.0
13589.852366022174,-124.0
13589.852428519387,-84.0
13589.8524910166,-201.0
13589.852553513812,-146.0
13589.852616011025,-109.0
13589.852678508238,-113.0
13589.852741005448,-92.0
13589.852803502661,-133.0
13589.852865999874,-86.0
13589.852928497086,-146.0
13589.852990994299,-97.0
13589.853053491512,-99.0
13589.853115988724,-102.0
13589.853178485937,-100.0
13589.85324098315,-143.0
13589.853303480362,-103.0
13589.853365977575,-118.0
13589.853428474786,-96.0
13589.853490971998,-159.0
13589.853553469211,-151.0
13589.853615966424,-145.0
13589.853678463636,-167.0
13589.853740960849,-103.0
13589.853803458062,-87.0
13589.853865955274,-111.0
13589.853928452487,-145.0
13589.8539909497,-142.0
13589.854053446912,-125.0
13589.854115944123,-144.0
13589.854178441336,-185.0
13589.854240938548,-188.0
13589.85430343576,-178.0
13589.854365932973,-180.0
13589.854428430186,-166.0
13589.854490927399,-179.0
13589.854553424611,-176.0
13589.854615921824,-168.0
13589.854678419037,-181.0
13589.85474091625,-163.0
13589.85480341346,-162.0
13589.854865910673,-150.0
13589.854928407885,-155.0
13589.854990905098,-171.0
13589.85505340231,-164.0
13589.855115899523,-184.0
13589.855178396736,-194.0
13589.855240893949,-191.0
13589.855303391161,-161.0
13589.855365888374,-163.0
13589.855428385586,-180.0
13589.855490882797,-175.0
13589.85555338001,-187.0
13589.855615877223,-205.0
13589.855678374435,-212.0
13589.855740871648,-195.0
13589.85580336886,-198.0
13589.855865866073,-203.0
13589.855928363286,-199.0
13589.855990860498,-195.0
13589.856053357711,-157.0
13589.856115854924,-148.0
13589.856178352135,-193.0
13589.856240849347,-198.0
13589.85630334656,-172.0
13589.856365843772,-162.0
13589.856428340985,-172.0
13589.856490838198,-169.0
13589.85655333541,-159.0
13589.856615832623,-163.0
13589.856678329836,-140.0
13589.856740827048,-181.0
13589.856803324259,-201.0
13589.856865821472,-193.0
13589.856928318684,-215.0
13589.856990815897,-190.0
13589.85705331311,-184.0
13589.857115810322,-167.0
13589.857178307535,-187.0
13589.857240804748,-210.0
13589.85730330196,-197.0
13589.857365799173,-203.0
13589.857428296385,-179.0
13589.857490793598,-190.0
13589.857553290809,-208.0
13589.857615788022,-188.0
13589.857678285234,-179.0
13589.857740782447,-195.0
13589.85780327966,-193.0
13589.857865776872,-195.0
13589.857928274085,-188.0
13589.857990771297,-177.0
13589.85805326851,-204.0
13589.858115765723,-199.0
13589.858178262934,-211.0
13589.858240760146,-204.0
13589.858303257359,-170.0
13589.858365754571,-170.0
13589.858428251784,-160.0
13589.858490748997,-162.0
13589.85855324621,-183.0
13589.858615743422,-166.0
13589.858678240635,-191.0
13589.858740737847,-209.0
13589.85880323506,-181.0
13589.85886573227,-206.0
13589.858928229483,-209.0
13589.858990726696,-182.0
13589.859053223909,-174.0
13589.859115721121,-167.0
13589.859178218334,-205.0
13589.859240715547,-218.0
13589.85930321276,-176.0
13589.859365709972,-191.0
13589.859428207184,-202.0
13589.859490704397,-203.0
13589.859553201608,-218.0
13589.85961569882,-202.0
13589.859678196033,-198.0
13589.859740693246,-221.0
13589.859803190458,-212.0
13589.859865687671,-207.0
13589.859928184884,-221.0
13589.859990682096,-225.0
13589.860053179309,-217.0
13589.860115676522,-225.0
13589.860178173734,-264.0
13589.860240670945,-235.0
13589.860303168158,-213.0
13589.86036566537,-230.0
13589.860428162583,-225.0
13589.860490659796,-230.0
13589.860553157008,-218.0
13589.860615654221,-215.0
13589.860678151434,-228.0
13589.860740648646,-224.0
13589.860803145859,-219.0
13589.860865643072,-244.0
13589.860928140282,-248.0
13589.860990637495,-245.0
13589.861053134708,-254.0
13589.86111563192,-244.0
13589.861178129133,-259.0
13589.861240626346,-245.0
13589.861303123558,-184.0
13589.86136562077,-254.0
13589.861428117983,-290.0
13589.861490615196,-267.0
13589.861553112409,-262.0
13589.86161560962,-207.0
13589.861678106832,-256.0
13589.861740604045,-258.0
13589.861803101257,-249.0
13589.86186559847,-273.0
13589.861928095683,-228.0
13589.861990592895,-223.0
13589.862053090108,-256.0
13589.86211558732,-234.0
13589.862178084533,-254.0
13589.862240581746,-250.0
13589.862303078957,-214.0
13589.86236557617,-238.0
13589.862428073382,-250.0
13589.862490570595,-272.0
13589.862553067807,-247.0
13589.86261556502,-222.0
13589.862678062233,-273.0
13589.862740559445,-273.0
13589.862803056658,-241.0
13589.86286555387,-277.0
13589.862928051083,-270.0
13589.862990548294,-261.0
13589.863053045507,-274.0
13589.86311554272,-278.0
13589.863178039932,-306.0
13589.863240537145,-311.0
13589.863303034357,-291.0
13589.86336553157,-283.0
13589.863428028782,-297.0
13589.863490525995,-300.0
13589.863553023208,-292.0
13589.86361552042,-287.0
13589.863678017631,-279.0
13589.863740514844,-296.0
13589.863803012056,-294.0
13589.863865509269,-308.0
13589.863928006482,-310.0
13589.863990503694,-290.0
13589.864053000907,-287.0
13589.86411549812,-296.0
13589.864177995332,-335.0
13589.864240492545,-316.0
13589.864302989758,-273.0
13589.864365486968,-300.0
13589.864427984181,-302.0
13589.864490481394,-295.0
13589.864552978606,-305.0
13589.864615475819,-295.0
13589.864677973032,-257.0
13589.864740470244,-231.0
13589.864802967457,-252.0
13589.86486546467,-280.0
13589.864927961882,-304.0
13589.864990459095,-304.0
13589.865052956306,-296.0
13589.865115453518,-306.0
13589.86517795073,-336.0
13589.865240447944,-307.0
13589.865302945156,-265.0
13589.865365442369,-310.0
13589.865427939581,-320.0
13589.865490436794,-329.0
13589.865552934007,-315.0
13589.86561543122,-315.0
13589.865677928432,-358.0
13589.865740425643,-343.0
13589.865802922855,-324.0
13589.865865420068,-329.0
13589.86592791728,-317.0
13589.865990414493,-301.0
13589.866052911706,-305.0
13589.866115408919,-314.0
13589.866177906131,-351.0
13589.866240403344,-325.0
13589.866302900557,-284.0
13589.86636539777,-321.0
13589.86642789498,-333.0
13589.866490392193,-309.0
13589.866552889405,-289.0
13589.866615386618,-271.0
13589.86667788383,-283.0
13589.866740381043,-299.0
13589.866802878256,-295.0
13589.866865375468,-288.0
13589.866927872681,-271.0
13589.866990369894,-303.0
13589.867052867106,-319.0
13589.867115364317,-325.0
13589.86717786153,-349.0
13589.867240358742,-308.0
13589.867302855955,-266.0
13589.867365353168,-306.0
13589.86742785038,-296.0
13589.867490347593,-269.0
13589.867552844806,-264.0
13589.867615342018,-287.0
13589.867677839231,-299.0
13589.867740336442,-284.0
13589.867802833654,-300.0
13589.867865330867,-298.0
13589.86792782808,-285.0
13589.867990325292,-291.0
13589.868052822505,-301.0
13589.868115319718,-294.0
13589.86817781693,-313.0
13589.868240314143,-322.0
13589.868302811356,-279.0
13589.868365308568,-291.0
13589.86842780578,-307.0
13589.868490302992,-310.0
13589.868552800204,-327.0
13589.868615297417,-333.0
13589.86867779463,-297.0
13589.868740291842,-284.0
13589.868802789055,-313.0
13589.868865286267,-327.0
13589.86892778348,-348.0
13589.868990280693,-365.0
13589.869052777905,-356.0
13589.869115275116,-336.0
13589.869177772329,-365.0
13589.869240269541,-374.0
13589.869302766754,-341.0
13589.869365263967,-372.0
13589.86942776118,-379.0
13589.869490258392,-375.0
13589.869552755605,-368.0
13589.869615252817,-367.0
13589.86967775003,-350.0
13589.869740247243,-349.0
13589.869802744453,-354.0
13589.869865241666,-332.0
13589.869927738879,-341.0
13589.869990236091,-358.0
13589.870052733304,-339.0
13589.870115230517,-311.0
13589.87017772773,-343.0
13589.870240224942,-354.0
13589.870302722155,-346.0
13589.870365219367,-352.0
13589.87042771658,-339.0
13589.87049021379,-348.0
13589.870552711003,-344.0
13589.870615208216,-339.0
13589.870677705429,-351.0
13589.870740202641,-351.0
13589.870802699854,-333.0
13589.870865197066,-309.0
13589.870927694279,-342.0
13589.870990191492,-341.0
13589.871052688704,-291.0
13589.871115185917,-315.0
13589.871177683128,-360.0
13589.87124018034,-322.0
13589.871302677553,-278.0
13589.871365174766,-306.0
13589.871427671978,-324.0
13589.871490169191,-328.0
13589.871552666404,-340.0
13589.871615163616,-339.0
13589.871677660829,-360.0
13589.871740158042,-352.0
13589.871802655254,-324.0
13589.871865152465,-338.0
13589.871927649678,-352.0
13589.87199014689,-351.0
13589.872052644103,-344.0
13589.872115141316,-338.0
13589.872177638528,-358.0
13589.87224013574,-349.0
13589.872302632954,-325.0
13589.872365130166,-343.0
13589.872427627379,-326.0
13589.872490124591,-345.0
13589.872552621802,-368.0
13589.872615119015,-349.0
13589.872677616228,-348.0
13589.87274011344,-351.0
13589.872802610653,-360.0
13589.872865107865,-378.0
13589.872927605078,-377.0
13589.87299010229,-390.0
13589.873052599503,-397.0
13589.873115096716,-382.0
13589.873177593929,-411.0
13589.87324009114,-405.0
13589.873302588352,-356.0
13589.873365085565,-386.0
13589.873427582777,-395.0
13589.87349007999,-366.0
13589.873552577203,-356.0
13589.873615074415,-385.0
13589.873677571628,-378.0
13589.87374006884,-339.0
13589.873802566053,-369.0
13589.873865063266,-369.0
13589.873927560477,-366.0
13589.87399005769,-374.0
13589.874052554902,-372.0
13589.874115052115,-392.0
13589.874177549327,-411.0
13589.87424004654,-389.0
13589.874302543752,-359.0
13589.874365040965,-386.0
13589.874427538178,-382.0
13589.87449003539,-365.0
13589.874552532603,-370.0
13589.874615029814,-360.0
13589.874677527027,-347.0
13589.87474002424,-360.0
13589.874802521452,-363.0
13589.874865018664,-362.0
13589.874927515877,-361.0
13589.87499001309,-372.0
13589.875052510302,-379.0
13589.875115007515,-348.0
13589.875177504728,-394.0
13589.87524000194,-402.0
13589.875302499151,-373.0
13589.875364996364,-406.0
13589.875427493576,-411.0
13589.875489990789,-406.0
13589.875552488002,-414.0
13589.875614985214,-395.0
13589.875677482427,-400.0
13589.87573997964,-422.0
13589.875802476852,-402.0
13589.875864974065,-402.0
13589.875927471277,-413.0
13589.875989968488,-412.0
13589.876052465701,-413.0
13589.876114962914,-422.0
13589.876177460126,-449.0
13589.876239957339,-428.0
13589.876302454551,-375.0
13589.876364951764,-378.0
13589.876427448977,-382.0
13589.87648994619,-397.0
13589.876552443402,-414.0
13589.876614940615,-402.0
13589.876677437825,-406.0
13589.876739935038,-398.0
13589.87680243225,-388.0
13589.876864929463,-391.0
13589.876927426676,-377.0
13589.876989923889,-392.0
13589.877052421101,-406.0
13589.877114918314,-408.0
13589.877177415527,-408.0
13589.87723991274,-401.0
13589.877302409952,-411.0
13589.877364907163,-429.0
13589.877427404375,-432.0
13589.877489901588,-423.0
13589.8775523988,-412.0
13589.877614896013,-423.0
13589.877677393226,-424.0
13589.877739890439,-408.0
13589.877802387651,-363.0
13589.877864884864,-406.0
13589.877927382076,-432.0
13589.877989879289,-416.0
13589.8780523765,-417.0
13589.878114873713,-392.0
13589.878177370925,-422.0
13589.878239868138,-409.0
13589.87830236535,-350.0
13589.878364862563,-361.0
13589.878427359776,-388.0
13589.878489856988,-427.0
13589.878552354201,-395.0
13589.878614851414,-363.0
13589.878677348624,-368.0
13589.878739845837,-344.0
13589.87880234305,-367.0
13589.878864840262,-382.0
13589.878927337475,-407.0
13589.878989834688,-429.0
13589.8790523319,-424.0
13589.879114829113,-429.0
13589.879177326326,-451.0
13589.879239823538,-418.0
13589.87930232075,-405.0
13589.879364817964,-420.0
13589.879427315174,-394.0
13589.879489812387,-395.0
13589.8795523096,-373.0
13589.879614806812,-369.0
13589.879677304025,-361.0
13589.879739801238,-349.0
13589.87980229845,-350.0
13589.879864795663,-376.0
13589.879927292875,-390.0
13589.879989790088,-361.0
13589.880052287299,-375.0
13589.880114784512,-370.0
13589.880177281724,-383.0
13589.880239778937,-380.0
13589.88030227615,-368.0
13589.880364773362,-386.0
13589.880427270575,-368.0
13589.880489767787,-381.0
13589.880552265,-421.0
13589.880614762213,-427.0
13589.880677259425,-415.0
13589.880739756636,-407.0
13589.880802253849,-392.0
13589.880864751061,-422.0
13589.880927248274,-444.0
13589.880989745487,-423.0
13589.8810522427,-437.0
13589.881114739912,-448.0
13589.881177237125,-445.0
13589.881239734337,-430.0
13589.88130223155,-433.0
13589.881364728762,-444.0
13589.881427225973,-424.0
13589.881489723186,-429.0
13589.881552220399,-418.0
13589.881614717611,-431.0
13589.881677214824,-434.0
13589.881739712037,-413.0
13589.88180220925,-441.0
13589.881864706462,-446.0
13589.881927203674,-438.0
13589.881989700887,-433.0
13589.8820521981,-418.0
13589.88211469531,-422.0
13589.882177192523,-454.0
13589.882239689736,-438.0
13589.882302186948,-396.0
13589.882364684161,-403.0
13589.882427181374,-399.0
13589.882489678586,-400.0
13589.882552175799,-414.0
13589.882614673012,-409.0
13589.882677170224,-386.0
13589.882739667437,-398.0
13589.882802164648,-425.0
13589.88286466186,-396.0
13589.882927159073,-391.0
13589.882989656286,-420.0
13589.883052153498,-426.0
13589.883114650711,-434.0
13589.883177147924,-433.0
13589.883239645136,-422.0
13589.883302142349,-402.0
13589.883364639561,-410.0
13589.883427136774,-420.0
13589.883489633985,-417.0
13589.883552131198,-418.0
13589.88361462841,-419.0
13589.883677125623,-419.0
13589.883739622835,-400.0
13589.883802120048,-407.0
13589.88386461726,-425.0
13589.883927114473,-420.0
13589.883989611686,-385.0
13589.884052108899,-399.0
13589.884114606111,-422.0
13589.884177103322,-435.0
13589.884239600535,-414.0
13589.884302097747,-373.0
13589.88436459496,-417.0
13589.884427092173,-408.0
13589.884489589385,-405.0
13589.884552086598,-422.0
13589.88461458381,-406.0
13589.884677081023,-399.0
13589.884739578236,-376.0
13589.884802075449,-396.0
13589.88486457266,-420.0
13589.884927069872,-411.0
13589.884989567085,-438.0
13589.885052064297,-411.0
13589.88511456151,-382.0
13589.885177058723,-436.0
13589.885239555935,-403.0
13589.885302053148,-388.0
13589.88536455036,-445.0
13589.885427047573,-423.0
13589.885489544786,-404.0
13589.885552041997,-419.0
13589.88561453921,-437.0
13589.885677036422,-418.0
13589.885739533634,-406.0
13589.885802030847,-419.0
13589.88586452806,-402.0
13589.885927025272,-404.0
13589.885989522485,-428.0
13589.886052019698,-418.0
13589.88611451691,-415.0
13589.886177014123,-467.0
13589.886239511334,-445.0
13589.886302008546,-387.0
13589.886364505759,-416.0
13589.886427002972,-428.0
13589.886489500184,-405.0
13589.886551997397,-420.0
13589.88661449461,-438.0
13589.886676991822,-422.0
13589.886739489035,-426.0
13589.886801986248,-417.0
13589.88686448346,-390.0
13589.886926980671,-407.0
13589.886989477884,-412.0
13589.887051975096,-408.0
13589.887114472309,-426.0
13589.887176969522,-470.0
13589.887239466734,-450.0
13589.887301963947,-421.0
13589.88736446116,-459.0
13589.887426958372,-439.0
13589.887489455585,-425.0
13589.887551952797,-427.0
13589.887614450008,-437.0
13589.88767694722,-450.0
13589.887739444433,-424.0
13589.887801941646,-404.0
13589.887864438859,-405.0
13589.887926936071,-436.0
13589.887989433284,-429.0
13589.888051930497,-405.0
13589.88811442771,-426.0
13589.888176924922,-464.0
13589.888239422135,-435.0
13589.888301919345,-398.0
13589.888364416558,-458.0
13589.88842691377,-465.0
13589.888489410983,-441.0
13589.888551908196,-451.0
13589.888614405409,-449.0
13589.888676902621,-454.0
13589.888739399834,-454.0
13589.888801897047,-455.0
13589.88886439426,-463.0
13589.888926891472,-459.0
13589.888989388683,-448.0
13589.889051885895,-444.0
13589.889114383108,-440.0
13589.88917688032,-457.0
13589.889239377533,-461.0
13589.889301874746,-432.0
13589.889364371958,-444.0
13589.889426869171,-428.0
13589.889489366384,-442.0
13589.889551863596,-447.0
13589.889614360807,-425.0
13589.88967685802,-457.0
13589.889739355232,-462.0
13589.889801852445,-456.0
13589.889864349658,-445.0
13589.88992684687,-452.0
13589.889989344083,-448.0
13589.890051841296,-450.0
13589.890114338508,-447.0
13589.890176835721,-475.0
13589.890239332934,-490.0
13589.890301830146,-426.0
13589.890364327357,-443.0
13589.89042682457,-451.0
13589.890489321782,-425.0
13589.890551818995,-436.0
13589.890614316208,-442.0
13589.89067681342,-424.0
13589.890739310633,-425.0
13589.890801807845,-429.0
13589.890864305058,-403.0
13589.89092680227,-394.0
13589.890989299482,-425.0
13589.891051796694,-434.0
13589.891114293907,-407.0
13589.89117679112,-440.0
13589.891239288332,-441.0
13589.891301785545,-393.0
13589.891364282757,-435.0
13589.89142677997,-443.0
13589.891489277183,-401.0
13589.891551774395,-410.0
13589.891614271608,-424.0
13589.891676768819,-421.0
13589.891739266031,-431.0
13589.891801763244,-429.0
13589.891864260457,-440.0
13589.89192675767,-461.0
13589.891989254882,-439.0
13589.892051752095,-422.0
13589.892114249307,-414.0
13589.89217674652,-435.0
13589.892239243733,-409.0
13589.892301740945,-403.0
13589.892364238156,-437.0
13589.892426735369,-402.0
13589.892489232581,-440.0
13589.892551729794,-473.0
13589.892614227007,-454.0
13589.89267672422,-471.0
13589.892739221432,-461.0
13589.892801718644,-427.0
13589.892864215857,-438.0
13589.89292671307,-444.0
13589.892989210282,-426.0
13589.893051707493,-453.0
13589.893114204706,-466.0
13589.893176701918,-475.0
13589.893239199131,-458.0
13589.893301696344,-386.0
13589.893364193556,-412.0
13589.893426690769,-450.0
13589.893489187982,-450.0
13589.893551685194,-445.0
13589.893614182407,-455.0
13589.89367667962,-461.0
13589.89373917683,-441.0
13589.893801674043,-426.0
13589.893864171256,-432.0
13589.893926668468,-443.0
13589.893989165681,-448.0
13589.894051662894,-467.0
13589.894114160106,-456.0
13589.894176657319,-468.0
13589.894239154532,-455.0
13589.894301651744,-419.0
13589.894364148957,-479.0
13589.894426646168,-467.0
13589.89448914338,-443.0
13589.894551640593,-448.0
13589.894614137806,-430.0
13589.894676635018,-431.0
13589.89473913223,-432.0
13589.894801629443,-438.0
13589.894864126656,-447.0
13589.894926623869,-442.0
13589.894989121081,-426.0
13589.895051618294,-448.0
13589.895114115505,-446.0
13589.895176612717,-471.0
13589.89523910993,-464.0
13589.895301607143,-419.0
13589.895364104355,-429.0
13589.895426601568,-423.0
13589.89548909878,-460.0
13589.895551595993,-499.0
13589.895614093206,-503.0
13589.895676590419,-481.0
13589.895739087631,-462.0
13589.895801584842,-497.0
13589.895864082055,-526.0
13589.895926579267,-520.0
13589.89598907648,-521.0
13589.896051573693,-517.0
13589.896114070905,-489.0
13589.896176568118,-526.0
13589.89623906533,-521.0
13589.896301562543,-448.0
13589.896364059756,-467.0
13589.896426556968,-475.0
13589.89648905418,-469.0
13589.896551551392,-454.0
13589.896614048605,-454.0
13589.896676545817,-487.0
13589.89673904303,-457.0
13589.896801540242,-463.0
13589.896864037455,-480.0
13589.896926534668,-502.0
13589.89698903188,-523.0
13589.897051529093,-483.0
13589.897114026306,-457.0
13589.897176523516,-498.0
13589.89723902073,-463.0
13589.897301517942,-428.0
13589.897364015154,-473.0
13589.897426512367,-494.0
13589.89748900958,-506.0
13589.897551506792,-507.0
13589.897614004005,-523.0
13589.897676501218,-512.0
13589.89773899843,-514.0
13589.897801495643,-529.0
13589.897863992854,-512.0
13589.897926490066,-499.0
13589.897988987279,-468.0
13589.898051484492,-470.0
13589.898113981704,-482.0
13589.898176478917,-486.0
13589.89823897613,-487.0
13589.898301473342,-475.0
13589.898363970555,-509.0
13589.898426467767,-502.0
13589.89848896498,-467.0
13589.89855146219,-489.0
13589.898613959404,-486.0
13589.898676456616,-466.0
13589.898738953829,-474.0
13589.898801451041,-472.0
13589.898863948254,-466.0
13589.898926445467,-448.0
13589.89898894268,-455.0
13589.899051439892,-448.0
13589.899113937105,-416.0
13589.899176434317,-470.0
13589.899238931528,-472.0
13589.89930142874,-427.0
13589.899363925953,-421.0
13589.899426423166,-403.0
13589.899488920379,-422.0
13589.899551417591,-422.0
13589.899613914804,-432.0
13589.899676412017,-449.0
13589.89973890923,-429.0
13589.899801406442,-408.0
13589.899863903654,-408.0
13589.899926400865,-433.0
13589.899988898078,-411.0
13589.90005139529,-418.0
13589.900113892503,-427.0
13589.900176389716,-426.0
13589.900238886928,-426.0
13589.900301384141,-406.0
13589.900363881354,-426.0
13589.900426378566,-432.0
13589.900488875779,-450.0
13589.900551372992,-471.0
13589.900613870203,-460.0
13589.900676367415,-471.0
13589.900738864628,-471.0
13589.90080136184,-478.0
13589.900863859053,-479.0
13589.900926356266,-466.0
13589.900988853478,-491.0
13589.901051350691,-521.0
13589.901113847904,-496.0
13589.901176345116,-527.0
13589.901238842329,-536.0
13589.90130133954,-475.0
13589.901363836752,-490.0
13589.901426333965,-482.0
13589.901488831178,-446.0
13589.90155132839,-466.0
13589.901613825603,-510.0
13589.901676322816,-487.0
13589.901738820028,-460.0
13589.90180131724,-469.0
13589.901863814453,-475.0
13589.901926311664,-480.0
13589.901988808877,-472.0
13589.90205130609,-463.0
13589.902113803302,-482.0
13589.902176300515,-515.0
13589.902238797727,-461.0
13589.90230129494,-433.0
13589.902363792153,-488.0
13589.902426289365,-491.0
13589.902488786578,-486.0
13589.90255128379,-477.0
13589.902613781003,-464.0
13589.902676278214,-447.0
13589.902738775427,-461.0
13589.90280127264,-475.0
13589.902863769852,-459.0
13589.902926267065,-484.0
13589.902988764277,-520.0
13589.90305126149,-510.0
13589.903113758703,-436.0
13589.903176255915,-446.0
13589.903238753128,-445.0
13589.903301250339,-403.0
13589.903363747551,-550.0
13589.903426244764,-529.0
13589.903488741977,-461.0
13589.90355123919,-469.0
13589.903613736402,-442.0
13589.903676233615,-458.0
13589.903738730827,-495.0
13589.90380122804,-482.0
13589.903863725252,-443.0
13589.903926222465,-433.0
13589.903988719676,-440.0
13589.904051216889,-460.0
13589.904113714101,-474.0
13589.904176211314,-533.0
13589.904238708526,-505.0
13589.90430120574,-432.0
13589.904363702952,-411.0
13589.904426200164,-407.0
13589.904488697377,-435.0
13589.90455119459,-440.0
13589.904613691802,-423.0
13589.904676189013,-444.0
13589.904738686226,-420.0
13589.904801183438,-367.0
13589.904863680651,-415.0
13589.904926177864,-425.0
13589.904988675076,-410.0
13589.905051172289,-418.0
13589.905113669502,-393.0
13589.905176166714,-431.0
13589.905238663927,-422.0
13589.90530116114,-401.0
13589.90536365835,-447.0
13589.905426155563,-439.0
13589.905488652776,-416.0
13589.905551149988,-413.0
13589.9056136472,-420.0
13589.905676144414,-415.0
13589.905738641626,-421.0
13589.905801138839,-419.0
13589.905863636051,-422.0
13589.905926133264,-441.0
13589.905988630477,-435.0
13589.906051127688,-418.0
13589.9061136249,-413.0
13589.906176122113,-449.0
13589.906238619325,-455.0
13589.906301116538,-428.0
13589.90636361375,-432.0
13589.906426110963,-365.0
13589.906488608176,-337.0
13589.906551105389,-248.0
13589.906613602601,867.0
13589.906676099814,3026.0
13589.906738597025,4673.0
13589.906801094237,4978.0
13589.90686359145,4701.0
13589.906926088663,4082.0
13589.906988585875,2780.0
13589.907051083088,1292.0
13589.9071135803,692.0
13589.907176077513,568.0
13589.907238574726,26.0
13589.907301071938,-407.0
13589.907363569151,-467.0
13589.907426066362,-582.0
13589.907488563575,-1015.0
13589.907551060787,-1389.0
13589.907613558,-1519.0
13589.907676055213,-1626.0
13589.907738552425,-1755.0
13589.907801049638,-1391.0
13589.90786354685,-575.0
13589.907926044063,2.0
13589.907988541276,-129.0
13589.908051038488,-671.0
13589.9081135357,-1291.0
13589.908176032912,-2252.0
13589.908238530124,-3316.0
13589.908301027337,-4045.0
13589.90836352455,-4582.0
13589.908426021762,-5312.0
13589.908488518975,-6258.0
13589.908551016188,-7037.0
13589.9086135134,-7237.0
13589.908676010613,-6765.0
13589.908738507826,-5582.0
13589.908801005036,-3895.0
13589.908863502249,-2331.0
13589.908925999462,-1347.0
13589.908988496674,-823.0
13589.909050993887,-325.0
13589.9091134911,184.0
13589.909175988312,454.0
13589.909238485525,488.0
13589.909300982737,433.0
13589.90936347995,121.0
13589.909425977163,-347.0
13589.909488474374,-783.0
13589.909550971586,-1179.0
13589.909613468799,-1613.0
13589.909675966011,-2191.0
13589.909738463224,-2783.0
13589.909800960437,-3072.0
13589.90986345765,-2910.0
13589.909925954862,-2263.0
13589.909988452075,-1239.0
13589.910050949287,-196.0
13589.9101134465,626.0
13589.91017594371,1152.0
13589.910238440923,1420.0
13589.910300938136,1496.0
13589.910363435349,1555.0
13589.910425932561,1508.0
13589.910488429774,1426.0
13589.910550926987,1480.0
13589.9106134242,1031.0
13589.910675921412,916.0
13589.910738418625,671.0
13589.910800915837,153.0
13589.910863413048,-143.0
13589.91092591026,-554.0
13589.910988407473,-685.0
13589.911050904686,-784.0
13589.911113401899,-495.0
13589.911175899111,69.0
13589.911238396324,584.0
13589.911300893536,1127.0
13589.91136339075,1457.0
13589.911425887962,1483.0
13589.911488385174,1526.0
13589.911550882385,1401.0
13589.911613379598,1126.0
13589.91167587681,1094.0
13589.911738374023,917.0
13589.911800871236,680.0
13589.911863368448,445.0
13589.911925865661,165.0
13589.911988362874,-155.0
13589.912050860086,-539.0
13589.912113357299,-851.0
13589.912175854512,-1049.0
13589.912238351722,-1126.0
13589.912300848935,-1004.0
13589.912363346148,-764.0
13589.91242584336,-470.0
13589.912488340573,-71.0
13589.912550837786,175.0
13589.912613334998,287.0
13589.91267583221,329.0
13589.912738329424,251.0
13589.912800826636,150.0
13589.912863323847,84.0
13589.91292582106,-21.0
13589.912988318272,-182.0
13589.913050815485,-304.0
13589.913113312698,-468.0
13589.91317580991,-686.0
13589.913238307123,-856.0
13589.913300804335,-966.0
13589.913363301548,-1089.0
13589.91342579876,-1139.0
13589.913488295973,-1020.0
13589.913550793186,-787.0
13589.913613290397,-533.0
13589.91367578761,-263.0
13589.913738284822,-57.0
13589.913800782035,108.0
13589.913863279247,182.0
13589.91392577646,147.0
13589.913988273673,114.0
13589.914050770885,60.0
13589.914113268098,-3.0
13589.91417576531,-108.0
13589.914238262521,-147.0
13589.914300759734,-182.0
13589.914363256947,-295.0
13589.91442575416,-412.0
13589.914488251372,-485.0
13589.914550748585,-522.0
13589.914613245797,-538.0
13589.91467574301,-488.0
13589.914738240223,-426.0
13589.914800737435,-325.0
13589.914863234648,-190.0
13589.914925731859,-104.0
13589.914988229071,-73.0
13589.915050726284,-95.0
13589.915113223497,-222.0
13589.91517572071,-377.0
13589.915238217922,-510.0
13589.915300715134,-646.0
13589.915363212347,-761.0
13589.91542570956,-838.0
13589.915488206772,-869.0
13589.915550703985,-897.0
13589.915613201196,-931.0
13589.915675698408,-915.0
13589.915738195621,-877.0
13589.915800692834,-807.0
13589.915863190046,-689.0
13589.915925687259,-596.0
13589.915988184472,-504.0
13589.916050681684,-390.0
13589.916113178897,-348.0
13589.91617567611,-375.0
13589.916238173322,-426.0
13589.916300670533,-455.0
13589.916363167746,-553.0
13589.916425664958,-656.0
13589.916488162171,-706.0
13589.916550659384,-786.0
13589.916613156596,-821.0
13589.916675653809,-827.0
13589.916738151021,-829.0
13589.916800648234,-774.0
13589.916863145447,-732.0
13589.91692564266,-703.0
13589.91698813987,-604.0
13589.917050637083,-484.0
13589.917113134296,-358.0
13589.917175631508,-238.0
13589.91723812872,-128.0
13589.917300625933,-79.0
13589.917363123146,-148.0
13589.917425620359,-208.0
13589.917488117571,-238.0
13589.917550614784,-322.0
13589.917613111997,-394.0
13589.917675609207,-451.0
13589.91773810642,-547.0
13589.917800603633,-593.0
13589.917863100845,-625.0
13589.917925598058,-623.0
13589.91798809527,-550.0
13589.918050592483,-493.0
13589.918113089696,-471.0
13589.918175586909,-455.0
13589.918238084121,-396.0
13589.918300581334,-307.0
13589.918363078545,-287.0
13589.918425575757,-199.0
13589.91848807297,-34.0
13589.918550570183,116.0
13589.918613067395,220.0
13589.918675564608,326.0
13589.91873806182,486.0
13589.918800559033,543.0
13589.918863056246,494.0
13589.918925553458,458.0
13589.918988050671,429.0
13589.919050547882,391.0
13589.919113045094,483.0
13589.919175542307,635.0
13589.91923803952,880.0
13589.919300536732,1115.0
13589.919363033945,1136.0
13589.919425531158,1054.0
13589.91948802837,888.0
13589.919550525583,661.0
13589.919613022796,437.0
13589.919675520008,291.0
13589.919738017219,193.0
13589.919800514432,167.0
13589.919863011644,92.0
13589.919925508857,-6.0
13589.91998800607,-158.0
13589.920050503282,-512.0
13589.920113000495,-869.0
13589.920175497708,-1199.0
13589.92023799492,-1354.0
13589.920300492133,-1337.0
13589.920362989345,-1323.0
13589.920425486556,-1401.0
13589.920487983769,-1638.0
13589.920550480982,-2076.0
13589.920612978194,-2723.0
13589.920675475407,-3549.0
13589.92073797262,-4628.0
13589.920800469832,-6140.0
13589.920862967045,-7976.0
13589.920925464257,-9799.0
13589.92098796147,-11496.0
13589.921050458683,-13091.0
13589.921112955893,-14653.0
13589.921175453106,-16101.0
13589.921237950319,-17649.0
13589.921300447531,-18753.0
13589.921362944744,-15491.0
13589.921425441957,-5294.0
13589.92148793917,7085.0
13589.921550436382,13894.0
13589.921612933595,13590.0
13589.921675430807,10590.0
13589.92173792802,7374.0
13589.92180042523,3308.0
13589.921862922443,348.0
13589.921925419656,965.0
13589.921987916869,2823.0
13589.922050414081,2321.0
13589.922112911294,-28.0
13589.922175408507,-913.0
13589.92223790572,-561.0
13589.922300402932,-1891.0
13589.922362900144,-4686.0
13589.922425397357,-6255.0
13589.922487894568,-6043.0
13589.92255039178,-4611.0
13589.922612888993,-1073.0
13589.922675386206,4752.0
13589.922737883418,9429.0
13589.922800380631,9861.0
13589.922862877844,7637.0
13589.922925375056,5237.0
13589.922987872269,2869.0
13589.923050369482,470.0
13589.923112866694,-460.0
13589.923175363905,509.0
13589.923237861118,1482.0
13589.92330035833,963.0
13589.923362855543,304.0
13589.923425352756,780.0
13589.923487849968,946.0
13589.923550347181,-315.0
13589.923612844394,-1604.0
13589.923675341606,-1371.0
13589.923737838819,-182.0
13589.92380033603,1276.0
13589.923862833242,3654.0
13589.923925330455,6577.0
13589.923987827668,7885.0
13589.92405032488,6754.0
13589.924112822093,4627.0
13589.924175319306,3012.0
13589.924237816518,1805.0
13589.92430031373,602.0
13589.924362810943,2.0
13589.924425308156,270.0
13589.924487805369,372.0
13589.92455030258,-309.0
13589.924612799792,-1168.0
13589.924675297005,-1623.0
13589.924737794217,-2014.0
13589.92480029143,-2630.0
13589.924862788643,-2847.0
13589.924925285855,-2182.0
13589.924987783068,-906.0
13589.92505028028,496.0
13589.925112777493,1783.0
13589.925175274704,2729.0
13589.925237771917,2994.0
13589.92530026913,2409.0
13589.925362766342,1498.0
13589.925425263555,913.0
13589.925487760767,651.0
13589.92555025798,520.0
13589.925612755193,408.0
13589.925675252405,261.0
13589.925737749618,36.0
13589.92580024683,-385.0
13589.925862744041,-877.0
13589.925925241254,-1193.0
13589.925987738467,-1280.0
13589.92605023568,-1114.0
13589.926112732892,-657.0
13589.926175230104,14.0
13589.926237727317,1586.0
13589.92630022453,4370.0
13589.926362721742,6865.0
13589.926425218955,7293.0
13589.926487716168,5247.0
13589.926550213379,1909.0
13589.926612710591,-1464.0
13589.926675207804,-3813.0
13589.926737705016,-4183.0
13589.926800202229,-2805.0
13589.926862699442,-1267.0
13589.926925196654,-573.0
13589.926987693867,-521.0
13589.92705019108,-644.0
13589.927112688292,-834.0
13589.927175185505,-1226.0
13589.927237682716,-1478.0
13589.927300179928,-1437.0
13589.927362677141,-1334.0
13589.927425174354,-978.0
13589.927487671566,-114.0
13589.927550168779,867.0
13589.927612665992,915.0
13589.927675163204,-399.0
13589.927737660417,-2255.0
13589.92780015763,-3931.0
13589.927862654842,-4975.0
13589.927925152053,-5066.0
13589.927987649266,-4211.0
13589.928050146478,-2884.0
13589.92811264369,-1829.0
13589.928175140903,-1330.0
13589.928237638116,-1013.0
13589.928300135329,-663.0
13589.928362632541,-500.0
13589.928425129754,-413.0
13589.928487626967,-242.0
13589.92855012418,73.0
13589.92861262139,457.0
13589.928675118603,966.0
13589.928737615815,1517.0
13589.928800113028,1730.0
13589.92886261024,1283.0
13589.928925107453,275.0
13589.928987604666,-814.0
13589.929050101879,-1544.0
13589.929112599091,-1762.0
13589.929175096304,-1486.0
13589.929237593517,-822.0
13589.929300090727,-126.0
13589.92936258794,305.0
13589.929425085153,572.0
13589.929487582365,811.0
13589.929550079578,1009.0
13589.92961257679,1227.0
13589.929675074003,1562.0
13589.929737571216,1816.0
13589.929800068428,1874.0
13589.929862565641,1902.0
13589.929925062854,1762.0
13589.929987560065,1362.0
13589.930050057277,765.0
13589.93011255449,73.0
13589.930175051702,-508.0
13589.930237548915,-928.0
13589.930300046128,-1218.0
13589.93036254334,-1394.0
13589.930425040553,-1506.0
13589.930487537766,-1925.0
13589.930550034978,-2856.0
13589.930612532191,-4308.0
13589.930675029402,-6132.0
13589.930737526614,-8055.0
13589.930800023827,-9850.0
13589.93086252104,-11428.0
13589.930925018252,-12823.0
13589.930987515465,-14213.0
13589.931050012678,-15929.0
13589.93111250989,-18151.0
13589.931175007103,-20946.0
13589.931237504316,-22127.0
13589.931300001528,-18229.0
13589.931362498739,-9169.0
13589.931424995952,1238.0
13589.931487493164,8825.0
13589.931549990377,12210.0
13589.93161248759,11960.0
13589.931674984802,8950.0
13589.931737482015,5162.0
13589.931799979227,3086.0
13589.93186247644,2646.0
13589.931924973653,2237.0
13589.931987470865,1301.0
13589.932049968076,751.0
13589.932112465289,876.0
13589.932174962501,484.0
13589.932237459714,-903.0
13589.932299956927,-2637.0
13589.93236245414,-4298.0
13589.932424951352,-5262.0
13589.932487448565,-4258.0
13589.932549945777,-464.0
13589.93261244299,4757.0
13589.932674940203,8671.0
13589.932737437413,10271.0
13589.932799934626,10100.0
13589.932862431839,8563.0
13589.932924929051,6119.0
13589.932987426264,3966.0
13589.933049923477,3069.0
13589.93311242069,2935.0
13589.933174917902,2691.0
13589.933237415114,2505.0
13589.933299912327,2884.0
13589.93336240954,3289.0
13589.93342490675,3090.0
13589.933487403963,2329.0
13589.933549901176,1672.0
13589.933612398389,1427.0
13589.933674895601,1817.0
13589.933737392814,3390.0
13589.933799890026,5775.0
13589.933862387239,7707.0
13589.933924884452,8307.0
13589.933987381664,7557.0
13589.934049878877,6160.0
13589.934112376088,4675.0
13589.9341748733,3293.0
13589.934237370513,2340.0
13589.934299867726,1797.0
13589.934362364938,1317.0
13589.934424862151,826.0
13589.934487359364,375.0
13589.934549856576,0.0
13589.934612353789,-464.0
13589.934674851002,-1105.0
13589.934737348212,-1662.0
13589.934799845425,-1928.0
13589.934862342638,-1682.0
13589.93492483985,-771.0
13589.934987337063,423.0
13589.935049834276,1387.0
13589.935112331488,1782.0
13589.9351748287,1454.0
13589.935237325913,790.0
13589.935299823126,133.0
13589.935362320339,-353.0
13589.935424817551,-556.0
13589.935487314762,-697.0
13589.935549811975,-930.0
13589.935612309187,-1338.0
13589.9356748064,-1822.0
13589.935737303613,-2261.0
13589.935799800825,-2605.0
13589.935862298038,-2779.0
13589.93592479525,-2828.0
13589.935987292463,-2752.0
13589.936049789676,-2547.0
13589.936112286887,-2139.0
13589.9361747841,-1439.0
13589.936237281312,-701.0
13589.936299778525,-221.0
13589.936362275737,-14.0
13589.93642477295,16.0
13589.936487270163,8.0
13589.936549767375,140.0
13589.936612264588,531.0
13589.9366747618,1120.0
13589.936737259013,1591.0
13589.936799756224,1753.0
13589.936862253437,1678.0
13589.93692475065,1515.0
13589.936987247862,1467.0
13589.937049745075,1518.0
13589.937112242287,1598.0
13589.9371747395,1708.0
13589.937237236712,1809.0
13589.937299733925,1840.0
13589.937362231138,1830.0
13589.93742472835,1832.0
13589.937487225561,1746.0
13589.937549722774,1545.0
13589.937612219986,1133.0
13589.9376747172,656.0
13589.937737214412,343.0
13589.937799711624,209.0
13589.937862208837,238.0
13589.93792470605,265.0
13589.937987203262,192.0
13589.938049700475,110.0
13589.938112197688,30.0
13589.938174694898,-66.0
13589.938237192111,0.0
13589.938299689324,140.0
13589.938362186536,152.0
13589.938424683749,-28.0
13589.938487180962,-437.0
13589.938549678174,-957.0
13589.938612175387,-1817.0
13589.9386746726,-3246.0
13589.938737169812,-5281.0
13589.938799667025,-7723.0
13589.938862164236,-10075.0
13589.938924661448,-11973.0
13589.93898715866,-13489.0
13589.939049655874,-14689.0
13589.939112153086,-15903.0
13589.939174650299,-17546.0
13589.939237147511,-19475.0
13589.939299644724,-21524.0
13589.939362141937,-22757.0
13589.93942463915,-21293.0
13589.939487136362,-16135.0
13589.939549633573,-7926.0
13589.939612130785,1773.0
13589.939674627998,12543.0
13589.93973712521,21780.0
13589.939799622423,23771.0
13589.939862119636,17277.0
13589.939924616849,7239.0
13589.939987114061,-1665.0
13589.940049611274,-7348.0
13589.940112108487,-8270.0
13589.9401746057,-3970.0
13589.94023710291,2001.0
13589.940299600123,4280.0
13589.940362097335,3023.0
13589.940424594548,572.0
13589.94048709176,-2360.0
13589.940549588973,-5134.0
13589.940612086186,-6296.0
13589.940674583399,-3899.0
13589.940737080611,705.0
13589.940799577824,5670.0
13589.940862075036,10613.0
13589.940924572247,14743.0
13589.94098706946,15558.0
13589.941049566673,11825.0
13589.941112063885,5912.0
13589.941174561098,1056.0
13589.94123705831,-1597.0
13589.941299555523,-1983.0
13589.941362052736,232.0
13589.941424549948,4024.0
13589.941487047161,6712.0
13589.941549544374,7012.0
13589.941612041584,5800.0
13589.941674538797,4478.0
13589.94173703601,3376.0
13589.941799533222,2680.0
13589.941862030435,3282.0
13589.941924527648,5384.0
13589.94198702486,7865.0
13589.942049522073,9636.0
13589.942112019286,10575.0
13589.942174516498,10334.0
13589.94223701371,8317.0
13589.942299510922,5055.0
13589.942362008134,2102.0
13589.942424505347,665.0
13589.94248700256,596.0
13589.942549499772,1327.0
13589.942611996985,2248.0
13589.942674494197,2607.0
13589.94273699141,1856.0
13589.942799488623,256.0
13589.942861985835,-1157.0
13589.942924483048,-1824.0
13589.942986980259,-1752.0
13589.943049477472,-1108.0
13589.943111974684,-21.0
13589.943174471897,1152.0
13589.94323696911,2078.0
13589.943299466322,2480.0
13589.943361963535,2150.0
13589.943424460747,1179.0
13589.94348695796,-273.0
13589.943549455173,-1622.0
13589.943611952385,-2317.0
13589.943674449596,-2418.0
13589.943736946809,-2328.0
13589.943799444021,-2308.0
13589.943861941234,-2568.0
13589.943924438447,-3237.0
13589.94398693566,-4162.0
13589.944049432872,-4937.0
13589.944111930085,-5268.0
13589.944174427297,-5220.0
13589.94423692451,-4728.0
13589.944299421722,-3766.0
13589.944361918933,-2777.0
13589.944424416146,-2172.0
13589.944486913359,-2153.0
13589.944549410571,-2473.0
13589.944611907784,-2939.0
13589.944674404996,-3343.0
13589.94473690221,-3486.0
13589.944799399422,-3120.0
13589.944861896634,-2339.0
13589.944924393847,-1684.0
13589.94498689106,-1418.0
13589.94504938827,-1703.0
13589.945111885483,-2420.0
13589.945174382696,-3265.0
13589.945236879908,-3854.0
13589.945299377121,-4017.0
13589.945361874334,-4132.0
13589.945424371546,-4258.0
13589.945486868759,-4199.0
13589.945549365972,-3922.0
13589.945611863184,-3573.0
13589.945674360395,-2779.0
13589.945736857608,-1519.0
13589.94579935482,-247.0
13589.945861852033,523.0
13589.945924349246,1086.0
13589.945986846458,1636.0
13589.94604934367,2065.0
13589.946111840884,2470.0
13589.946174338096,2914.0
13589.946236835309,3215.0
13589.946299332521,3241.0
13589.946361829734,3041.0
13589.946424326945,3041.0
13589.946486824158,3194.0
13589.94654932137,3402.0
13589.946611818583,3683.0
13589.946674315795,3995.0
13589.946736813008,4349.0
13589.94679931022,4624.0
13589.946861807433,4731.0
13589.946924304646,4844.0
13589.946986801859,4906.0
13589.94704929907,4685.0
13589.947111796282,4246.0
13589.947174293495,3786.0
13589.947236790707,3420.0
13589.94729928792,3118.0
13589.947361785133,2841.0
13589.947424282345,2678.0
13589.947486779558,2596.0
13589.94754927677,2458.0
13589.947611773983,2275.0
13589.947674271196,2134.0
13589.947736768407,2080.0
13589.94779926562,1873.0
13589.947861762832,1535.0
13589.947924260045,1112.0
13589.947986757257,448.0
13589.94804925447,-710.0
13589.948111751683,-2375.0
13589.948174248895,-4400.0
13589.948236746108,-6643.0
13589.94829924332,-9201.0
13589.948361740533,-11718.0
13589.948424237744,-13631.0
13589.948486734957,-15214.0
13589.94854923217,-16556.0
13589.948611729382,-17726.0
13589.948674226594,-18915.0
13589.948736723807,-20127.0
13589.94879922102,-20695.0
13589.948861718232,-19575.0
13589.948924215445,-16246.0
13589.948986712658,-10736.0
13589.94904920987,-3579.0
13589.949111707081,3272.0
13589.949174204294,8074.0
13589.949236701506,10677.0
13589.949299198719,10380.0
13589.949361695932,8288.0
13589.949424193144,5774.0
13589.949486690357,2782.0
13589.94954918757,907.0
13589.949611684782,161.0
13589.949674181995,-82.0
13589.949736679207,159.0
13589.949799176418,358.0
13589.949861673631,232.0
13589.949924170844,-656.0
13589.949986668056,-1422.0
13589.950049165269,-1176.0
13589.950111662482,94.0
13589.950174159694,2363.0
13589.950236656907,5403.0
13589.95029915412,8424.0
13589.950361651332,10521.0
13589.950424148545,11235.0
13589.950486645756,10450.0
13589.950549142968,8774.0
13589.95061164018,6725.0
13589.950674137393,4656.0
13589.950736634606,3238.0
13589.950799131819,2862.0
13589.950861629031,3340.0
13589.950924126244,3908.0
13589.950986623457,4341.0
13589.95104912067,4825.0
13589.951111617882,4997.0
13589.951174115093,4930.0
13589.951236612305,5121.0
13589.951299109518,5955.0
13589.95136160673,7228.0
13589.951424103943,8586.0
13589.951486601156,9754.0
13589.951549098369,10449.0
13589.951611595581,10223.0
13589.951674092794,9062.0
13589.951736590006,7383.0
13589.95179908722,5735.0
13589.95186158443,4375.0
13589.951924081643,3418.0
13589.951986578855,3063.0
13589.952049076068,3072.0
13589.95211157328,3000.0
13589.952174070493,2662.0
13589.952236567706,2176.0
13589.952299064918,1626.0
13589.952361562131,1116.0
13589.952424059344,933.0
13589.952486556556,1187.0
13589.952549053767,1695.0
13589.95261155098,2234.0
13589.952674048192,2616.0
13589.952736545405,2720.0
13589.952799042618,2556.0
13589.95286153983,2002.0
13589.952924037043,1113.0
13589.952986534256,124.0
13589.953049031468,-918.0
13589.95311152868,-1886.0
13589.953174025894,-2639.0
13589.953236523104,-3062.0
13589.953299020317,-3364.0
13589.95336151753,-3926.0
13589.953424014742,-4826.0
13589.953486511955,-5751.0
13589.953549009168,-6574.0
13589.95361150638,-7402.0
13589.953674003593,-8301.0
13589.953736500805,-9500.0
13589.953798998018,-11045.0
13589.95386149523,-12766.0
13589.953923992442,-14080.0
13589.953986489654,-14781.0
13589.954048986867,-15143.0
13589.95411148408,-15808.0
13589.954173981292,-17108.0
13589.954236478505,-17522.0
13589.954298975717,-14882.0
13589.95436147293,-8702.0
13589.954423970143,-722.0
13589.954486467355,6263.0
13589.954548964568,9960.0
13589.954611461779,10009.0
13589.954673958991,7571.0
13589.954736456204,4755.0
13589.954798953417,2997.0
13589.95486145063,2235.0
13589.954923947842,1772.0
13589.954986445055,1051.0
13589.955048942267,375.0
13589.95511143948,251.0
13589.955173936693,171.0
13589.955236433905,-14.0
13589.955298931116,-511.0
13589.955361428329,-1324.0
13589.955423925541,-1694.0
13589.955486422754,-607.0
13589.955548919967,2324.0
13589.95561141718,6078.0
13589.955673914392,9027.0
13589.955736411604,10208.0
13589.955798908817,9651.0
13589.95586140603,8073.0
13589.955923903242,6340.0
13589.955986400453,5167.0
13589.956048897666,4785.0
13589.956111394878,4840.0
13589.956173892091,4895.0
13589.956236389304,4929.0
13589.956298886516,5177.0
13589.956361383729,5421.0
13589.956423880942,5429.0
13589.956486378154,5054.0
13589.956548875367,4456.0
13589.95661137258,4026.0
13589.95667386979,4192.0
13589.956736367003,5042.0
13589.956798864216,6396.0
13589.956861361428,7419.0
13589.956923858641,7474.0
13589.956986355854,6570.0
13589.957048853066,5196.0
13589.957111350279,3964.0
13589.957173847492,3024.0
13589.957236344704,2505.0
13589.957298841917,2207.0
13589.957361339128,1781.0
13589.95742383634,1052.0
13589.957486333553,231.0
13589.957548830766,-609.0
13589.957611327978,-1455.0
13589.95767382519,-2326.0
13589.957736322403,-3354.0
13589.957798819616,-4025.0
13589.957861316829,-4319.0
13589.957923814041,-4233.0
13589.957986311252,-4076.0
13589.958048808465,-4549.0
13589.958111305677,-5976.0
13589.95817380289,-8583.0
13589.958236300103,-12033.0
13589.958298797315,-15548.0
13589.958361294528,-18334.0
13589.95842379174,-20167.0
13589.958486288953,-21744.0
13589.958548786166,-23619.0
13589.958611283379,-26317.0
13589.958673780591,-26940.0
13589.958736277802,-21495.0
13589.958798775015,-10821.0
13589.958861272227,349.0
13589.95892376944,8251.0
13589.958986266653,12049.0
13589.959048763865,11875.0
13589.959111261078,8607.0
13589.95917375829,5297.0
13589.959236255503,4417.0
13589.959298752716,4237.0
13589.959361249927,2809.0
13589.95942374714,973.0
13589.959486244352,160.0
13589.959548741565,152.0
13589.959611238777,-333.0
13589.95967373599,-1112.0
13589.959736233202,-1712.0
13589.959798730415,-2623.0
13589.959861227628,-2895.0
13589.95992372484,-682.0
13589.959986222053,4462.0
13589.960048719264,9655.0
13589.960111216476,12510.0
13589.960173713689,13004.0
13589.960236210902,11822.0
13589.960298708114,9262.0
13589.960361205327,6545.0
13589.96042370254,5102.0
13589.960486199752,4950.0
13589.960548696965,4790.0
13589.960611194178,4307.0
13589.96067369139,4166.0
13589.960736188601,4762.0
13589.960798685814,5471.0
13589.960861183026,5610.0
13589.960923680239,5410.0
13589.960986177452,5174.0
13589.961048674664,5074.0
13589.961111171877,5681.0
13589.96117366909,7335.0
13589.961236166302,9358.0
13589.961298663515,10551.0
13589.961361160727,10209.0
13589.961423657938,8937.0
13589.96148615515,7332.0
13589.961548652363,5896.0
13589.961611149576,4957.0
13589.961673646789,4512.0
13589.961736144001,4220.0
13589.961798641214,3819.0
13589.961861138427,3264.0
13589.96192363564,2836.0
13589.961986132852,2415.0
13589.962048630065,1731.0
13589.962111127275,921.0
13589.962173624488,127.0
13589.9622361217,-253.0
13589.962298618913,-102.0
13589.962361116126,532.0
13589.962423613339,1805.0
13589.962486110551,3314.0
13589.962548607764,4333.0
13589.962611104977,4142.0
13589.96267360219,2339.0
13589.962736099402,-598.0
13589.962798596613,-3585.0
13589.962861093825,-5789.0
13589.962923591038,-6811.0
13589.96298608825,-7046.0
13589.963048585463,-7158.0
13589.963111082676,-7742.0
13589.963173579888,-9271.0
13589.963236077101,-11549.0
13589.963298574314,-14118.0
13589.963361071526,-16448.0
13589.963423568739,-18225.0
13589.96348606595,-19617.0
13589.963548563162,-21081.0
13589.963611060375,-22896.0
13589.963673557588,-22637.0
13589.9637360548,-18289.0
13589.963798552013,-10985.0
13589.963861049226,-3574.0
13589.963923546438,2377.0
13589.963986043651,6024.0
13589.964048540864,6927.0
13589.964111038076,5823.0
13589.964173535287,4773.0
13589.9642360325,4495.0
13589.964298529712,3900.0
13589.964361026925,2671.0
13589.964423524138,1655.0
13589.96448602135,1266.0
13589.964548518563,1140.0
13589.964611015776,661.0
13589.964673512988,49.0
13589.9647360102,-806.0
13589.964798507413,-2013.0
13589.964861004624,-2522.0
13589.964923501837,-966.0
13589.96498599905,2453.0
13589.965048496262,5607.0
13589.965110993475,7437.0
13589.965173490687,8048.0
13589.9652359879,7638.0
13589.965298485113,6267.0
13589.965360982325,4771.0
13589.965423479538,4069.0
13589.96548597675,4091.0
13589.965548473961,4134.0
13589.965610971174,4402.0
13589.965673468387,5043.0
13589.9657359656,6050.0
13589.965798462812,6768.0
13589.965860960025,7060.0
13589.965923457237,7061.0
13589.96598595445,6852.0
13589.966048451663,6548.0
13589.966110948875,6669.0
13589.966173446088,7258.0
13589.966235943299,7994.0
13589.966298440511,8309.0
13589.966360937724,7839.0
13589.966423434937,7041.0
13589.96648593215,5996.0
13589.966548429362,5105.0
13589.966610926575,4587.0
13589.966673423787,4478.0
13589.966735921,4482.0
13589.966798418212,4497.0
13589.966860915425,4492.0
13589.966923412636,4451.0
13589.966985909849,4082.0
13589.967048407061,3455.0
13589.967110904274,2722.0
13589.967173401486,1857.0
13589.967235898699,1037.0
13589.967298395912,437.0
13589.967360893124,49.0
13589.967423390337,-163.0
13589.96748588755,-468.0
13589.967548384762,-917.0
13589.967610881973,-1286.0
13589.967673379186,-1681.0
13589.967735876398,-2199.0
13589.967798373611,-2851.0
13589.967860870824,-3605.0
13589.967923368036,-4697.0
13589.967985865249,-6351.0
13589.968048362462,-8572.0
13589.968110859674,-11240.0
13589.968173356887,-14468.0
13589.9682358541,-17692.0
13589.96829835131,-19860.0
13589.968360848523,-20945.0
13589.968423345736,-21502.0
13589.968485842948,-22877.0
13589.96854834016,-25189.0
13589.968610837373,-24736.0
13589.968673334586,-18678.0
13589.968735831799,-8984.0
13589.968798329011,329.0
13589.968860826224,7363.0
13589.968923323435,11048.0
13589.968985820648,10710.0
13589.96904831786,7852.0
13589.969110815073,5816.0
13589.969173312285,5107.0
13589.969235809498,3811.0
13589.96929830671,1565.0
13589.969360803923,-8.0
13589.969423301136,-101.0
13589.969485798349,284.0
13589.969548295561,390.0
13589.969610792774,537.0
13589.969673289985,110.0
13589.969735787197,-1031.0
13589.96979828441,-1338.0
13589.969860781623,1042.0
13589.969923278835,5481.0
13589.969985776048,9251.0
13589.97004827326,11033.0
13589.970110770473,11226.0
13589.970173267686,9902.0
13589.970235764898,7480.0
13589.97029826211,5313.0
13589.970360759322,4315.0
13589.970423256535,4152.0
13589.970485753747,3860.0
13589.97054825096,3830.0
13589.970610748172,4605.0
13589.970673245385,6031.0
13589.970735742598,7201.0
13589.97079823981,7722.0
13589.970860737023,7690.0
13589.970923234236,7329.0
13589.970985731446,6993.0
13589.97104822866,7458.0
13589.971110725872,8686.0
13589.971173223084,9722.0
13589.971235720297,9645.0
13589.97129821751,8509.0
13589.971360714722,6917.0
13589.971423211935,5366.0
13589.971485709148,4260.0
13589.97154820636,3720.0
13589.971610703573,3489.0
13589.971673200784,3338.0
13589.971735697996,3318.0
13589.971798195209,3529.0
13589.971860692422,3774.0
13589.971923189634,3610.0
13589.971985686847,2946.0
13589.97204818406,1898.0
13589.972110681272,795.0
13589.972173178485,31.0
13589.972235675697,61.0
13589.97229817291,754.0
13589.97236067012,1191.0
13589.972423167334,943.0
13589.972485664546,151.0
13589.972548161759,-910.0
13589.972610658971,-2012.0
13589.972673156184,-3023.0
13589.972735653397,-3769.0
13589.97279815061,-4386.0
13589.972860647822,-5382.0
13589.972923145035,-6927.0
13589.972985642247,-8910.0
13589.973048139458,-11314.0
13589.97311063667,-14057.0
13589.973173133883,-16854.0
13589.973235631096,-19165.0
13589.973298128309,-20552.0
13589.973360625521,-21436.0
13589.973423122734,-22476.0
13589.973485619947,-24542.0
13589.97354811716,-25265.0
13589.973610614372,-21199.0
13589.973673111585,-12670.0
13589.973735608795,-3184.0
13589.973798106008,4594.0
13589.97386060322,9699.0
13589.973923100433,11259.0
13589.973985597646,9505.0
13589.974048094859,7030.0
13589.974110592071,5946.0
13589.974173089284,4942.0
13589.974235586496,2792.0
13589.974298083709,665.0
13589.974360580922,-63.0
13589.974423078133,121.0
13589.974485575345,38.0
13589.974548072558,-188.0
13589.97461056977,-327.0
13589.974673066983,-1099.0
13589.974735564196,-1683.0
13589.974798061408,-386.0
13589.974860558621,3471.0
13589.974923055834,7610.0
13589.974985553046,10073.0
13589.975048050259,10687.0
13589.97511054747,10107.0
13589.975173044682,8362.0
13589.975235541895,6226.0
13589.975298039108,4751.0
13589.97536053632,4358.0
13589.975423033533,4270.0
13589.975485530746,4160.0
13589.975548027958,4440.0
13589.97561052517,5445.0
13589.975673022383,6713.0
13589.975735519596,7448.0
13589.975798016807,7511.0
13589.97586051402,7268.0
13589.975923011232,7101.0
13589.975985508445,7178.0
13589.976048005658,7887.0
13589.97611050287,8791.0
13589.976173000083,9246.0
13589.976235497295,8724.0
13589.976297994508,7495.0
13589.97636049172,6074.0
13589.976422988933,5000.0
13589.976485486144,4408.0
13589.976547983357,4258.0
13589.97661048057,4201.0
13589.976672977782,4107.0
13589.976735474995,3884.0
13589.976797972207,3474.0
13589.97686046942,2984.0
13589.976922966633,2306.0
13589.976985463845,1623.0
13589.977047961058,992.0
13589.97711045827,449.0
13589.977172955481,170.0
13589.977235452694,336.0
13589.977297949907,613.0
13589.97736044712,457.0
13589.977422944332,-9.0
13589.977485441545,-618.0
13589.977547938757,-1376.0
13589.97761043597,-2201.0
13589.977672933182,-2916.0
13589.977735430395,-3583.0
13589.977797927608,-4448.0
13589.977860424819,-5998.0
13589.977922922031,-8124.0
13589.977985419244,-10462.0
13589.978047916456,-12948.0
13589.97811041367,-15777.0
13589.978172910882,-18516.0
13589.978235408094,-20302.0
13589.978297905307,-21177.0
13589.97836040252,-21833.0
13589.978422899732,-23295.0
13589.978485396945,-25037.0
13589.978547894156,-23707.0
13589.978610391368,-17615.0
13589.978672888581,-8434.0
13589.978735385794,672.0
13589.978797883006,7728.0
13589.978860380219,11356.0
13589.978922877432,10813.0
13589.978985374644,7913.0
13589.979047871857,5565.0
13589.97911036907,4377.0
13589.979172866282,2980.0
13589.979235363493,1234.0
13589.979297860706,252.0
13589.979360357918,215.0
13589.97942285513,302.0
13589.979485352344,127.0
13589.979547849556,222.0
13589.979610346769,-74.0
13589.979672843981,-944.0
13589.979735341194,-943.0
13589.979797838407,1406.0
13589.979860335618,5462.0
13589.97992283283,8945.0
13589.979985330043,10855.0
13589.980047827255,11116.0
13589.980110324468,9787.0
13589.98017282168,7368.0
13589.980235318893,5076.0
13589.980297816106,3987.0
13589.980360313319,3728.0
13589.980422810531,3655.0
13589.980485307744,3883.0
13589.980547804957,4796.0
13589.980610302167,6365.0
13589.98067279938,7654.0
13589.980735296593,8205.0
13589.980797793805,8105.0
13589.980860291018,7547.0
13589.98092278823,6953.0
13589.980985285443,6981.0
13589.981047782656,7790.0
13589.981110279869,8703.0
13589.981172777081,8871.0
13589.981235274292,8072.0
13589.981297771505,6842.0
13589.981360268717,5438.0
13589.98142276593,4452.0
13589.981485263143,4005.0
13589.981547760355,3936.0
13589.981610257568,3974.0
13589.98167275478,4018.0
13589.981735251993,4052.0
13589.981797749206,3966.0
13589.981860246418,3574.0
13589.98192274363,2859.0
13589.981985240842,1885.0
13589.982047738054,803.0
13589.982110235267,54.0
13589.98217273248,-201.0
13589.982235229692,-36.0
13589.982297726905,136.0
13589.982360224118,-135.0
13589.98242272133,-729.0
13589.982485218543,-1408.0
13589.982547715756,-1937.0
13589.982610212966,-2175.0
13589.982672710179,-2371.0
13589.982735207392,-2750.0
13589.982797704604,-3667.0
13589.982860201817,-5260.0
13589.98292269903,-7510.0
13589.982985196242,-10276.0
13589.983047693455,-13421.0
13589.983110190668,-16776.0
13589.98317268788,-19823.0
13589.983235185093,-21651.0
13589.983297682304,-22052.0
13589.983360179516,-21736.0
13589.983422676729,-22314.0
13589.983485173942,-24052.0
13589.983547671154,-23999.0
13589.983610168367,-19224.0
13589.98367266558,-10929.0
13589.983735162792,-1798.0
13589.983797660005,6312.0
13589.983860157217,11539.0
13589.98392265443,12082.0
13589.98398515164,9311.0
13589.984047648853,6960.0
13589.984110146066,5668.0
13589.984172643279,3852.0
13589.984235140491,1226.0
13589.984297637704,-525.0
13589.984360134917,-1020.0
13589.98442263213,-977.0
13589.984485129342,-644.0
13589.984547626555,299.0
13589.984610123767,755.0
13589.984672620978,-99.0
13589.98473511819,-923.0
13589.984797615403,634.0
13589.984860112616,4121.0
13589.984922609829,7696.0
13589.984985107041,9948.0
13589.985047604254,10898.0
13589.985110101466,10168.0
13589.98517259868,8017.0
13589.985235095892,5645.0
13589.985297593104,4409.0
13589.985360090315,4036.0
13589.985422587528,3832.0
13589.98548508474,3710.0
13589.985547581953,4353.0
13589.985610079166,5775.0
13589.985672576378,7254.0
13589.985735073591,8237.0
13589.985797570804,8515.0
13589.985860068016,8153.0
13589.985922565229,7407.0
13589.985985062442,7070.0
13589.986047559652,7449.0
13589.986110056865,8246.0
13589.986172554078,8649.0
13589.98623505129,8433.0
13589.986297548503,7596.0
13589.986360045716,6356.0
13589.986422542928,5213.0
13589.98648504014,4515.0
13589.986547537354,4062.0
13589.986610034566,3709.0
13589.986672531779,3515.0
13589.98673502899,3550.0
13589.986797526202,3666.0
13589.986860023415,3640.0
13589.986922520628,3397.0
13589.98698501784,2814.0
13589.987047515053,1892.0
13589.987110012265,799.0
13589.987172509478,107.0
13589.98723500669,80.0
13589.987297503903,290.0
13589.987360001116,202.0
13589.987422498327,-78.0
13589.98748499554,-517.0
13589.987547492752,-1205.0
13589.987609989965,-2144.0
13589.987672487177,-3017.0
13589.98773498439,-3848.0
13589.987797481603,-4964.0
13589.987859978815,-6409.0
13589.987922476028,-8039.0
13589.98798497324,-9769.0
13589.988047470453,-11669.0
13589.988109967664,-13996.0
13589.988172464877,-16493.0
13589.98823496209,-18413.0
13589.988297459302,-19561.0
13589.988359956515,-20525.0
13589.988422453727,-21632.0
13589.98848495094,-23918.0
13589.988547448153,-25914.0
13589.988609945365,-24114.0
13589.988672442578,-17236.0
13589.98873493979,-7714.0
13589.988797437001,1276.0
13589.988859934214,8114.0
13589.988922431427,11375.0
13589.98898492864,10609.0
13589.989047425852,8042.0
13589.989109923064,6300.0
13589.989172420277,4886.0
13589.98923491749,2626.0
13589.989297414702,479.0
13589.989359911915,-459.0
13589.989422409128,-168.0
13589.989484906338,219.0
13589.989547403551,383.0
13589.989609900764,418.0
13589.989672397976,-523.0
13589.989734895189,-1898.0
13589.989797392402,-1850.0
13589.989859889614,932.0
13589.989922386827,4927.0
13589.98998488404,8166.0
13589.990047381252,9877.0
13589.990109878465,10179.0
13589.990172375676,8937.0
13589.990234872888,6912.0
13589.990297370101,5353.0
13589.990359867314,4678.0
13589.990422364526,4373.0
13589.990484861739,4108.0
13589.990547358952,4298.0
13589.990609856164,5454.0
13589.990672353377,7106.0
13589.99073485059,8313.0
13589.9907973478,8737.0
13589.990859845013,8338.0
13589.990922342226,7507.0
13589.990984839438,6836.0
13589.99104733665,7035.0
13589.991109833863,8041.0
13589.991172331076,9007.0
13589.991234828289,9115.0
13589.991297325501,8383.0
13589.991359822714,7011.0
13589.991422319927,5665.0
13589.99148481714,4775.0
13589.99154731435,4289.0
13589.991609811563,4063.0
13589.991672308775,3876.0
13589.991734805988,3818.0
13589.9917973032,3839.0
13589.991859800413,3754.0
13589.991922297626,3360.0
13589.991984794839,2611.0
13589.992047292051,1425.0
13589.992109789264,160.0
13589.992172286475,-755.0
13589.992234783687,-867.0
13589.9922972809,-139.0
13589.992359778113,582.0
13589.992422275325,779.0
13589.992484772538,372.0
13589.99254726975,-644.0
13589.992609766963,-1924.0
13589.992672264176,-3040.0
13589.992734761388,-3894.0
13589.992797258601,-4702.0
13589.992859755812,-5724.0
13589.992922253025,-7145.0
13589.992984750237,-9012.0
13589.99304724745,-11338.0
13589.993109744662,-13977.0
13589.993172241875,-16742.0
13589.993234739088,-19251.0
13589.9932972363,-21199.0
13589.993359733513,-22512.0
13589.993422230726,-23262.0
13589.993484727938,-24339.0
13589.993547225149,-25464.0
13589.993609722362,-23687.0
13589.993672219574,-17710.0
13589.993734716787,-9554.0
13589.993797214,-1305.0
13589.993859711212,5754.0
13589.993922208425,9911.0
13589.993984705638,10238.0
13589.99404720285,8399.0
13589.994109700063,6900.0
13589.994172197275,5599.0
13589.994234694486,3329.0
13589.994297191699,1021.0
13589.994359688912,-144.0
13589.994422186124,-485.0
13589.994484683337,-647.0
13589.99454718055,-691.0
13589.994609677762,-386.0
13589.994672174975,-623.0
13589.994734672187,-1427.0
13589.9947971694,-1204.0
13589.994859666613,972.0
13589.994922163824,4401.0
13589.994984661036,7473.0
13589.995047158249,9375.0
13589.995109655461,10220.0
13589.995172152674,9715.0
13589.995234649887,8244.0
13589.9952971471,6712.0
13589.995359644312,5640.0
13589.995422141525,4844.0
13589.995484638737,4213.0
13589.99554713595,4133.0
13589.99560963316,4894.0
13589.995672130373,6189.0
13589.995734627586,7380.0
13589.995797124799,8022.0
13589.995859622011,7997.0
13589.995922119224,7568.0
13589.995984616437,7258.0
13589.99604711365,7485.0
13589.996109610862,8186.0
13589.996172108074,8875.0
13589.996234605287,9071.0
13589.996297102498,8536.0
13589.99635959971,7371.0
13589.996422096923,6049.0
13589.996484594136,5233.0
13589.996547091348,4892.0
13589.996609588561,4643.0
13589.996672085774,4392.0
13589.996734582986,4239.0
13589.996797080199,4096.0
13589.996859577412,3827.0
13589.996922074624,3371.0
13589.996984571835,2892.0
13589.997047069048,2179.0
13589.99710956626,1243.0
13589.997172063473,340.0
13589.997234560686,26.0
13589.997297057898,271.0
13589.997359555111,492.0
13589.997422052324,404.0
13589.997484549536,-73.0
13589.997547046749,-753.0
13589.997609543962,-1608.0
13589.997672041172,-2426.0
13589.997734538385,-2960.0
13589.997797035598,-3335.0
13589.99785953281,-3957.0
13589.997922030023,-4913.0
13589.997984527236,-6212.0
13589.998047024448,-8008.0
13589.99810952166,-10406.0
13589.998172018873,-13260.0
13589.998234516086,-16196.0
13589.998297013299,-18496.0
13589.99835951051,-20004.0
13589.998422007722,-20777.0
13589.998484504935,-21199.0
13589.998547002147,-22153.0
13589.99860949936,-24613.0
13589.998671996573,-26260.0
13589.998734493785,-23438.0
13589.998796990998,-15937.0
13589.99885948821,-6706.0
13589.998921985423,2180.0
13589.998984482636,9053.0
13589.999046979847,12058.0
13589.99910947706,10940.0
13589.999171974272,8422.0
13589.999234471485,6646.0
13589.999296968697,4800.0
13589.99935946591,1940.0
13589.999421963123,-498.0
13589.999484460335,-1400.0
13589.999546957548,-1322.0
13589.99960945476,-1008.0
13589.999671951973,-532.0
13589.999734449184,-169.0
13589.999796946397,-856.0
13589.99985944361,-1929.0
13589.999921940822,-1371.0
13589.999984438035,1625.0
13590.000046935247,5482.0
13590.00010943246,8444.0
13590.000171929672,10024.0
13590.000234426885,10493.0
13590.000296924098,9545.0
13590.00035942131,7853.0
13590.000421918521,6502.0
13590.000484415734,5853.0
13590.000546912946,5240.0
13590.000609410159,4647.0
13590.000671907372,4691.0
13590.000734404584,5725.0
13590.000796901797,7070.0
13590.00085939901,8046.0
13590.000921896222,8357.0
13590.000984393435,8078.0
13590.001046890648,7381.0
13590.001109387858,6817.0
13590.001171885071,7002.0
13590.001234382284,7702.0
13590.001296879496,8201.0
13590.001359376709,7997.0
13590.001421873922,7379.0
13590.001484371134,6410.0
13590.001546868347,5425.0
13590.00160936556,4734.0
13590.001671862772,4491.0
13590.001734359985,4365.0
13590.001796857196,4215.0
13590.001859354408,4196.0
13590.00192185162,4312.0
13590.001984348834,4211.0
13590.002046846046,3761.0
13590.002109343259,2913.0
13590.002171840471,1861.0
13590.002234337684,762.0
13590.002296834897,-55.0
13590.00235933211,-262.0
13590.002421829322,39.0
13590.002484326533,234.0
13590.002546823745,49.0
13590.002609320958,-346.0
13590.00267181817,-926.0
13590.002734315383,-1729.0
13590.002796812596,-2668.0
13590.002859309809,-3443.0
13590.002921807021,-4159.0
13590.002984304234,-5102.0
13590.003046801447,-6410.0
13590.003109298657,-8072.0
13590.00317179587,-10116.0
13590.003234293083,-12477.0
13590.003296790295,-15076.0
13590.003359287508,-17635.0
13590.00342178472,-19579.0
13590.003484281933,-20631.0
13590.003546779146,-21167.0
13590.003609276358,-21718.0
13590.003671773571,-23447.0
13590.003734270784,-25839.0
13590.003796767995,-25614.0
13590.003859265207,-20487.0
13590.00392176242,-11669.0
13590.003984259632,-2233.0
13590.004046756845,5795.0
13590.004109254058,10616.0
13590.00417175127,11488.0
13590.004234248483,9670.0
13590.004296745696,7783.0
13590.004359242908,5995.0
13590.004421740121,3565.0
13590.004484237332,923.0
13590.004546734544,-688.0
13590.004609231757,-1080.0
13590.00467172897,-659.0
13590.004734226182,-229.0
13590.004796723395,16.0
13590.004859220608,-533.0
13590.00492171782,-1681.0
13590.004984215033,-2186.0
13590.005046712246,-332.0
13590.005109209458,3287.0
13590.005171706669,6903.0
13590.005234203882,9428.0
13590.005296701094,10790.0
13590.005359198307,10545.0
13590.00542169552,9126.0
13590.005484192732,7471.0
13590.005546689945,6298.0
13590.005609187157,5375.0
13590.00567168437,4551.0
13590.005734181583,4326.0
13590.005796678795,4897.0
13590.005859176006,6162.0
13590.005921673219,7539.0
13590.005984170431,8334.0
13590.006046667644,8329.0
13590.006109164857,7806.0
13590.00617166207,7133.0
13590.006234159282,7001.0
13590.006296656495,7454.0
13590.006359153707,7971.0
13590.00642165092,8127.0
13590.006484148133,7748.0
13590.006546645343,6948.0
13590.006609142556,6141.0
13590.006671639769,5606.0
13590.006734136981,5191.0
13590.006796634194,4716.0
13590.006859131407,4194.0
13590.00692162862,3920.0
13590.006984125832,4041.0
13590.007046623045,4357.0
13590.007109120257,4518.0
13590.00717161747,4259.0
13590.00723411468,3406.0
13590.007296611893,2018.0
13590.007359109106,561.0
13590.007421606319,-269.0
13590.007484103531,-392.0
13590.007546600744,-262.0
13590.007609097956,-192.0
13590.007671595169,-355.0
13590.007734092382,-639.0
13590.007796589594,-1129.0
13590.007859086807,-1734.0
13590.007921584018,-2376.0
13590.00798408123,-3144.0
13590.008046578443,-4257.0
13590.008109075656,-5560.0
13590.008171572868,-6944.0
13590.008234070081,-8385.0
13590.008296567294,-10188.0
13590.008359064506,-12759.0
13590.008421561719,-15756.0
13590.008484058932,-18755.0
13590.008546556144,-20794.0
13590.008609053355,-21559.0
13590.008671550568,-21664.0
13590.00873404778,-22020.0
13590.008796544993,-23801.0
13590.008859042206,-26354.0
13590.008921539418,-25856.0
13590.00898403663,-19728.0
13590.009046533844,-9605.0
13590.009109031056,834.0
13590.009171528269,8844.0
13590.009234025481,12680.0
13590.009296522692,12324.0
13590.009359019905,9608.0
13590.009421517118,6975.0
13590.00948401433,4956.0
13590.009546511543,2725.0
13590.009609008755,388.0
13590.009671505968,-1412.0
13590.00973400318,-1864.0
13590.009796500393,-1196.0
13590.009858997606,-381.0
13590.009921494819,-233.0
13590.00998399203,-1115.0
13590.010046489242,-2338.0
13590.010108986455,-2378.0
13590.010171483667,-245.0
13590.01023398088,3879.0
13590.010296478093,8119.0
13590.010358975305,10813.0
13590.010421472518,11280.0
13590.01048396973,10133.0
13590.010546466943,8292.0
13590.010608964156,6530.0
13590.010671461367,5202.0
13590.01073395858,4480.0
13590.010796455792,4099.0
13590.010858953005,4132.0
13590.010921450217,4849.0
13590.01098394743,6368.0
13590.011046444642,7959.0
13590.011108941855,8678.0
13590.011171439068,8370.0
13590.01123393628,7437.0
13590.011296433493,6708.0
13590.011358930704,6661.0
13590.011421427917,7329.0
13590.01148392513,8222.0
13590.011546422342,8665.0
13590.011608919554,8380.0
13590.011671416767,7510.0
13590.01173391398,6511.0
13590.011796411192,5673.0
13590.011858908405,4965.0
13590.011921405618,4446.0
13590.01198390283,3994.0
13590.012046400041,3727.0
13590.012108897254,3764.0
13590.012171394466,3904.0
13590.012233891679,3946.0
13590.012296388892,3498.0
13590.012358886104,2355.0
13590.012421383317,908.0
13590.01248388053,-264.0
13590.012546377742,-820.0
13590.012608874955,-722.0
13590.012671372167,-371.0
13590.012733869378,-140.0
13590.012796366591,-176.0
13590.012858863804,-507.0
13590.012921361016,-912.0
13590.012983858229,-1375.0
13590.013046355441,-2063.0
13590.013108852654,-3036.0
13590.013171349867,-4327.0
13590.01323384708,-5923.0
13590.013296344292,-7621.0
13590.013358841505,-9431.0
13590.013421338715,-11442.0
13590.013483835928,-13953.0
13590.01354633314,-16734.0
13590.013608830353,-19083.0
13590.013671327566,-20469.0
