0,1,2,3,4
18198.6276110943,1.1863453388214111,1.172096848487854,1.564252495765686,1.3916521072387695
18198.629611156626,1.186669111251831,1.1729063987731934,1.564576268196106,1.3916521072387695
18198.631611218952,1.1878025531768799,1.1732302904129028,1.564738154411316,1.392137885093689
18198.63361128128,1.1860214471817017,1.1722588539123535,1.564414381980896,1.3913283348083496
18198.635611343605,1.1861833333969116,1.172096848487854,1.5639286041259766,1.3905187845230103
18198.63761140593,1.1861833333969116,1.1724207401275635,1.5640904903411865,1.3910044431686401
18198.639611468257,1.1856976747512817,1.1722588539123535,1.5637667179107666,1.3910044431686401
18198.641611530584,1.1847261190414429,1.1722588539123535,1.5636048316955566,1.3911664485931396
18198.64361159291,1.186669111251831,1.1727445125579834,1.5629571676254272,1.3908425569534302
18198.645611655236,1.1858595609664917,1.1729063987731934,1.5629571676254272,1.3910044431686401
18198.647611717563,1.1856976747512817,1.1732302904129028,1.564252495765686,1.3914902210235596
18198.64961177989,1.1861833333969116,1.1729063987731934,1.564414381980896,1.3911664485931396
18198.651611842215,1.1869930028915405,1.171934962272644,1.564414381980896,1.3910044431686401
18198.653611904538,1.1853737831115723,1.1711254119873047,1.5637667179107666,1.3906806707382202
18198.655611966864,1.1847261190414429,1.1714491844177246,1.5632809400558472,1.3898711204528809
18198.65761202919,1.1853737831115723,1.172096848487854,1.5631190538406372,1.3900330066680908
18198.659612091516,1.184564232826233,1.172096848487854,1.5631190538406372,1.3900330066680908
18198.661612153843,1.1840784549713135,1.1722588539123535,1.5632809400558472,1.389709234237671
18198.66361221617,1.1863453388214111,1.171934962272644,1.5631190538406372,1.3905187845230103
18198.665612278495,1.1860214471817017,1.1725826263427734,1.5637667179107666,1.3906806707382202
18198.66761234082,1.1850500106811523,1.1714491844177246,1.5634428262710571,1.3905187845230103
18198.669612403148,1.1847261190414429,1.1722588539123535,1.5631190538406372,1.3910044431686401
18198.671612465474,1.1856976747512817,1.172096848487854,1.5639286041259766,1.392137885093689
18198.6736125278,1.184240460395813,1.1727445125579834,1.5637667179107666,1.3908425569534302
18198.675612590127,1.1848881244659424,1.1732302904129028,1.5636048316955566,1.3901948928833008
18198.677612652453,1.1847261190414429,1.1733921766281128,1.5632809400558472,1.3905187845230103
18198.67961271478,1.1852118968963623,1.1725826263427734,1.5627951622009277,1.3906806707382202
18198.681612777105,1.184402346611023,1.1727445125579834,1.5626332759857178,1.3911664485931396
18198.68361283943,1.1856976747512817,1.1727445125579834,1.5629571676254272,1.3910044431686401
18198.685612901758,1.1848881244659424,1.172096848487854,1.5624713897705078,1.3910044431686401
18198.687612964084,1.184240460395813,1.171773076057434,1.5627951622009277,1.3910044431686401
18198.68961302641,1.184240460395813,1.1727445125579834,1.5636048316955566,1.3910044431686401
18198.691613088733,1.1852118968963623,1.172096848487854,1.564252495765686,1.3910044431686401
18198.69361315106,1.184240460395813,1.1724207401275635,1.5640904903411865,1.3906806707382202
18198.695613213386,1.184240460395813,1.1722588539123535,1.5639286041259766,1.3910044431686401
18198.69761327571,1.1852118968963623,1.172096848487854,1.564252495765686,1.3916521072387695
18198.699613338038,1.1852118968963623,1.1729063987731934,1.5634428262710571,1.3908425569534302
18198.701613400364,1.1847261190414429,1.1722588539123535,1.5639286041259766,1.3905187845230103
18198.70361346269,1.186507225036621,1.1729063987731934,1.5637667179107666,1.3916521072387695
18198.705613525017,1.186507225036621,1.1727445125579834,1.5639286041259766,1.3916521072387695
18198.707613587343,1.186669111251831,1.1732302904129028,1.5639286041259766,1.3905187845230103
18198.70961364967,1.1863453388214111,1.1729063987731934,1.5634428262710571,1.3914902210235596
18198.711613711996,1.186507225036621,1.1729063987731934,1.5634428262710571,1.3913283348083496
18198.713613774322,1.184402346611023,1.1727445125579834,1.5634428262710571,1.3905187845230103
18198.715613836648,1.1850500106811523,1.1733921766281128,1.5634428262710571,1.3910044431686401
18198.717613898974,1.1848881244659424,1.1737160682678223,1.5636048316955566,1.3906806707382202
18198.7196139613,1.184240460395813,1.1737160682678223,1.5636048316955566,1.3900330066680908
18198.721614023627,1.1839165687561035,1.1735540628433228,1.564252495765686,1.3910044431686401
18198.723614085953,1.1852118968963623,1.1727445125579834,1.564576268196106,1.391975998878479
18198.72561414828,1.1853737831115723,1.1729063987731934,1.564414381980896,1.392137885093689
18198.727614210606,1.1856976747512817,1.1729063987731934,1.5637667179107666,1.3911664485931396
18198.729614272932,1.1852118968963623,1.1725826263427734,1.5637667179107666,1.3911664485931396
18198.731614335255,1.1856976747512817,1.1727445125579834,1.5640904903411865,1.3906806707382202
18198.73361439758,1.1835927963256836,1.1730684041976929,1.564414381980896,1.3905187845230103
18198.735614459907,1.1834309101104736,1.1730684041976929,1.564576268196106,1.3910044431686401
18198.737614522233,1.1832689046859741,1.1733921766281128,1.5649000406265259,1.3905187845230103
18198.73961458456,1.1831070184707642,1.1740398406982422,1.564576268196106,1.3901948928833008
18198.741614646886,1.1829451322555542,1.1738779544830322,1.564576268196106,1.3900330066680908
18198.743614709212,1.1847261190414429,1.1738779544830322,1.5650620460510254,1.3905187845230103
18198.74561477154,1.1847261190414429,1.1732302904129028,1.5652239322662354,1.3905187845230103
18198.747614833865,1.1847261190414429,1.1735540628433228,1.564738154411316,1.3898711204528809
18198.74961489619,1.1850500106811523,1.1742017269134521,1.5640904903411865,1.3903567790985107
18198.751614958517,1.1860214471817017,1.1738779544830322,1.5629571676254272,1.3910044431686401
18198.753615020843,1.184564232826233,1.1743637323379517,1.5629571676254272,1.3900330066680908
18198.75561508317,1.184564232826233,1.1745256185531616,1.5634428262710571,1.3905187845230103
18198.757615145496,1.1852118968963623,1.1738779544830322,1.5632809400558472,1.3911664485931396
18198.759615207822,1.1847261190414429,1.1732302904129028,1.5634428262710571,1.3906806707382202
18198.76161527015,1.184564232826233,1.1733921766281128,1.5637667179107666,1.3903567790985107
18198.763615332475,1.1848881244659424,1.1737160682678223,1.5631190538406372,1.3911664485931396
18198.7656153948,1.1856976747512817,1.1733921766281128,1.5639286041259766,1.3916521072387695
18198.767615457127,1.1856976747512817,1.1735540628433228,1.5640904903411865,1.392137885093689
18198.769615519454,1.186669111251831,1.1733921766281128,1.5639286041259766,1.391814112663269
18198.771615581776,1.1878025531768799,1.1748493909835815,1.5637667179107666,1.3914902210235596
18198.773615644102,1.1852118968963623,1.1750112771987915,1.564252495765686,1.3911664485931396
18198.77561570643,1.1848881244659424,1.1740398406982422,1.564576268196106,1.3910044431686401
18198.777615768755,1.1848881244659424,1.1735540628433228,1.5640904903411865,1.391975998878479
18198.77961583108,1.1852118968963623,1.1733921766281128,1.5632809400558472,1.3913283348083496
18198.781615893407,1.1848881244659424,1.1735540628433228,1.5632809400558472,1.3905187845230103
18198.783615955734,1.1861833333969116,1.1743637323379517,1.564576268196106,1.3914902210235596
18198.78561601806,1.186507225036621,1.1742017269134521,1.5653858184814453,1.391814112663269
18198.787616080386,1.1863453388214111,1.1737160682678223,1.5657097101211548,1.3913283348083496
18198.789616142712,1.186507225036621,1.1740398406982422,1.5658715963363647,1.3916521072387695
18198.79161620504,1.18764066696167,1.175335168838501,1.5658715963363647,1.392299771308899
18198.793616267365,1.1863453388214111,1.1745256185531616,1.5661953687667847,1.3916521072387695
18198.79561632969,1.1863453388214111,1.1735540628433228,1.5652239322662354,1.3914902210235596
18198.797616392018,1.1869930028915405,1.1725826263427734,1.5655477046966553,1.3916521072387695
18198.799616454344,1.1874786615371704,1.1737160682678223,1.564252495765686,1.3916521072387695
18198.80161651667,1.1850500106811523,1.1743637323379517,1.564576268196106,1.3927855491638184
18198.803616578996,1.186669111251831,1.1743637323379517,1.564252495765686,1.3934332132339478
18198.805616641323,1.1871548891067505,1.175335168838501,1.564414381980896,1.3929474353790283
18198.80761670365,1.186830997467041,1.175173282623291,1.564414381980896,1.3916521072387695
18198.809616765975,1.1863453388214111,1.1746875047683716,1.5652239322662354,1.3910044431686401
18198.811616828298,1.1874786615371704,1.1742017269134521,1.5652239322662354,1.392299771308899
18198.813616890624,1.1856976747512817,1.1740398406982422,1.564252495765686,1.391975998878479
18198.81561695295,1.1861833333969116,1.1738779544830322,1.5650620460510254,1.391814112663269
18198.817617015276,1.1861833333969116,1.1733921766281128,1.5655477046966553,1.392299771308899
18198.819617077603,1.1861833333969116,1.1742017269134521,1.564414381980896,1.392137885093689
18198.82161713993,1.1848881244659424,1.1729063987731934,1.564252495765686,1.3913283348083496
18198.823617202255,1.1863453388214111,1.1727445125579834,1.5634428262710571,1.3910044431686401
18198.82561726458,1.186507225036621,1.1735540628433228,1.5640904903411865,1.3914902210235596
18198.827617326908,1.186507225036621,1.1735540628433228,1.564576268196106,1.3914902210235596
18198.829617389234,1.1855357885360718,1.1737160682678223,1.564576268196106,1.3927855491638184
18198.83161745156,1.1863453388214111,1.1738779544830322,1.5637667179107666,1.391975998878479
18198.833617513887,1.1850500106811523,1.1745256185531616,1.5637667179107666,1.3914902210235596
18198.835617576213,1.184564232826233,1.1746875047683716,1.564576268196106,1.3911664485931396
18198.83761763854,1.184564232826233,1.1746875047683716,1.5649000406265259,1.3905187845230103
18198.839617700865,1.1834309101104736,1.175335168838501,1.5652239322662354,1.3895472288131714
18198.84161776319,1.1832689046859741,1.1748493909835815,1.564738154411316,1.3895472288131714
18198.843617825518,1.1848881244659424,1.1743637323379517,1.5650620460510254,1.3913283348083496
18198.845617887844,1.1852118968963623,1.1733921766281128,1.5650620460510254,1.3901948928833008
18198.84761795017,1.184240460395813,1.1740398406982422,1.5652239322662354,1.3911664485931396
18198.849618012493,1.1850500106811523,1.1743637323379517,1.564252495765686,1.3911664485931396
18198.85161807482,1.1856976747512817,1.1738779544830322,1.5649000406265259,1.3914902210235596
18198.853618137146,1.1832689046859741,1.1733921766281128,1.5649000406265259,1.3908425569534302
18198.85561819947,1.1832689046859741,1.1740398406982422,1.5649000406265259,1.3911664485931396
18198.857618261798,1.184240460395813,1.1746875047683716,1.5636048316955566,1.3908425569534302
18198.859618324124,1.184240460395813,1.1738779544830322,1.5637667179107666,1.3908425569534302
18198.86161838645,1.1831070184707642,1.1733921766281128,1.5637667179107666,1.3901948928833008
18198.863618448777,1.1847261190414429,1.1745256185531616,1.5640904903411865,1.391814112663269
18198.865618511103,1.184564232826233,1.1746875047683716,1.564738154411316,1.3911664485931396
18198.86761857343,1.184402346611023,1.1745256185531616,1.564414381980896,1.3911664485931396
18198.869618635756,1.1847261190414429,1.1738779544830322,1.564252495765686,1.391975998878479
18198.871618698082,1.1853737831115723,1.1735540628433228,1.564576268196106,1.3914902210235596
18198.873618760408,1.184240460395813,1.1742017269134521,1.564414381980896,1.3913283348083496
18198.875618822734,1.1848881244659424,1.1746875047683716,1.5639286041259766,1.3913283348083496
18198.87761888506,1.1835927963256836,1.1738779544830322,1.5637667179107666,1.3914902210235596
18198.879618947387,1.1832689046859741,1.1737160682678223,1.5640904903411865,1.3905187845230103
18198.881619009713,1.1824593544006348,1.1743637323379517,1.5637667179107666,1.3908425569534302
18198.88361907204,1.1840784549713135,1.1742017269134521,1.5649000406265259,1.391975998878479
18198.885619134366,1.1848881244659424,1.1740398406982422,1.564738154411316,1.392299771308899
18198.887619196692,1.184240460395813,1.1735540628433228,1.564576268196106,1.392299771308899
18198.88961925902,1.1847261190414429,1.1735540628433228,1.564414381980896,1.391814112663269
18198.89161932134,1.1856976747512817,1.1729063987731934,1.5640904903411865,1.3908425569534302
18198.893619383667,1.1839165687561035,1.1735540628433228,1.5634428262710571,1.3913283348083496
18198.895619445993,1.1839165687561035,1.1740398406982422,1.5637667179107666,1.3905187845230103
18198.89761950832,1.1839165687561035,1.1737160682678223,1.564252495765686,1.3906806707382202
18198.899619570646,1.1837546825408936,1.1730684041976929,1.5632809400558472,1.3901948928833008
18198.901619632972,1.1829451322555542,1.1737160682678223,1.5634428262710571,1.3905187845230103
18198.9036196953,1.1835927963256836,1.1745256185531616,1.5636048316955566,1.3903567790985107
18198.905619757625,1.1834309101104736,1.1745256185531616,1.5632809400558472,1.3905187845230103
18198.90761981995,1.1839165687561035,1.1748493909835815,1.5634428262710571,1.3906806707382202
18198.909619882277,1.1839165687561035,1.175173282623291,1.564414381980896,1.3903567790985107
18198.911619944603,1.1840784549713135,1.1742017269134521,1.5649000406265259,1.389709234237671
18198.91362000693,1.1826212406158447,1.1735540628433228,1.5640904903411865,1.3895472288131714
18198.915620069256,1.1832689046859741,1.1733921766281128,1.564576268196106,1.3893853425979614
18198.917620131582,1.1835927963256836,1.1737160682678223,1.5639286041259766,1.3893853425979614
18198.91962019391,1.184564232826233,1.1742017269134521,1.5636048316955566,1.388413906097412
18198.921620256235,1.1831070184707642,1.1737160682678223,1.5636048316955566,1.3890615701675415
18198.92362031856,1.184402346611023,1.1735540628433228,1.564414381980896,1.3901948928833008
18198.925620380887,1.1839165687561035,1.1738779544830322,1.5639286041259766,1.389709234237671
18198.927620443214,1.1840784549713135,1.1743637323379517,1.564738154411316,1.3901948928833008
18198.929620505536,1.1839165687561035,1.1737160682678223,1.5639286041259766,1.3901948928833008
18198.931620567862,1.1850500106811523,1.1738779544830322,1.5637667179107666,1.3898711204528809
18198.93362063019,1.1840784549713135,1.1735540628433228,1.5636048316955566,1.3893853425979614
18198.935620692515,1.1837546825408936,1.1735540628433228,1.5650620460510254,1.3892234563827515
18198.93762075484,1.1834309101104736,1.1729063987731934,1.5655477046966553,1.3900330066680908
18198.939620817167,1.1835927963256836,1.1738779544830322,1.5660334825515747,1.3910044431686401
18198.941620879494,1.1827832460403442,1.1745256185531616,1.5663573741912842,1.3905187845230103
18198.94362094182,1.184240460395813,1.1745256185531616,1.5665192604064941,1.3906806707382202
18198.945621004146,1.184240460395813,1.1750112771987915,1.5661953687667847,1.3911664485931396
18198.947621066472,1.1850500106811523,1.1748493909835815,1.5655477046966553,1.3906806707382202
18198.9496211288,1.1855357885360718,1.1746875047683716,1.5655477046966553,1.3908425569534302
18198.951621191125,1.1863453388214111,1.1746875047683716,1.5658715963363647,1.391975998878479
18198.95362125345,1.1856976747512817,1.175173282623291,1.5653858184814453,1.391814112663269
18198.955621315778,1.1860214471817017,1.175335168838501,1.5653858184814453,1.3914902210235596
18198.957621378104,1.1837546825408936,1.1748493909835815,1.5652239322662354,1.3914902210235596
18198.95962144043,1.1840784549713135,1.1750112771987915,1.5649000406265259,1.3911664485931396
18198.961621502756,1.1840784549713135,1.1748493909835815,1.5650620460510254,1.3914902210235596
18198.963621565083,1.1852118968963623,1.175658941268921,1.5663573741912842,1.3916521072387695
18198.96562162741,1.1855357885360718,1.1750112771987915,1.5674906969070435,1.3908425569534302
18198.967621689735,1.1858595609664917,1.1748493909835815,1.5665192604064941,1.3910044431686401
18198.969621752058,1.186507225036621,1.1748493909835815,1.5657097101211548,1.3913283348083496
18198.971621814384,1.186507225036621,1.1746875047683716,1.5652239322662354,1.3913283348083496
18198.97362187671,1.1852118968963623,1.1748493909835815,1.5652239322662354,1.3911664485931396
18198.975621939037,1.184564232826233,1.175335168838501,1.5660334825515747,1.391814112663269
18198.977622001363,1.1848881244659424,1.1750112771987915,1.5653858184814453,1.3914902210235596
18198.97962206369,1.184240460395813,1.175173282623291,1.5652239322662354,1.3916521072387695
18198.981622126015,1.1839165687561035,1.175497055053711,1.5653858184814453,1.3914902210235596
18198.98362218834,1.1856976747512817,1.175658941268921,1.5653858184814453,1.391814112663269
18198.985622250668,1.1858595609664917,1.175658941268921,1.5658715963363647,1.3914902210235596
18198.987622312994,1.1852118968963623,1.1746875047683716,1.5660334825515747,1.3906806707382202
18198.98962237532,1.1847261190414429,1.1743637323379517,1.5655477046966553,1.3913283348083496
18198.991622437647,1.1847261190414429,1.1742017269134521,1.5650620460510254,1.3914902210235596
18198.993622499973,1.1840784549713135,1.1748493909835815,1.5655477046966553,1.391814112663269
18198.9956225623,1.1835927963256836,1.175497055053711,1.5653858184814453,1.3931093215942383
18198.997622624625,1.1839165687561035,1.1759828329086304,1.5657097101211548,1.3927855491638184
18198.99962268695,1.184564232826233,1.1759828329086304,1.5660334825515747,1.391975998878479
18199.001622749278,1.1837546825408936,1.175335168838501,1.5652239322662354,1.3906806707382202
18199.003622811604,1.1852118968963623,1.175497055053711,1.5650620460510254,1.3913283348083496
18199.00562287393,1.1852118968963623,1.1750112771987915,1.5655477046966553,1.3914902210235596
18199.007622936257,1.1847261190414429,1.1750112771987915,1.5658715963363647,1.3913283348083496
18199.00962299858,1.1848881244659424,1.1750112771987915,1.5655477046966553,1.391975998878479
18199.011623060906,1.1856976747512817,1.175497055053711,1.5657097101211548,1.3913283348083496
18199.01362312323,1.184240460395813,1.175497055053711,1.5657097101211548,1.3913283348083496
18199.015623185558,1.184402346611023,1.1758209466934204,1.5657097101211548,1.3914902210235596
18199.017623247884,1.1850500106811523,1.1758209466934204,1.566681146621704,1.3911664485931396
18199.01962331021,1.1848881244659424,1.1758209466934204,1.5673288106918335,1.3911664485931396
18199.021623372537,1.1840784549713135,1.1748493909835815,1.5670050382614136,1.3905187845230103
18199.023623434863,1.1863453388214111,1.175173282623291,1.5670050382614136,1.3910044431686401
18199.02562349719,1.1863453388214111,1.175658941268921,1.5671669244766235,1.3908425569534302
18199.027623559516,1.1863453388214111,1.175173282623291,1.566681146621704,1.3906806707382202
18199.029623621842,1.186507225036621,1.1750112771987915,1.5663573741912842,1.3906806707382202
18199.031623684168,1.186669111251831,1.1748493909835815,1.5658715963363647,1.3905187845230103
18199.033623746494,1.1858595609664917,1.175173282623291,1.5665192604064941,1.3900330066680908
18199.03562380882,1.1853737831115723,1.1748493909835815,1.5665192604064941,1.3903567790985107
18199.037623871147,1.1853737831115723,1.1748493909835815,1.5665192604064941,1.3910044431686401
18199.039623933473,1.1856976747512817,1.1745256185531616,1.5665192604064941,1.3903567790985107
18199.0416239958,1.1840784549713135,1.175173282623291,1.5661953687667847,1.3914902210235596
18199.043624058126,1.1852118968963623,1.1758209466934204,1.5661953687667847,1.3914902210235596
18199.045624120452,1.1855357885360718,1.175173282623291,1.5663573741912842,1.3911664485931396
18199.04762418278,1.1852118968963623,1.1750112771987915,1.5652239322662354,1.3906806707382202
18199.0496242451,1.1855357885360718,1.1745256185531616,1.5661953687667847,1.3906806707382202
18199.051624307427,1.1856976747512817,1.1745256185531616,1.5663573741912842,1.3914902210235596
18199.053624369753,1.1835927963256836,1.175173282623291,1.5660334825515747,1.3908425569534302
18199.05562443208,1.1829451322555542,1.1743637323379517,1.5657097101211548,1.3914902210235596
18199.057624494406,1.1824593544006348,1.1743637323379517,1.5658715963363647,1.3908425569534302
18199.059624556732,1.1826212406158447,1.1735540628433228,1.5650620460510254,1.3895472288131714
18199.06162461906,1.1813260316848755,1.1737160682678223,1.5650620460510254,1.389709234237671
18199.063624681385,1.1829451322555542,1.1745256185531616,1.564252495765686,1.3905187845230103
18199.06562474371,1.1816498041152954,1.1740398406982422,1.5640904903411865,1.3898711204528809
18199.067624806037,1.1814879179000854,1.1748493909835815,1.5636048316955566,1.3892234563827515
18199.069624868363,1.1822974681854248,1.1740398406982422,1.5639286041259766,1.389709234237671
18199.07162493069,1.1831070184707642,1.1740398406982422,1.564252495765686,1.3903567790985107
18199.073624993016,1.1814879179000854,1.1740398406982422,1.564414381980896,1.3903567790985107
18199.075625055342,1.1816498041152954,1.1742017269134521,1.564576268196106,1.3906806707382202
18199.07762511767,1.1819735765457153,1.1743637323379517,1.564252495765686,1.389709234237671
18199.079625179995,1.1816498041152954,1.1740398406982422,1.5640904903411865,1.388737678527832
18199.08162524232,1.1805163621902466,1.1746875047683716,1.5640904903411865,1.3892234563827515
18199.083625304647,1.1818116903305054,1.1746875047683716,1.5629571676254272,1.3895472288131714
18199.085625366974,1.1819735765457153,1.1748493909835815,1.5619856119155884,1.3895472288131714
18199.087625429296,1.1818116903305054,1.1746875047683716,1.5624713897705078,1.3901948928833008
18199.089625491622,1.1816498041152954,1.1745256185531616,1.5631190538406372,1.3906806707382202
18199.09162555395,1.1827832460403442,1.1745256185531616,1.5637667179107666,1.3905187845230103
18199.093625616275,1.1801925897598267,1.1742017269134521,1.5629571676254272,1.3901948928833008
18199.0956256786,1.180678367614746,1.1746875047683716,1.5632809400558472,1.3900330066680908
18199.097625740927,1.1813260316848755,1.1745256185531616,1.564252495765686,1.3908425569534302
18199.099625803254,1.1813260316848755,1.1742017269134521,1.564576268196106,1.3903567790985107
18199.10162586558,1.181002140045166,1.175335168838501,1.564414381980896,1.3900330066680908
18199.103625927906,1.1834309101104736,1.1758209466934204,1.564738154411316,1.3910044431686401
18199.105625990233,1.1822974681854248,1.175658941268921,1.564252495765686,1.3905187845230103
18199.10762605256,1.1821355819702148,1.175173282623291,1.5649000406265259,1.3901948928833008
18199.109626114885,1.1829451322555542,1.1750112771987915,1.5655477046966553,1.3905187845230103
18199.11162617721,1.184402346611023,1.175658941268921,1.5652239322662354,1.3901948928833008
18199.113626239538,1.1827832460403442,1.1761447191238403,1.5658715963363647,1.3900330066680908
18199.115626301864,1.1829451322555542,1.175335168838501,1.5657097101211548,1.3903567790985107
18199.11762636419,1.1835927963256836,1.1748493909835815,1.5665192604064941,1.3905187845230103
18199.119626426516,1.1829451322555542,1.1750112771987915,1.5663573741912842,1.3906806707382202
18199.121626488843,1.1831070184707642,1.175335168838501,1.5671669244766235,1.3901948928833008
18199.12362655117,1.1853737831115723,1.1748493909835815,1.5665192604064941,1.3911664485931396
18199.125626613495,1.1853737831115723,1.1737160682678223,1.5660334825515747,1.3908425569534302
18199.127626675818,1.184564232826233,1.1746875047683716,1.5658715963363647,1.3910044431686401
18199.129626738144,1.1853737831115723,1.1746875047683716,1.5658715963363647,1.392137885093689
18199.13162680047,1.1860214471817017,1.1745256185531616,1.5661953687667847,1.391975998878479
18199.133626862797,1.1848881244659424,1.1746875047683716,1.566681146621704,1.3908425569534302
18199.135626925123,1.1840784549713135,1.1759828329086304,1.5665192604064941,1.3911664485931396
18199.13762698745,1.184240460395813,1.175658941268921,1.5663573741912842,1.3913283348083496
18199.139627049775,1.184564232826233,1.1761447191238403,1.5671669244766235,1.3910044431686401
18199.1416271121,1.1837546825408936,1.1759828329086304,1.5674906969070435,1.3913283348083496
18199.143627174428,1.1850500106811523,1.1759828329086304,1.5674906969070435,1.391975998878479
18199.145627236754,1.1855357885360718,1.1758209466934204,1.5684622526168823,1.3929474353790283
18199.14762729908,1.1855357885360718,1.1758209466934204,1.5681383609771729,1.3927855491638184
18199.149627361407,1.186669111251831,1.1758209466934204,1.5684622526168823,1.392137885093689
18199.151627423733,1.1871548891067505,1.1761447191238403,1.5694336891174316,1.3926236629486084
18199.15362748606,1.1869930028915405,1.1763066053390503,1.5694336891174316,1.391975998878479
18199.155627548385,1.1871548891067505,1.1764686107635498,1.5695955753326416,1.392299771308899
18199.15762761071,1.1871548891067505,1.1761447191238403,1.569919466972351,1.391814112663269
18199.159627673038,1.1869930028915405,1.1763066053390503,1.570243239402771,1.3926236629486084
18199.161627735364,1.186669111251831,1.1758209466934204,1.5705671310424805,1.3929474353790283
18199.16362779769,1.1886121034622192,1.1767923831939697,1.5705671310424805,1.3927855491638184
18199.165627860017,1.1890978813171387,1.1772781610488892,1.5710527896881104,1.3924616575241089
18199.16762792234,1.1895835399627686,1.1771161556243896,1.5710527896881104,1.3935950994491577
18199.169627984666,1.189907431602478,1.1772781610488892,1.5717004537582397,1.3935950994491577
18199.171628046992,1.1912027597427368,1.1772781610488892,1.5717004537582397,1.3937569856643677
18199.173628109318,1.1895835399627686,1.1779258251190186,1.5712147951126099,1.3935950994491577
18199.175628171644,1.1889358758926392,1.1774400472640991,1.5708909034729004,1.394242763519287
18199.17762823397,1.1890978813171387,1.1782495975494385,1.569919466972351,1.394404649734497
18199.179628296297,1.1886121034622192,1.1788972616195679,1.5707290172576904,1.3931093215942383
18199.181628358623,1.186507225036621,1.178573489189148,1.5707290172576904,1.3931093215942383
18199.18362842095,1.18764066696167,1.1782495975494385,1.570405125617981,1.3932713270187378
18199.185628483276,1.1869930028915405,1.177601933479309,1.5708909034729004,1.3926236629486084
18199.187628545602,1.1873167753219604,1.1779258251190186,1.570243239402771,1.3926236629486084
18199.189628607928,1.186669111251831,1.1780877113342285,1.5695955753326416,1.3924616575241089
18199.191628670254,1.1871548891067505,1.1772781610488892,1.5686241388320923,1.3924616575241089
18199.19362873258,1.1853737831115723,1.177601933479309,1.5684622526168823,1.392137885093689
18199.195628794907,1.1850500106811523,1.1772781610488892,1.5671669244766235,1.391814112663269
18199.197628857233,1.1856976747512817,1.1764686107635498,1.5663573741912842,1.392299771308899
18199.19962891956,1.1840784549713135,1.1763066053390503,1.5660334825515747,1.3926236629486084
18199.201628981886,1.1824593544006348,1.1764686107635498,1.5655477046966553,1.392137885093689
18199.203629044212,1.1826212406158447,1.1769542694091797,1.5639286041259766,1.3929474353790283
18199.20562910654,1.1822974681854248,1.1758209466934204,1.5634428262710571,1.3916521072387695
18199.20762916886,1.1818116903305054,1.175335168838501,1.5637667179107666,1.3901948928833008
18199.209629231187,1.1816498041152954,1.175658941268921,1.5634428262710571,1.3906806707382202
18199.211629293513,1.1824593544006348,1.175335168838501,1.5631190538406372,1.3901948928833008
18199.21362935584,1.1790591478347778,1.1750112771987915,1.5629571676254272,1.389709234237671
18199.215629418166,1.1788972616195679,1.1750112771987915,1.561337947845459,1.3900330066680908
18199.217629480492,1.1788972616195679,1.1738779544830322,1.5616618394851685,1.388899564743042
18199.21962954282,1.1784114837646484,1.1742017269134521,1.560852289199829,1.3880900144577026
18199.221629605145,1.1764686107635498,1.1743637323379517,1.5598807334899902,1.3880900144577026
18199.22362966747,1.1780877113342285,1.175173282623291,1.5592330694198608,1.3892234563827515
18199.225629729797,1.177763819694519,1.1745256185531616,1.5590711832046509,1.3892234563827515
18199.227629792123,1.1772781610488892,1.1735540628433228,1.5580997467041016,1.388413906097412
18199.22962985445,1.1766304969787598,1.1727445125579834,1.5584235191345215,1.388899564743042
18199.231629916776,1.1771161556243896,1.1733921766281128,1.5585854053497314,1.388899564743042
18199.233629979102,1.1763066053390503,1.1733921766281128,1.558909296989441,1.388413906097412
18199.23563004143,1.1759828329086304,1.1735540628433228,1.5584235191345215,1.3876042366027832
18199.237630103755,1.1761447191238403,1.1729063987731934,1.5582616329193115,1.3872804641723633
18199.23963016608,1.175497055053711,1.1727445125579834,1.5580997467041016,1.3876042366027832
18199.241630228407,1.1745256185531616,1.1729063987731934,1.557937741279602,1.3877662420272827
18199.243630290734,1.1759828329086304,1.1730684041976929,1.5582616329193115,1.3876042366027832
18199.245630353056,1.1764686107635498,1.1729063987731934,1.558747410774231,1.3867946863174438
18199.247630415382,1.1769542694091797,1.1725826263427734,1.5582616329193115,1.3871185779571533
18199.24963047771,1.177763819694519,1.1729063987731934,1.5576139688491821,1.3876042366027832
18199.251630540035,1.178735375404358,1.1727445125579834,1.5584235191345215,1.388413906097412
18199.25363060236,1.1766304969787598,1.1725826263427734,1.558909296989441,1.388413906097412
18199.255630664687,1.1766304969787598,1.1735540628433228,1.5585854053497314,1.3879281282424927
18199.257630727014,1.1767923831939697,1.1740398406982422,1.5582616329193115,1.3876042366027832
18199.25963078934,1.1761447191238403,1.1735540628433228,1.558747410774231,1.3879281282424927
18199.261630851666,1.1759828329086304,1.1740398406982422,1.5595569610595703,1.3879281282424927
18199.263630913993,1.1780877113342285,1.1742017269134521,1.5603665113449097,1.3877662420272827
18199.26563097632,1.1784114837646484,1.1742017269134521,1.5600426197052002,1.388413906097412
18199.267631038645,1.178573489189148,1.1740398406982422,1.5603665113449097,1.3879281282424927
18199.26963110097,1.1788972616195679,1.1740398406982422,1.561176061630249,1.3876042366027832
18199.271631163298,1.180678367614746,1.1738779544830322,1.5624713897705078,1.3882519006729126
18199.273631225624,1.1795449256896973,1.1738779544830322,1.5631190538406372,1.388413906097412
18199.27563128795,1.1795449256896973,1.1750112771987915,1.5637667179107666,1.3890615701675415
18199.277631350276,1.1792210340499878,1.1746875047683716,1.5652239322662354,1.389709234237671
18199.279631412603,1.1803544759750366,1.1737160682678223,1.5652239322662354,1.389709234237671
18199.28163147493,1.180678367614746,1.1746875047683716,1.5637667179107666,1.3898711204528809
18199.283631537255,1.1824593544006348,1.1759828329086304,1.564576268196106,1.3900330066680908
18199.285631599578,1.1821355819702148,1.1761447191238403,1.5650620460510254,1.389709234237671
18199.287631661904,1.1826212406158447,1.175658941268921,1.5650620460510254,1.3900330066680908
18199.28963172423,1.1834309101104736,1.1763066053390503,1.5655477046966553,1.3908425569534302
18199.291631786557,1.1837546825408936,1.1759828329086304,1.5658715963363647,1.3910044431686401
18199.293631848883,1.180840253829956,1.1758209466934204,1.5661953687667847,1.3901948928833008
18199.29563191121,1.1803544759750366,1.1763066053390503,1.5663573741912842,1.3903567790985107
18199.297631973535,1.1819735765457153,1.1767923831939697,1.566843032836914,1.3910044431686401
18199.29963203586,1.1827832460403442,1.1772781610488892,1.5670050382614136,1.388899564743042
18199.301632098188,1.1814879179000854,1.1764686107635498,1.566681146621704,1.3892234563827515
18199.303632160514,1.1831070184707642,1.1761447191238403,1.566681146621704,1.3906806707382202
18199.30563222284,1.1840784549713135,1.175335168838501,1.5671669244766235,1.391975998878479
18199.307632285167,1.1834309101104736,1.175497055053711,1.5670050382614136,1.3911664485931396
18199.309632347493,1.1832689046859741,1.1767923831939697,1.5658715963363647,1.3913283348083496
18199.31163240982,1.1837546825408936,1.1769542694091797,1.5670050382614136,1.3905187845230103
18199.313632472145,1.1814879179000854,1.1759828329086304,1.566843032836914,1.3893853425979614
18199.31563253447,1.1814879179000854,1.1758209466934204,1.5663573741912842,1.3903567790985107
18199.317632596798,1.1819735765457153,1.1759828329086304,1.566843032836914,1.3905187845230103
18199.319632659124,1.1816498041152954,1.1759828329086304,1.566681146621704,1.3895472288131714
18199.32163272145,1.1813260316848755,1.1758209466934204,1.5674906969070435,1.3900330066680908
18199.323632783777,1.1834309101104736,1.1759828329086304,1.5681383609771729,1.3906806707382202
18199.3256328461,1.1834309101104736,1.1759828329086304,1.5686241388320923,1.3903567790985107
18199.327632908426,1.1839165687561035,1.1764686107635498,1.567976474761963,1.3905187845230103
18199.329632970752,1.184402346611023,1.1769542694091797,1.5683002471923828,1.3908425569534302
18199.331633033078,1.1856976747512817,1.1771161556243896,1.5692718029022217,1.3911664485931396
18199.333633095404,1.1848881244659424,1.1767923831939697,1.569919466972351,1.3906806707382202
18199.33563315773,1.184564232826233,1.1772781610488892,1.5697574615478516,1.3903567790985107
18199.337633220057,1.1847261190414429,1.1764686107635498,1.5689479112625122,1.3901948928833008
18199.339633282383,1.1839165687561035,1.175335168838501,1.5692718029022217,1.3908425569534302
18199.34163334471,1.1834309101104736,1.175658941268921,1.5689479112625122,1.3914902210235596
18199.343633407036,1.1860214471817017,1.1758209466934204,1.5695955753326416,1.3913283348083496
18199.345633469362,1.186830997467041,1.1763066053390503,1.570081353187561,1.3908425569534302
18199.34763353169,1.186669111251831,1.1759828329086304,1.5695955753326416,1.3910044431686401
18199.349633594014,1.186507225036621,1.1761447191238403,1.5697574615478516,1.3906806707382202
18199.35163365634,1.1858595609664917,1.1758209466934204,1.5695955753326416,1.3898711204528809
18199.353633718667,1.1840784549713135,1.1764686107635498,1.5691099166870117,1.3892234563827515
18199.355633780993,1.1839165687561035,1.1761447191238403,1.5687860250473022,1.3898711204528809
18199.35763384332,1.1839165687561035,1.1758209466934204,1.570081353187561,1.3892234563827515
18199.359633905646,1.184240460395813,1.1764686107635498,1.569919466972351,1.388737678527832
18199.361633967972,1.1831070184707642,1.1763066053390503,1.5687860250473022,1.388737678527832
18199.3636340303,1.184402346611023,1.1758209466934204,1.5686241388320923,1.3900330066680908
18199.36563409262,1.1848881244659424,1.1759828329086304,1.5689479112625122,1.3905187845230103
18199.367634154947,1.1848881244659424,1.1758209466934204,1.5689479112625122,1.3898711204528809
18199.369634217273,1.184402346611023,1.175335168838501,1.5687860250473022,1.388575792312622
18199.3716342796,1.1847261190414429,1.175658941268921,1.567976474761963,1.388899564743042
18199.373634341926,1.1827832460403442,1.175658941268921,1.566681146621704,1.3877662420272827
18199.375634404252,1.1816498041152954,1.175335168838501,1.5671669244766235,1.388413906097412
18199.37763446658,1.1814879179000854,1.175173282623291,1.5663573741912842,1.388737678527832
18199.379634528905,1.1818116903305054,1.1745256185531616,1.5661953687667847,1.3880900144577026
18199.38163459123,1.1805163621902466,1.1738779544830322,1.5673288106918335,1.3882519006729126
18199.383634653557,1.1818116903305054,1.1738779544830322,1.5674906969070435,1.3882519006729126
18199.385634715883,1.1813260316848755,1.1742017269134521,1.566843032836914,1.3871185779571533
18199.38763477821,1.1813260316848755,1.1742017269134521,1.5657097101211548,1.3872804641723633
18199.389634840536,1.1821355819702148,1.1745256185531616,1.5661953687667847,1.3882519006729126
18199.391634902862,1.1826212406158447,1.1748493909835815,1.5660334825515747,1.3872804641723633
18199.39363496519,1.1800307035446167,1.1745256185531616,1.5655477046966553,1.3859851360321045
18199.395635027515,1.1788972616195679,1.175335168838501,1.5663573741912842,1.3861470222473145
18199.39763508984,1.1792210340499878,1.175658941268921,1.5660334825515747,1.3856613636016846
18199.399635152167,1.1792210340499878,1.175497055053711,1.5661953687667847,1.385337471961975
18199.401635214494,1.178573489189148,1.1738779544830322,1.5657097101211548,1.3858232498168945
18199.403635276816,1.1797068119049072,1.1738779544830322,1.5653858184814453,1.3872804641723633
18199.405635339142,1.1797068119049072,1.1740398406982422,1.5665192604064941,1.3866328001022339
18199.40763540147,1.1798686981201172,1.1737160682678223,1.5658715963363647,1.3877662420272827
18199.409635463795,1.1803544759750366,1.1733921766281128,1.5652239322662354,1.3872804641723633
18199.41163552612,1.181164026260376,1.1742017269134521,1.5660334825515747,1.3869566917419434
18199.413635588448,1.1797068119049072,1.1742017269134521,1.5661953687667847,1.3869566917419434
18199.415635650774,1.1801925897598267,1.1746875047683716,1.5655477046966553,1.386309027671814
18199.4176357131,1.1793830394744873,1.1748493909835815,1.5665192604064941,1.3858232498168945
18199.419635775426,1.1803544759750366,1.1745256185531616,1.5671669244766235,1.386309027671814
18199.421635837753,1.1795449256896973,1.1738779544830322,1.5663573741912842,1.3858232498168945
18199.42363590008,1.1813260316848755,1.1740398406982422,1.5665192604064941,1.3869566917419434
18199.425635962405,1.180840253829956,1.175335168838501,1.5671669244766235,1.3869566917419434
18199.42763602473,1.181002140045166,1.1748493909835815,1.5671669244766235,1.3871185779571533
18199.429636087058,1.1818116903305054,1.1745256185531616,1.566843032836914,1.3879281282424927
18199.431636149384,1.1827832460403442,1.1750112771987915,1.567976474761963,1.3882519006729126
18199.43363621171,1.1816498041152954,1.1758209466934204,1.5683002471923828,1.3882519006729126
18199.435636274036,1.1818116903305054,1.1759828329086304,1.5692718029022217,1.3879281282424927
18199.437636336363,1.1826212406158447,1.175497055053711,1.5692718029022217,1.3871185779571533
18199.43963639869,1.1818116903305054,1.1764686107635498,1.5691099166870117,1.3874423503875732
18199.441636461015,1.181164026260376,1.1763066053390503,1.5686241388320923,1.3876042366027832
18199.443636523338,1.1831070184707642,1.1748493909835815,1.5691099166870117,1.3871185779571533
18199.445636585664,1.1831070184707642,1.1743637323379517,1.5692718029022217,1.3874423503875732
18199.44763664799,1.1832689046859741,1.175173282623291,1.5691099166870117,1.3876042366027832
18199.449636710317,1.1827832460403442,1.175335168838501,1.570081353187561,1.3879281282424927
18199.451636772643,1.1839165687561035,1.1758209466934204,1.5705671310424805,1.388413906097412
18199.45363683497,1.1832689046859741,1.1767923831939697,1.5695955753326416,1.3874423503875732
18199.455636897295,1.1839165687561035,1.1763066053390503,1.5691099166870117,1.388413906097412
18199.45763695962,1.184240460395813,1.1758209466934204,1.5684622526168823,1.388899564743042
18199.459637021948,1.1835927963256836,1.1758209466934204,1.5684622526168823,1.3876042366027832
18199.461637084274,1.1822974681854248,1.1761447191238403,1.5697574615478516,1.3882519006729126
18199.4636371466,1.1835927963256836,1.1759828329086304,1.570405125617981,1.3880900144577026
18199.465637208927,1.1832689046859741,1.175497055053711,1.5697574615478516,1.388899564743042
18199.467637271253,1.1832689046859741,1.1767923831939697,1.5692718029022217,1.388737678527832
18199.46963733358,1.1840784549713135,1.1766304969787598,1.5689479112625122,1.388413906097412
18199.471637395905,1.1850500106811523,1.1766304969787598,1.569919466972351,1.388413906097412
18199.47363745823,1.1835927963256836,1.1758209466934204,1.5692718029022217,1.3879281282424927
18199.475637520558,1.1835927963256836,1.1759828329086304,1.5689479112625122,1.3879281282424927
18199.477637582884,1.184240460395813,1.1761447191238403,1.5687860250473022,1.388575792312622
18199.47963764521,1.184240460395813,1.1764686107635498,1.5697574615478516,1.388737678527832
18199.481637707537,1.1832689046859741,1.1761447191238403,1.570243239402771,1.3892234563827515
18199.48363776986,1.184564232826233,1.175173282623291,1.570243239402771,1.3892234563827515
18199.485637832186,1.1850500106811523,1.175497055053711,1.5692718029022217,1.388413906097412
18199.487637894512,1.184402346611023,1.175658941268921,1.5695955753326416,1.388899564743042
18199.489637956838,1.184240460395813,1.1759828329086304,1.570243239402771,1.388737678527832
18199.491638019164,1.1855357885360718,1.1759828329086304,1.5707290172576904,1.388575792312622
18199.49363808149,1.1839165687561035,1.1759828329086304,1.570405125617981,1.388737678527832
18199.495638143817,1.1832689046859741,1.1758209466934204,1.5697574615478516,1.3882519006729126
18199.497638206143,1.1834309101104736,1.175497055053711,1.569919466972351,1.388899564743042
18199.49963826847,1.1839165687561035,1.1761447191238403,1.570243239402771,1.388899564743042
18199.501638330796,1.1826212406158447,1.1763066053390503,1.5691099166870117,1.388899564743042
18199.503638393122,1.1839165687561035,1.1763066053390503,1.5694336891174316,1.3895472288131714
18199.50563845545,1.184402346611023,1.1764686107635498,1.5694336891174316,1.3890615701675415
18199.507638517774,1.1853737831115723,1.1761447191238403,1.569919466972351,1.388899564743042
18199.5096385801,1.1858595609664917,1.175497055053711,1.570243239402771,1.3892234563827515
18199.511638642427,1.1848881244659424,1.175497055053711,1.569919466972351,1.3892234563827515
18199.513638704753,1.1834309101104736,1.1758209466934204,1.570081353187561,1.388899564743042
18199.51563876708,1.1835927963256836,1.1761447191238403,1.5697574615478516,1.3895472288131714
18199.517638829406,1.1837546825408936,1.175658941268921,1.5691099166870117,1.388899564743042
18199.519638891732,1.1829451322555542,1.1758209466934204,1.569919466972351,1.3877662420272827
18199.52163895406,1.1824593544006348,1.1759828329086304,1.570243239402771,1.3879281282424927
18199.52363901638,1.1834309101104736,1.1761447191238403,1.5694336891174316,1.3879281282424927
18199.525639078707,1.1834309101104736,1.175658941268921,1.5691099166870117,1.3876042366027832
18199.527639141033,1.1832689046859741,1.1759828329086304,1.5694336891174316,1.3882519006729126
18199.52963920336,1.1839165687561035,1.1758209466934204,1.5695955753326416,1.3890615701675415
18199.531639265686,1.1852118968963623,1.1761447191238403,1.5691099166870117,1.3893853425979614
18199.533639328012,1.1827832460403442,1.1758209466934204,1.5697574615478516,1.388575792312622
18199.53563939034,1.1821355819702148,1.175335168838501,1.5697574615478516,1.388413906097412
18199.537639452665,1.1835927963256836,1.175173282623291,1.5691099166870117,1.388899564743042
18199.53963951499,1.1829451322555542,1.175658941268921,1.5681383609771729,1.388575792312622
18199.541639577317,1.1824593544006348,1.1758209466934204,1.5676525831222534,1.3877662420272827
18199.543639639644,1.184240460395813,1.1767923831939697,1.5691099166870117,1.388737678527832
18199.54563970197,1.184564232826233,1.1772781610488892,1.5697574615478516,1.3892234563827515
18199.547639764296,1.1847261190414429,1.177601933479309,1.570405125617981,1.3895472288131714
18199.549639826622,1.1852118968963623,1.1771161556243896,1.570243239402771,1.3895472288131714
18199.55163988895,1.1863453388214111,1.1769542694091797,1.569919466972351,1.3898711204528809
18199.553639951275,1.1848881244659424,1.1766304969787598,1.5694336891174316,1.3901948928833008
18199.5556400136,1.1835927963256836,1.1764686107635498,1.5697574615478516,1.3898711204528809
18199.557640075927,1.184240460395813,1.1764686107635498,1.5695955753326416,1.388899564743042
18199.559640138254,1.1847261190414429,1.1758209466934204,1.5695955753326416,1.388899564743042
18199.56164020058,1.184564232826233,1.1766304969787598,1.5684622526168823,1.3898711204528809
18199.563640262902,1.1860214471817017,1.1774400472640991,1.570081353187561,1.3903567790985107
18199.56564032523,1.1861833333969116,1.1782495975494385,1.5717004537582397,1.3911664485931396
18199.567640387555,1.186830997467041,1.178573489189148,1.5717004537582397,1.3903567790985107
18199.56964044988,1.1871548891067505,1.177601933479309,1.5723481178283691,1.3906806707382202
18199.571640512208,1.1886121034622192,1.177601933479309,1.573643445968628,1.3911664485931396
18199.573640574534,1.1878025531768799,1.1779258251190186,1.5749387741088867,1.3910044431686401
18199.57564063686,1.1884502172470093,1.1782495975494385,1.5746148824691772,1.3913283348083496
18199.577640699186,1.1886121034622192,1.1780877113342285,1.5747768878936768,1.3924616575241089
18199.579640761513,1.1894216537475586,1.1780877113342285,1.5752625465393066,1.3927855491638184
18199.58164082384,1.1889358758926392,1.1784114837646484,1.5762341022491455,1.3924616575241089
18199.583640886165,1.1907169818878174,1.177763819694519,1.5770436525344849,1.3927855491638184
18199.58564094849,1.1924980878829956,1.177763819694519,1.5773674249649048,1.3927855491638184
18199.587641010818,1.193307638168335,1.1784114837646484,1.5770436525344849,1.3924616575241089
18199.589641073144,1.1936314105987549,1.1793830394744873,1.5778532028198242,1.392299771308899
18199.59164113547,1.195574402809143,1.1790591478347778,1.579148530960083,1.3932713270187378
18199.593641197796,1.1929837465286255,1.1790591478347778,1.579310417175293,1.3931093215942383
18199.595641260123,1.193307638168335,1.178735375404358,1.5785008668899536,1.3927855491638184
18199.59764132245,1.1929837465286255,1.1790591478347778,1.5786627531051636,1.3927855491638184
18199.599641384775,1.1926599740982056,1.1793830394744873,1.5797961950302124,1.391814112663269
18199.6016414471,1.1916884183883667,1.1792210340499878,1.5786627531051636,1.3914902210235596
18199.603641509424,1.1926599740982056,1.178573489189148,1.5780150890350342,1.3926236629486084
18199.60564157175,1.1929837465286255,1.1790591478347778,1.5772055387496948,1.3914902210235596
18199.607641634077,1.192336082458496,1.1790591478347778,1.5770436525344849,1.3901948928833008
18199.609641696403,1.1916884183883667,1.1782495975494385,1.5775294303894043,1.3906806707382202
18199.61164175873,1.1926599740982056,1.1779258251190186,1.5763959884643555,1.3913283348083496
18199.613641821055,1.1907169818878174,1.178573489189148,1.575748324394226,1.3914902210235596
18199.61564188338,1.1894216537475586,1.178735375404358,1.5749387741088867,1.3913283348083496
18199.617641945708,1.1887739896774292,1.1779258251190186,1.5746148824691772,1.3905187845230103
18199.619642008034,1.186669111251831,1.1772781610488892,1.5729957818984985,1.3898711204528809
18199.62164207036,1.1840784549713135,1.1767923831939697,1.5715385675430298,1.388899564743042
18199.623642132687,1.184402346611023,1.1758209466934204,1.5695955753326416,1.3892234563827515
18199.625642195013,1.1852118968963623,1.1763066053390503,1.5686241388320923,1.388737678527832
18199.62764225734,1.184402346611023,1.1763066053390503,1.5686241388320923,1.3882519006729126
18199.629642319665,1.1835927963256836,1.175335168838501,1.5674906969070435,1.3879281282424927
18199.63164238199,1.1831070184707642,1.175658941268921,1.5674906969070435,1.3882519006729126
18199.633642444318,1.180840253829956,1.175335168838501,1.5661953687667847,1.3877662420272827
18199.635642506644,1.1793830394744873,1.1748493909835815,1.5650620460510254,1.3874423503875732
18199.63764256897,1.1795449256896973,1.1735540628433228,1.564414381980896,1.3876042366027832
18199.639642631297,1.1788972616195679,1.1738779544830322,1.564252495765686,1.3871185779571533
18199.64164269362,1.1772781610488892,1.1735540628433228,1.5640904903411865,1.3867946863174438
18199.643642755946,1.1774400472640991,1.1735540628433228,1.5632809400558472,1.3872804641723633
18199.645642818272,1.1771161556243896,1.1740398406982422,1.562147617340088,1.3859851360321045
18199.647642880598,1.1759828329086304,1.1740398406982422,1.561176061630249,1.3856613636016846
18199.649642942924,1.175335168838501,1.1737160682678223,1.5606902837753296,1.3856613636016846
18199.65164300525,1.1766304969787598,1.1745256185531616,1.5605283975601196,1.3858232498168945
18199.653643067577,1.175335168838501,1.1740398406982422,1.5598807334899902,1.385499358177185
18199.655643129903,1.1750112771987915,1.1737160682678223,1.5593950748443604,1.3856613636016846
18199.65764319223,1.1746875047683716,1.1727445125579834,1.5585854053497314,1.3858232498168945
18199.659643254556,1.1732302904129028,1.1730684041976929,1.5580997467041016,1.385499358177185
18199.661643316882,1.1730684041976929,1.1732302904129028,1.5582616329193115,1.385337471961975
18199.66364337921,1.1743637323379517,1.1730684041976929,1.557775855064392,1.3856613636016846
18199.665643441534,1.1743637323379517,1.1722588539123535,1.5582616329193115,1.385337471961975
18199.66764350386,1.1738779544830322,1.172096848487854,1.557775855064392,1.3840421438217163
18199.669643566187,1.1740398406982422,1.1725826263427734,1.5585854053497314,1.385499358177185
18199.671643628513,1.1742017269134521,1.1722588539123535,1.5590711832046509,1.385499358177185
18199.67364369084,1.1727445125579834,1.1725826263427734,1.5590711832046509,1.3850136995315552
18199.675643753166,1.1737160682678223,1.1732302904129028,1.5590711832046509,1.385337471961975
18199.677643815492,1.1737160682678223,1.1725826263427734,1.5585854053497314,1.3851755857467651
18199.67964387782,1.1742017269134521,1.172096848487854,1.557937741279602,1.3851755857467651
18199.68164394014,1.1733921766281128,1.1716111898422241,1.5580997467041016,1.385499358177185
18199.683644002467,1.175658941268921,1.171773076057434,1.558747410774231,1.386309027671814
18199.685644064793,1.1758209466934204,1.172096848487854,1.5606902837753296,1.3859851360321045
18199.68764412712,1.1764686107635498,1.1716111898422241,1.5606902837753296,1.3851755857467651
18199.689644189446,1.1761447191238403,1.1727445125579834,1.561014175415039,1.3845279216766357
18199.691644251772,1.1780877113342285,1.1729063987731934,1.561337947845459,1.3850136995315552
18199.6936443141,1.1774400472640991,1.1732302904129028,1.562147617340088,1.385337471961975
18199.695644376425,1.177601933479309,1.1725826263427734,1.5619856119155884,1.3851755857467651
18199.69764443875,1.1780877113342285,1.1722588539123535,1.5614999532699585,1.3858232498168945
18199.699644501077,1.177601933479309,1.1727445125579834,1.5619856119155884,1.3851755857467651
18199.701644563404,1.1769542694091797,1.1735540628433228,1.5624713897705078,1.3851755857467651
18199.70364462573,1.1788972616195679,1.1730684041976929,1.5636048316955566,1.3869566917419434
18199.705644688056,1.1803544759750366,1.1725826263427734,1.5636048316955566,1.3869566917419434
18199.707644750382,1.180678367614746,1.171773076057434,1.5634428262710571,1.3861470222473145
18199.70964481271,1.1816498041152954,1.171934962272644,1.564252495765686,1.386309027671814
18199.711644875035,1.1829451322555542,1.172096848487854,1.5650620460510254,1.3869566917419434
18199.71364493736,1.1813260316848755,1.1729063987731934,1.5658715963363647,1.3869566917419434
18199.715644999687,1.1813260316848755,1.1738779544830322,1.5653858184814453,1.386470913887024
18199.717645062014,1.1814879179000854,1.1733921766281128,1.5665192604064941,1.3871185779571533
18199.71964512434,1.1818116903305054,1.1733921766281128,1.567814588546753,1.386470913887024
18199.721645186662,1.180840253829956,1.1727445125579834,1.567814588546753,1.3859851360321045
18199.72364524899,1.184564232826233,1.1730684041976929,1.5686241388320923,1.3859851360321045
18199.725645311315,1.1848881244659424,1.1737160682678223,1.5686241388320923,1.386470913887024
18199.72764537364,1.1847261190414429,1.1745256185531616,1.5686241388320923,1.3869566917419434
18199.729645435968,1.1855357885360718,1.1745256185531616,1.5684622526168823,1.3877662420272827
18199.731645498294,1.1869930028915405,1.1738779544830322,1.5691099166870117,1.3880900144577026
18199.73364556062,1.1855357885360718,1.1738779544830322,1.5689479112625122,1.388413906097412
18199.735645622946,1.1856976747512817,1.1743637323379517,1.5691099166870117,1.3876042366027832
18199.737645685273,1.1861833333969116,1.1742017269134521,1.5692718029022217,1.3874423503875732
18199.7396457476,1.1855357885360718,1.1730684041976929,1.5695955753326416,1.3877662420272827
18199.741645809925,1.184240460395813,1.1743637323379517,1.570243239402771,1.3880900144577026
18199.74364587225,1.186507225036621,1.1745256185531616,1.5710527896881104,1.3880900144577026
18199.745645934578,1.1873167753219604,1.1745256185531616,1.5712147951126099,1.3880900144577026
18199.747645996904,1.1874786615371704,1.1750112771987915,1.5708909034729004,1.3882519006729126
18199.74964605923,1.1879644393920898,1.1750112771987915,1.5708909034729004,1.3879281282424927
18199.751646121556,1.1881263256072998,1.1742017269134521,1.5715385675430298,1.388575792312622
18199.753646183883,1.186507225036621,1.1737160682678223,1.572510004043579,1.3876042366027832
18199.75564624621,1.1863453388214111,1.1737160682678223,1.5723481178283691,1.3872804641723633
18199.757646308535,1.186830997467041,1.1743637323379517,1.5718624591827393,1.388413906097412
18199.75964637086,1.186830997467041,1.1742017269134521,1.5721862316131592,1.3880900144577026
18199.761646433184,1.1863453388214111,1.1746875047683716,1.5720243453979492,1.388575792312622
18199.76364649551,1.1879644393920898,1.1748493909835815,1.5717004537582397,1.3892234563827515
18199.765646557837,1.1882882118225098,1.175335168838501,1.5721862316131592,1.3893853425979614
18199.767646620163,1.1871548891067505,1.1758209466934204,1.5720243453979492,1.3890615701675415
18199.76964668249,1.1878025531768799,1.175173282623291,1.5712147951126099,1.388575792312622
18199.771646744815,1.1879644393920898,1.1742017269134521,1.5712147951126099,1.388575792312622
18199.77364680714,1.1853737831115723,1.1738779544830322,1.5708909034729004,1.3882519006729126
18199.775646869468,1.1852118968963623,1.1742017269134521,1.5712147951126099,1.3880900144577026
18199.777646931794,1.1856976747512817,1.1748493909835815,1.5705671310424805,1.386470913887024
18199.77964699412,1.1863453388214111,1.1742017269134521,1.570243239402771,1.3867946863174438
18199.781647056447,1.1856976747512817,1.1742017269134521,1.569919466972351,1.3871185779571533
18199.783647118773,1.1874786615371704,1.1740398406982422,1.569919466972351,1.3871185779571533
18199.7856471811,1.1873167753219604,1.1738779544830322,1.5697574615478516,1.3877662420272827
18199.787647243425,1.186830997467041,1.1732302904129028,1.5694336891174316,1.3879281282424927
18199.78964730575,1.1861833333969116,1.1737160682678223,1.5687860250473022,1.3872804641723633
18199.791647368078,1.1861833333969116,1.1746875047683716,1.5689479112625122,1.3876042366027832
18199.793647430404,1.1837546825408936,1.1746875047683716,1.5681383609771729,1.3876042366027832
18199.79564749273,1.1834309101104736,1.1743637323379517,1.5671669244766235,1.3874423503875732
18199.797647555057,1.1840784549713135,1.1735540628433228,1.5674906969070435,1.3879281282424927
18199.79964761738,1.1835927963256836,1.1733921766281128,1.5684622526168823,1.3872804641723633
18199.801647679706,1.1831070184707642,1.1738779544830322,1.567976474761963,1.3867946863174438
18199.803647742032,1.1847261190414429,1.1733921766281128,1.5670050382614136,1.3877662420272827
18199.805647804358,1.184402346611023,1.1733921766281128,1.5660334825515747,1.3879281282424927
18199.807647866684,1.1835927963256836,1.1727445125579834,1.5658715963363647,1.3877662420272827
18199.80964792901,1.1834309101104736,1.1725826263427734,1.5665192604064941,1.3874423503875732
18199.811647991337,1.1839165687561035,1.1733921766281128,1.5660334825515747,1.3867946863174438
18199.813648053663,1.1831070184707642,1.1738779544830322,1.5661953687667847,1.3861470222473145
18199.81564811599,1.1829451322555542,1.1735540628433228,1.566681146621704,1.3866328001022339
18199.817648178316,1.1827832460403442,1.1730684041976929,1.566681146621704,1.386309027671814
18199.819648240642,1.1824593544006348,1.1727445125579834,1.566843032836914,1.3859851360321045
18199.82164830297,1.1824593544006348,1.1729063987731934,1.5660334825515747,1.3861470222473145
18199.823648365295,1.1834309101104736,1.1735540628433228,1.5653858184814453,1.3872804641723633
18199.82564842762,1.184402346611023,1.1732302904129028,1.5658715963363647,1.3876042366027832
18199.827648489947,1.184564232826233,1.1733921766281128,1.5665192604064941,1.386309027671814
18199.829648552273,1.184564232826233,1.1733921766281128,1.566843032836914,1.3867946863174438
18199.8316486146,1.1847261190414429,1.1732302904129028,1.566681146621704,1.3866328001022339
18199.833648676926,1.1821355819702148,1.1730684041976929,1.5658715963363647,1.386309027671814
18199.835648739252,1.1827832460403442,1.1730684041976929,1.566681146621704,1.386309027671814
18199.83764880158,1.1835927963256836,1.1738779544830322,1.5670050382614136,1.3858232498168945
18199.8396488639,1.1837546825408936,1.1732302904129028,1.5681383609771729,1.385499358177185
18199.841648926227,1.1829451322555542,1.1730684041976929,1.567814588546753,1.386470913887024
18199.843648988553,1.1852118968963623,1.1738779544830322,1.5673288106918335,1.3871185779571533
18199.84564905088,1.1853737831115723,1.1735540628433228,1.5676525831222534,1.3861470222473145
18199.847649113206,1.1848881244659424,1.1727445125579834,1.5673288106918335,1.3871185779571533
18199.849649175532,1.1855357885360718,1.1727445125579834,1.566843032836914,1.3871185779571533
18199.85164923786,1.1855357885360718,1.1735540628433228,1.5673288106918335,1.3880900144577026
18199.853649300185,1.1840784549713135,1.1740398406982422,1.5681383609771729,1.3880900144577026
18199.85564936251,1.184402346611023,1.1742017269134521,1.5686241388320923,1.3880900144577026
18199.857649424837,1.1856976747512817,1.1735540628433228,1.5681383609771729,1.3874423503875732
18199.859649487164,1.1861833333969116,1.1727445125579834,1.5689479112625122,1.3871185779571533
18199.86164954949,1.1853737831115723,1.1724207401275635,1.5684622526168823,1.3871185779571533
18199.863649611816,1.186507225036621,1.1733921766281128,1.5691099166870117,1.3879281282424927
18199.865649674142,1.186830997467041,1.1735540628433228,1.570243239402771,1.3876042366027832
18199.86764973647,1.186669111251831,1.1733921766281128,1.569919466972351,1.3872804641723633
18199.869649798795,1.1871548891067505,1.1732302904129028,1.5697574615478516,1.3872804641723633
18199.87164986112,1.1881263256072998,1.1729063987731934,1.5692718029022217,1.3872804641723633
18199.873649923447,1.1869930028915405,1.1730684041976929,1.5686241388320923,1.3872804641723633
18199.875649985774,1.1871548891067505,1.1724207401275635,1.5692718029022217,1.3874423503875732
18199.8776500481,1.1878025531768799,1.1732302904129028,1.5687860250473022,1.3879281282424927
18199.879650110423,1.1874786615371704,1.1737160682678223,1.5692718029022217,1.3879281282424927
18199.88165017275,1.1861833333969116,1.1730684041976929,1.5695955753326416,1.3879281282424927
18199.883650235075,1.1881263256072998,1.1730684041976929,1.5694336891174316,1.388737678527832
18199.8856502974,1.1874786615371704,1.1730684041976929,1.570081353187561,1.3876042366027832
18199.887650359728,1.18764066696167,1.1727445125579834,1.569919466972351,1.3877662420272827
18199.889650422054,1.1887739896774292,1.1732302904129028,1.570081353187561,1.3879281282424927
18199.89165048438,1.190069317817688,1.1732302904129028,1.5694336891174316,1.3882519006729126
18199.893650546706,1.1871548891067505,1.1738779544830322,1.5694336891174316,1.3882519006729126
18199.895650609033,1.1863453388214111,1.1740398406982422,1.5697574615478516,1.3880900144577026
18199.89765067136,1.186507225036621,1.1743637323379517,1.569919466972351,1.3877662420272827
18199.899650733685,1.1863453388214111,1.1742017269134521,1.570081353187561,1.3871185779571533
18199.90165079601,1.1860214471817017,1.1732302904129028,1.570081353187561,1.3880900144577026
18199.903650858338,1.18764066696167,1.1729063987731934,1.5695955753326416,1.3880900144577026
18199.905650920664,1.18764066696167,1.1729063987731934,1.5697574615478516,1.3882519006729126
18199.90765098299,1.1869930028915405,1.1729063987731934,1.570081353187561,1.3876042366027832
18199.909651045316,1.1874786615371704,1.1722588539123535,1.5695955753326416,1.3872804641723633
18199.911651107643,1.1884502172470093,1.1724207401275635,1.5689479112625122,1.3880900144577026
18199.91365116997,1.186669111251831,1.1730684041976929,1.5683002471923828,1.3876042366027832
18199.915651232295,1.186507225036621,1.1730684041976929,1.5686241388320923,1.388413906097412
18199.91765129462,1.186507225036621,1.1729063987731934,1.5687860250473022,1.3876042366027832
18199.919651356944,1.186830997467041,1.1729063987731934,1.5687860250473022,1.3869566917419434
18199.92165141927,1.1850500106811523,1.171934962272644,1.5681383609771729,1.3872804641723633
18199.923651481597,1.186830997467041,1.1729063987731934,1.5683002471923828,1.3877662420272827
18199.925651543923,1.1873167753219604,1.1733921766281128,1.5684622526168823,1.3876042366027832
18199.92765160625,1.1861833333969116,1.1725826263427734,1.5684622526168823,1.3879281282424927
18199.929651668575,1.1856976747512817,1.1724207401275635,1.5676525831222534,1.3893853425979614
18199.9316517309,1.1860214471817017,1.1725826263427734,1.5673288106918335,1.388575792312622
18199.933651793228,1.1853737831115723,1.172096848487854,1.5674906969070435,1.3879281282424927
18199.935651855554,1.1855357885360718,1.1716111898422241,1.5676525831222534,1.3866328001022339
18199.93765191788,1.1855357885360718,1.1714491844177246,1.566843032836914,1.3866328001022339
18199.939651980207,1.1858595609664917,1.1711254119873047,1.5674906969070435,1.3872804641723633
18199.941652042533,1.1848881244659424,1.171934962272644,1.5674906969070435,1.3872804641723633
18199.94365210486,1.186669111251831,1.1725826263427734,1.5673288106918335,1.3871185779571533
18199.945652167185,1.1871548891067505,1.1729063987731934,1.5674906969070435,1.3879281282424927
18199.94765222951,1.186507225036621,1.1732302904129028,1.5681383609771729,1.3880900144577026
18199.949652291838,1.186830997467041,1.1729063987731934,1.5676525831222534,1.3880900144577026
18199.951652354164,1.1874786615371704,1.1724207401275635,1.5681383609771729,1.388413906097412
18199.95365241649,1.1861833333969116,1.1729063987731934,1.5681383609771729,1.388575792312622
18199.955652478817,1.186669111251831,1.1727445125579834,1.5670050382614136,1.3882519006729126
18199.95765254114,1.1863453388214111,1.1722588539123535,1.5674906969070435,1.3877662420272827
18199.959652603466,1.1863453388214111,1.1732302904129028,1.5670050382614136,1.3871185779571533
18199.961652665792,1.1853737831115723,1.1727445125579834,1.5674906969070435,1.3872804641723633
18199.963652728118,1.186507225036621,1.1727445125579834,1.5681383609771729,1.388575792312622
18199.965652790444,1.1873167753219604,1.1732302904129028,1.5683002471923828,1.388575792312622
18199.96765285277,1.18764066696167,1.1725826263427734,1.5673288106918335,1.3877662420272827
18199.969652915097,1.1874786615371704,1.1724207401275635,1.5674906969070435,1.3879281282424927
18199.971652977423,1.1882882118225098,1.1732302904129028,1.5674906969070435,1.3880900144577026
18199.97365303975,1.186669111251831,1.171934962272644,1.5681383609771729,1.3879281282424927
18199.975653102076,1.186669111251831,1.172096848487854,1.567976474761963,1.3892234563827515
18199.977653164402,1.186830997467041,1.171773076057434,1.5673288106918335,1.3892234563827515
18199.97965322673,1.1873167753219604,1.1725826263427734,1.5676525831222534,1.388899564743042
18199.981653289055,1.186830997467041,1.172096848487854,1.567976474761963,1.3892234563827515
18199.98365335138,1.1881263256072998,1.1722588539123535,1.5683002471923828,1.388575792312622
18199.985653413707,1.1889358758926392,1.1724207401275635,1.5686241388320923,1.388575792312622
18199.987653476033,1.1892597675323486,1.1730684041976929,1.567976474761963,1.3892234563827515
18199.98965353836,1.190069317817688,1.1730684041976929,1.5681383609771729,1.389709234237671
18199.991653600686,1.1913646459579468,1.1732302904129028,1.5692718029022217,1.3893853425979614
18199.993653663012,1.1879644393920898,1.1730684041976929,1.5684622526168823,1.388413906097412
18199.99565372534,1.1882882118225098,1.1730684041976929,1.5683002471923828,1.388575792312622
18199.99765378766,1.1881263256072998,1.1732302904129028,1.567976474761963,1.388413906097412
18199.999653849987,1.1874786615371704,1.1729063987731934,1.5683002471923828,1.3877662420272827
18200.001653912313,1.1873167753219604,1.1732302904129028,1.5687860250473022,1.3877662420272827
18200.00365397464,1.1892597675323486,1.1727445125579834,1.5689479112625122,1.3892234563827515
18200.005654036966,1.1890978813171387,1.1729063987731934,1.5686241388320923,1.3898711204528809
18200.007654099292,1.1889358758926392,1.1732302904129028,1.5686241388320923,1.3898711204528809
18200.00965416162,1.1894216537475586,1.1725826263427734,1.5686241388320923,1.3893853425979614
18200.011654223945,1.189745545387268,1.1733921766281128,1.5683002471923828,1.3892234563827515
18200.01365428627,1.1878025531768799,1.1732302904129028,1.5676525831222534,1.3892234563827515
18200.015654348597,1.1871548891067505,1.1737160682678223,1.5683002471923828,1.389709234237671
18200.017654410924,1.1879644393920898,1.1743637323379517,1.5683002471923828,1.3905187845230103
18200.01965447325,1.1884502172470093,1.1743637323379517,1.5687860250473022,1.389709234237671
18200.021654535576,1.1887739896774292,1.1740398406982422,1.5683002471923828,1.389709234237671
18200.023654597902,1.189745545387268,1.1738779544830322,1.567976474761963,1.3895472288131714
18200.02565466023,1.189907431602478,1.1735540628433228,1.5684622526168823,1.3895472288131714
18200.027654722555,1.189907431602478,1.1735540628433228,1.5692718029022217,1.3898711204528809
18200.02965478488,1.190069317817688,1.1732302904129028,1.5694336891174316,1.3903567790985107
18200.031654847207,1.1908788681030273,1.1738779544830322,1.5705671310424805,1.3903567790985107
18200.033654909534,1.1895835399627686,1.1735540628433228,1.569919466972351,1.3900330066680908
18200.03565497186,1.1894216537475586,1.1735540628433228,1.569919466972351,1.3908425569534302
18200.037655034183,1.189745545387268,1.1732302904129028,1.569919466972351,1.392137885093689
18200.03965509651,1.189745545387268,1.1742017269134521,1.569919466972351,1.391814112663269
18200.041655158835,1.1890978813171387,1.1742017269134521,1.5695955753326416,1.3911664485931396
18200.04365522116,1.1912027597427368,1.1750112771987915,1.570243239402771,1.3916521072387695
18200.045655283488,1.1920123100280762,1.1748493909835815,1.5707290172576904,1.392137885093689
18200.047655345814,1.1913646459579468,1.175335168838501,1.5712147951126099,1.3924616575241089
18200.04965540814,1.1907169818878174,1.1759828329086304,1.5705671310424805,1.3914902210235596
18200.051655470466,1.1912027597427368,1.1763066053390503,1.570081353187561,1.3911664485931396
18200.053655532793,1.190393090248108,1.175335168838501,1.5695955753326416,1.3913283348083496
18200.05565559512,1.1907169818878174,1.1743637323379517,1.5697574615478516,1.3911664485931396
18200.057655657445,1.190231204032898,1.1743637323379517,1.570081353187561,1.3911664485931396
18200.05965571977,1.1890978813171387,1.1742017269134521,1.569919466972351,1.3914902210235596
18200.061655782098,1.1886121034622192,1.1743637323379517,1.5692718029022217,1.3908425569534302
18200.063655844424,1.189907431602478,1.1748493909835815,1.5689479112625122,1.391814112663269
18200.06565590675,1.189745545387268,1.1750112771987915,1.5683002471923828,1.3916521072387695
18200.067655969076,1.189907431602478,1.1745256185531616,1.5691099166870117,1.3913283348083496
18200.069656031403,1.189907431602478,1.1737160682678223,1.5684622526168823,1.3914902210235596
18200.07165609373,1.189907431602478,1.1732302904129028,1.5681383609771729,1.3906806707382202
18200.073656156055,1.1879644393920898,1.1730684041976929,1.567976474761963,1.3908425569534302
18200.07565621838,1.1882882118225098,1.1737160682678223,1.5681383609771729,1.3911664485931396
18200.077656280704,1.1879644393920898,1.1742017269134521,1.5674906969070435,1.3901948928833008
18200.07965634303,1.18764066696167,1.1740398406982422,1.5665192604064941,1.3905187845230103
18200.081656405357,1.1873167753219604,1.1732302904129028,1.566681146621704,1.3901948928833008
18200.083656467683,1.1882882118225098,1.1729063987731934,1.5663573741912842,1.3905187845230103
18200.08565653001,1.1881263256072998,1.171773076057434,1.566681146621704,1.3905187845230103
18200.087656592335,1.1879644393920898,1.1714491844177246,1.5670050382614136,1.3911664485931396
18200.08965665466,1.1882882118225098,1.1722588539123535,1.5661953687667847,1.3908425569534302
18200.091656716988,1.1884502172470093,1.1724207401275635,1.5663573741912842,1.3901948928833008
18200.093656779314,1.1871548891067505,1.1725826263427734,1.5658715963363647,1.3900330066680908
18200.09565684164,1.1863453388214111,1.172096848487854,1.5660334825515747,1.3892234563827515
18200.097656903967,1.1858595609664917,1.171934962272644,1.5658715963363647,1.3892234563827515
18200.099656966293,1.1858595609664917,1.171773076057434,1.5657097101211548,1.388737678527832
18200.10165702862,1.1850500106811523,1.171934962272644,1.5650620460510254,1.388899564743042
18200.103657090945,1.1871548891067505,1.1724207401275635,1.5640904903411865,1.3893853425979614
18200.10565715327,1.1863453388214111,1.1724207401275635,1.5649000406265259,1.388575792312622
18200.107657215598,1.1858595609664917,1.1716111898422241,1.5639286041259766,1.388575792312622
18200.109657277924,1.1869930028915405,1.1714491844177246,1.564576268196106,1.3892234563827515
18200.11165734025,1.1873167753219604,1.1709635257720947,1.564576268196106,1.389709234237671
18200.113657402577,1.1856976747512817,1.1708015203475952,1.5650620460510254,1.3890615701675415
18200.115657464903,1.1863453388214111,1.1714491844177246,1.564576268196106,1.3892234563827515
18200.117657527226,1.1855357885360718,1.1712872982025146,1.564414381980896,1.388575792312622
18200.119657589552,1.1853737831115723,1.1712872982025146,1.564738154411316,1.388737678527832
18200.12165765188,1.1852118968963623,1.1714491844177246,1.564738154411316,1.3893853425979614
18200.123657714204,1.186669111251831,1.171773076057434,1.564738154411316,1.3895472288131714
18200.12565777653,1.186507225036621,1.1714491844177246,1.5650620460510254,1.3898711204528809
18200.127657838857,1.1863453388214111,1.171773076057434,1.566681146621704,1.389709234237671
18200.129657901183,1.186830997467041,1.1709635257720947,1.5657097101211548,1.3898711204528809
18200.13165796351,1.1879644393920898,1.1712872982025146,1.5653858184814453,1.3890615701675415
18200.133658025836,1.1861833333969116,1.171773076057434,1.5652239322662354,1.389709234237671
18200.135658088162,1.1856976747512817,1.1727445125579834,1.564576268196106,1.3900330066680908
18200.13765815049,1.1863453388214111,1.1729063987731934,1.564576268196106,1.3890615701675415
18200.139658212815,1.1863453388214111,1.1724207401275635,1.564576268196106,1.388899564743042
18200.14165827514,1.1848881244659424,1.172096848487854,1.564252495765686,1.3900330066680908
18200.143658337467,1.186507225036621,1.1716111898422241,1.564414381980896,1.3905187845230103
18200.145658399793,1.186507225036621,1.1716111898422241,1.564738154411316,1.3898711204528809
18200.14765846212,1.1852118968963623,1.171934962272644,1.5650620460510254,1.389709234237671
18200.149658524446,1.1850500106811523,1.1727445125579834,1.5649000406265259,1.3892234563827515
18200.151658586772,1.186507225036621,1.172096848487854,1.5637667179107666,1.388413906097412
18200.1536586491,1.1852118968963623,1.172096848487854,1.5636048316955566,1.388413906097412
18200.155658711425,1.1852118968963623,1.172096848487854,1.564414381980896,1.388899564743042
18200.157658773747,1.1852118968963623,1.172096848487854,1.564738154411316,1.3890615701675415
18200.159658836074,1.1855357885360718,1.1709635257720947,1.564414381980896,1.3892234563827515
18200.1616588984,1.184564232826233,1.1709635257720947,1.5636048316955566,1.3893853425979614
18200.163658960726,1.1861833333969116,1.1714491844177246,1.564576268196106,1.389709234237671
18200.165659023052,1.1861833333969116,1.1714491844177246,1.5650620460510254,1.389709234237671
18200.16765908538,1.1858595609664917,1.1724207401275635,1.5650620460510254,1.3898711204528809
18200.169659147705,1.186507225036621,1.1727445125579834,1.564252495765686,1.3898711204528809
18200.17165921003,1.1873167753219604,1.172096848487854,1.5640904903411865,1.3898711204528809
18200.173659272357,1.1856976747512817,1.172096848487854,1.564738154411316,1.3893853425979614
18200.175659334684,1.1856976747512817,1.172096848487854,1.5655477046966553,1.3895472288131714
18200.17765939701,1.1850500106811523,1.171773076057434,1.5660334825515747,1.3900330066680908
18200.179659459336,1.1853737831115723,1.1722588539123535,1.5658715963363647,1.388899564743042
18200.181659521662,1.184240460395813,1.171934962272644,1.5657097101211548,1.3900330066680908
18200.18365958399,1.1863453388214111,1.171934962272644,1.564252495765686,1.3908425569534302
18200.185659646315,1.1871548891067505,1.1722588539123535,1.5652239322662354,1.3893853425979614
18200.18765970864,1.1879644393920898,1.1725826263427734,1.5663573741912842,1.3892234563827515
18200.189659770967,1.1879644393920898,1.1727445125579834,1.5660334825515747,1.3903567790985107
18200.191659833294,1.1881263256072998,1.1737160682678223,1.5665192604064941,1.3903567790985107
18200.19365989562,1.1871548891067505,1.1732302904129028,1.566843032836914,1.3908425569534302
18200.195659957943,1.1874786615371704,1.1730684041976929,1.5674906969070435,1.3910044431686401
18200.19766002027,1.1874786615371704,1.1730684041976929,1.567814588546753,1.3911664485931396
18200.199660082595,1.18764066696167,1.1729063987731934,1.567814588546753,1.3908425569534302
18200.20166014492,1.1874786615371704,1.1730684041976929,1.5674906969070435,1.3913283348083496
18200.203660207248,1.1890978813171387,1.1729063987731934,1.5676525831222534,1.3911664485931396
18200.205660269574,1.1895835399627686,1.1735540628433228,1.5671669244766235,1.3911664485931396
18200.2076603319,1.1892597675323486,1.1745256185531616,1.5673288106918335,1.3916521072387695
18200.209660394226,1.190393090248108,1.1738779544830322,1.5673288106918335,1.392299771308899
18200.211660456553,1.1908788681030273,1.1722588539123535,1.5683002471923828,1.3913283348083496
18200.21366051888,1.189745545387268,1.1725826263427734,1.5681383609771729,1.3911664485931396
18200.215660581205,1.1894216537475586,1.1725826263427734,1.5681383609771729,1.3911664485931396
18200.21766064353,1.1889358758926392,1.1722588539123535,1.567976474761963,1.3900330066680908
18200.219660705858,1.1882882118225098,1.1727445125579834,1.5684622526168823,1.3900330066680908
18200.221660768184,1.1878025531768799,1.1727445125579834,1.567976474761963,1.3905187845230103
18200.22366083051,1.189745545387268,1.1732302904129028,1.5681383609771729,1.3911664485931396
18200.225660892836,1.190069317817688,1.1732302904129028,1.567976474761963,1.3903567790985107
18200.227660955163,1.189907431602478,1.1727445125579834,1.567814588546753,1.3903567790985107
18200.22966101749,1.189745545387268,1.1727445125579834,1.5673288106918335,1.3911664485931396
18200.231661079815,1.189907431602478,1.172096848487854,1.566843032836914,1.3905187845230103
18200.23366114214,1.1887739896774292,1.1724207401275635,1.566843032836914,1.3906806707382202
18200.235661204464,1.1869930028915405,1.1724207401275635,1.566843032836914,1.3906806707382202
18200.23766126679,1.186507225036621,1.1727445125579834,1.5673288106918335,1.3908425569534302
18200.239661329117,1.186669111251831,1.1724207401275635,1.566681146621704,1.3903567790985107
18200.241661391443,1.1861833333969116,1.1714491844177246,1.5660334825515747,1.3900330066680908
18200.24366145377,1.1874786615371704,1.1716111898422241,1.5655477046966553,1.3900330066680908
18200.245661516095,1.1873167753219604,1.171934962272644,1.5652239322662354,1.3901948928833008
18200.24766157842,1.186830997467041,1.1725826263427734,1.5652239322662354,1.3901948928833008
18200.249661640748,1.1869930028915405,1.1729063987731934,1.5650620460510254,1.3911664485931396
18200.251661703074,1.18764066696167,1.1727445125579834,1.5649000406265259,1.3906806707382202
18200.2536617654,1.1853737831115723,1.1722588539123535,1.5653858184814453,1.3898711204528809
18200.255661827727,1.1855357885360718,1.1722588539123535,1.5652239322662354,1.3906806707382202
18200.257661890053,1.1858595609664917,1.171934962272644,1.564252495765686,1.3901948928833008
18200.25966195238,1.1858595609664917,1.171773076057434,1.5637667179107666,1.3895472288131714
18200.261662014706,1.1855357885360718,1.1724207401275635,1.564252495765686,1.3895472288131714
18200.26366207703,1.1873167753219604,1.1725826263427734,1.564576268196106,1.3901948928833008
18200.265662139358,1.1869930028915405,1.1732302904129028,1.5660334825515747,1.3903567790985107
18200.267662201684,1.1869930028915405,1.1724207401275635,1.5657097101211548,1.3901948928833008
18200.26966226401,1.1873167753219604,1.1724207401275635,1.5649000406265259,1.3905187845230103
18200.271662326337,1.18764066696167,1.1727445125579834,1.5650620460510254,1.3906806707382202
18200.273662388663,1.1860214471817017,1.1724207401275635,1.5652239322662354,1.3908425569534302
18200.275662450986,1.1861833333969116,1.1724207401275635,1.5655477046966553,1.3906806707382202
18200.277662513312,1.1860214471817017,1.171934962272644,1.5657097101211548,1.3910044431686401
18200.27966257564,1.186507225036621,1.172096848487854,1.5658715963363647,1.3910044431686401
18200.281662637964,1.186830997467041,1.1729063987731934,1.5658715963363647,1.3911664485931396
18200.28366270029,1.1882882118225098,1.1735540628433228,1.5655477046966553,1.3911664485931396
18200.285662762617,1.1884502172470093,1.1737160682678223,1.5660334825515747,1.391814112663269
18200.287662824943,1.1879644393920898,1.1740398406982422,1.5665192604064941,1.3910044431686401
18200.28966288727,1.18764066696167,1.1732302904129028,1.566681146621704,1.3910044431686401
18200.291662949596,1.1882882118225098,1.1725826263427734,1.5665192604064941,1.391975998878479
18200.293663011922,1.186669111251831,1.1729063987731934,1.566843032836914,1.3913283348083496
18200.29566307425,1.186507225036621,1.1733921766281128,1.5670050382614136,1.3914902210235596
18200.297663136575,1.1871548891067505,1.1737160682678223,1.566843032836914,1.3911664485931396
18200.2996631989,1.1879644393920898,1.1738779544830322,1.5665192604064941,1.3911664485931396
18200.301663261227,1.18764066696167,1.1725826263427734,1.5670050382614136,1.391814112663269
18200.303663323553,1.1884502172470093,1.1725826263427734,1.5671669244766235,1.3926236629486084
18200.30566338588,1.1890978813171387,1.1725826263427734,1.5657097101211548,1.392137885093689
18200.307663448206,1.1895835399627686,1.1727445125579834,1.5652239322662354,1.391814112663269
18200.309663510532,1.189745545387268,1.1722588539123535,1.5657097101211548,1.3913283348083496
18200.31166357286,1.190069317817688,1.1724207401275635,1.5660334825515747,1.391814112663269
18200.313663635185,1.1879644393920898,1.1729063987731934,1.5665192604064941,1.3913283348083496
18200.315663697507,1.1882882118225098,1.1729063987731934,1.5650620460510254,1.3913283348083496
18200.317663759834,1.1886121034622192,1.1732302904129028,1.5658715963363647,1.3901948928833008
18200.31966382216,1.1882882118225098,1.1727445125579834,1.5663573741912842,1.3908425569534302
18200.321663884486,1.1874786615371704,1.1724207401275635,1.5663573741912842,1.3910044431686401
18200.323663946812,1.1889358758926392,1.1724207401275635,1.5653858184814453,1.392137885093689
18200.32566400914,1.1879644393920898,1.1727445125579834,1.5653858184814453,1.3926236629486084
18200.327664071465,1.1882882118225098,1.172096848487854,1.5657097101211548,1.3916521072387695
18200.32966413379,1.1886121034622192,1.1716111898422241,1.5652239322662354,1.391975998878479
18200.331664196117,1.1886121034622192,1.1716111898422241,1.5636048316955566,1.3910044431686401
18200.333664258444,1.186669111251831,1.1716111898422241,1.5629571676254272,1.3916521072387695
18200.33566432077,1.1856976747512817,1.171934962272644,1.5631190538406372,1.3910044431686401
18200.337664383096,1.1850500106811523,1.1714491844177246,1.5619856119155884,1.3911664485931396
18200.339664445422,1.1856976747512817,1.1712872982025146,1.5616618394851685,1.3903567790985107
18200.34166450775,1.1848881244659424,1.1709635257720947,1.5614999532699585,1.3898711204528809
18200.343664570075,1.1858595609664917,1.1716111898422241,1.5626332759857178,1.3901948928833008
18200.3456646324,1.1858595609664917,1.171934962272644,1.5627951622009277,1.3901948928833008
18200.347664694727,1.1855357885360718,1.1711254119873047,1.561337947845459,1.3908425569534302
18200.349664757054,1.1855357885360718,1.1699919700622559,1.561176061630249,1.3906806707382202
18200.35166481938,1.1860214471817017,1.169668197631836,1.561337947845459,1.3905187845230103
18200.353664881703,1.184564232826233,1.1693443059921265,1.561337947845459,1.3898711204528809
18200.35566494403,1.184564232826233,1.1691824197769165,1.561176061630249,1.3890615701675415
18200.357665006355,1.1847261190414429,1.1690205335617065,1.5605283975601196,1.3892234563827515
18200.35966506868,1.1834309101104736,1.169506311416626,1.558909296989441,1.3892234563827515
18200.361665131008,1.1826212406158447,1.1703158617019653,1.557937741279602,1.3895472288131714
18200.363665193334,1.1847261190414429,1.1703158617019653,1.5580997467041016,1.3900330066680908
18200.36566525566,1.1852118968963623,1.1704777479171753,1.557937741279602,1.3900330066680908
18200.367665317986,1.1837546825408936,1.1691824197769165,1.5572901964187622,1.3892234563827515
18200.369665380313,1.1840784549713135,1.1691824197769165,1.5568044185638428,1.3900330066680908
18200.37166544264,1.1848881244659424,1.1691824197769165,1.5574520826339722,1.3901948928833008
18200.373665504965,1.1834309101104736,1.1690205335617065,1.5572901964187622,1.3893853425979614
18200.37566556729,1.1829451322555542,1.1690205335617065,1.5576139688491821,1.388899564743042
18200.377665629618,1.1824593544006348,1.169506311416626,1.5572901964187622,1.3893853425979614
18200.379665691944,1.1821355819702148,1.1693443059921265,1.5566425323486328,1.3892234563827515
18200.38166575427,1.1816498041152954,1.1691824197769165,1.5564805269241333,1.3895472288131714
18200.383665816596,1.1840784549713135,1.1690205335617065,1.5563186407089233,1.389709234237671
18200.385665878923,1.184564232826233,1.169830083847046,1.555832862854004,1.388737678527832
18200.38766594125,1.1840784549713135,1.1699919700622559,1.555670976638794,1.388575792312622
18200.389666003575,1.1832689046859741,1.1699919700622559,1.5561567544937134,1.3893853425979614
18200.3916660659,1.184564232826233,1.1693443059921265,1.5564805269241333,1.3892234563827515
18200.393666128224,1.1839165687561035,1.169506311416626,1.5571281909942627,1.389709234237671
18200.39566619055,1.1839165687561035,1.169830083847046,1.5571281909942627,1.3903567790985107
18200.397666252877,1.1847261190414429,1.1699919700622559,1.5576139688491821,1.3903567790985107
18200.399666315203,1.1850500106811523,1.169668197631836,1.5584235191345215,1.389709234237671
18200.40166637753,1.1848881244659424,1.1701538562774658,1.558909296989441,1.3898711204528809
18200.403666439855,1.1871548891067505,1.1699919700622559,1.5602046251296997,1.3910044431686401
18200.40566650218,1.1879644393920898,1.1712872982025146,1.5605283975601196,1.3913283348083496
18200.407666564508,1.1890978813171387,1.1712872982025146,1.5614999532699585,1.392299771308899
18200.409666626834,1.1895835399627686,1.1706396341323853,1.5616618394851685,1.3927855491638184
18200.41166668916,1.1921741962432861,1.1711254119873047,1.562147617340088,1.3932713270187378
18200.413666751487,1.1915265321731567,1.1711254119873047,1.564252495765686,1.3932713270187378
18200.415666813813,1.1916884183883667,1.1711254119873047,1.5640904903411865,1.3935950994491577
18200.41766687614,1.1915265321731567,1.1711254119873047,1.5640904903411865,1.3935950994491577
18200.419666938466,1.1921741962432861,1.1727445125579834,1.564576268196106,1.3939189910888672
18200.42166700079,1.192336082458496,1.1729063987731934,1.5660334825515747,1.394566535949707
18200.423667063118,1.195412516593933,1.1730684041976929,1.5661953687667847,1.3956999778747559
18200.425667125444,1.1968697309494019,1.1729063987731934,1.566681146621704,1.3956999778747559
18200.42766718777,1.195898175239563,1.1730684041976929,1.567976474761963,1.3969953060150146
18200.429667250097,1.1963839530944824,1.1730684041976929,1.567814588546753,1.3971571922302246
18200.431667312423,1.1968697309494019,1.172096848487854,1.5686241388320923,1.3963476419448853
18200.433667374746,1.195736289024353,1.1730684041976929,1.5686241388320923,1.3966715335845947
18200.435667437072,1.1963839530944824,1.1733921766281128,1.5692718029022217,1.3971571922302246
18200.4376674994,1.1968697309494019,1.1727445125579834,1.5691099166870117,1.3968334197998047
18200.439667561724,1.1970316171646118,1.1735540628433228,1.5694336891174316,1.3968334197998047
18200.44166762405,1.1973553895950317,1.1750112771987915,1.570081353187561,1.3969953060150146
18200.443667686377,1.198974609375,1.1748493909835815,1.5713766813278198,1.397804856300354
18200.445667748703,1.1986507177352905,1.1740398406982422,1.5712147951126099,1.397481083869934
18200.44766781103,1.19913649559021,1.1738779544830322,1.5707290172576904,1.3963476419448853
18200.449667873356,1.198974609375,1.1743637323379517,1.5720243453979492,1.3973190784454346
18200.451667935682,1.19881272315979,1.1742017269134521,1.5720243453979492,1.397966742515564
18200.45366799801,1.1968697309494019,1.1740398406982422,1.5720243453979492,1.3965095281600952
18200.455668060335,1.1980030536651611,1.1745256185531616,1.5721862316131592,1.3958618640899658
18200.45766812266,1.1981650590896606,1.1743637323379517,1.5713766813278198,1.3958618640899658
18200.459668184987,1.1968697309494019,1.1742017269134521,1.5712147951126099,1.3958618640899658
18200.461668247313,1.1965458393096924,1.1735540628433228,1.5707290172576904,1.3966715335845947
18200.46366830964,1.1976792812347412,1.1742017269134521,1.5707290172576904,1.3965095281600952
18200.465668371966,1.1978411674499512,1.1738779544830322,1.5710527896881104,1.3961857557296753
18200.467668434292,1.1978411674499512,1.1743637323379517,1.5712147951126099,1.395376205444336
18200.46966849662,1.1970316171646118,1.1730684041976929,1.5708909034729004,1.3963476419448853
18200.471668558945,1.1976792812347412,1.1730684041976929,1.569919466972351,1.3958618640899658
18200.473668621267,1.1960601806640625,1.1730684041976929,1.5691099166870117,1.3947285413742065
18200.475668683594,1.195412516593933,1.1730684041976929,1.5683002471923828,1.3937569856643677
18200.47766874592,1.1947648525238037,1.1724207401275635,1.5681383609771729,1.3929474353790283
18200.479668808246,1.193469524383545,1.1730684041976929,1.5683002471923828,1.3934332132339478
18200.481668870572,1.1921741962432861,1.1733921766281128,1.5686241388320923,1.3937569856643677
18200.4836689329,1.1928218603134155,1.1727445125579834,1.567976474761963,1.3934332132339478
18200.485668995225,1.193307638168335,1.1732302904129028,1.566843032836914,1.3932713270187378
18200.48766905755,1.1920123100280762,1.1727445125579834,1.566843032836914,1.3926236629486084
18200.489669119877,1.1921741962432861,1.1716111898422241,1.5660334825515747,1.3937569856643677
18200.491669182204,1.1921741962432861,1.172096848487854,1.5655477046966553,1.3929474353790283
18200.49366924453,1.190231204032898,1.1709635257720947,1.5655477046966553,1.391975998878479
18200.495669306856,1.1894216537475586,1.1709635257720947,1.5649000406265259,1.3913283348083496
18200.497669369182,1.1895835399627686,1.1716111898422241,1.5649000406265259,1.3914902210235596
18200.49966943151,1.1882882118225098,1.1706396341323853,1.564738154411316,1.3913283348083496
18200.501669493835,1.186669111251831,1.1703158617019653,1.5639286041259766,1.3910044431686401
18200.50366955616,1.1886121034622192,1.1706396341323853,1.5639286041259766,1.3901948928833008
18200.505669618487,1.1889358758926392,1.1708015203475952,1.564252495765686,1.3898711204528809
18200.507669680814,1.1886121034622192,1.1704777479171753,1.5637667179107666,1.3900330066680908
18200.50966974314,1.1887739896774292,1.169830083847046,1.5639286041259766,1.3910044431686401
18200.511669805463,1.1892597675323486,1.1699919700622559,1.5639286041259766,1.3900330066680908
18200.51366986779,1.1874786615371704,1.1691824197769165,1.5639286041259766,1.3895472288131714
18200.515669930115,1.1871548891067505,1.169506311416626,1.5632809400558472,1.389709234237671
18200.51766999244,1.1871548891067505,1.169668197631836,1.5632809400558472,1.3890615701675415
18200.519670054768,1.186830997467041,1.1699919700622559,1.5631190538406372,1.388575792312622
18200.521670117094,1.1863453388214111,1.169506311416626,1.5626332759857178,1.3880900144577026
18200.52367017942,1.186830997467041,1.1690205335617065,1.562147617340088,1.388413906097412
18200.525670241746,1.186507225036621,1.1690205335617065,1.5626332759857178,1.3876042366027832
18200.527670304073,1.1863453388214111,1.168696641921997,1.5623095035552979,1.3877662420272827
18200.5296703664,1.1871548891067505,1.168534755706787,1.5634428262710571,1.388413906097412
18200.531670428725,1.1878025531768799,1.168696641921997,1.564414381980896,1.3877662420272827
18200.53367049105,1.186507225036621,1.169506311416626,1.5649000406265259,1.3874423503875732
18200.535670553378,1.18764066696167,1.169668197631836,1.564576268196106,1.3871185779571533
18200.537670615704,1.1879644393920898,1.1693443059921265,1.5657097101211548,1.3871185779571533
18200.53967067803,1.1879644393920898,1.1691824197769165,1.5655477046966553,1.3874423503875732
18200.541670740356,1.1871548891067505,1.168534755706787,1.5655477046966553,1.3879281282424927
18200.543670802683,1.1881263256072998,1.168534755706787,1.5655477046966553,1.3877662420272827
18200.54567086501,1.1882882118225098,1.1701538562774658,1.5660334825515747,1.3877662420272827
18200.547670927335,1.1890978813171387,1.1699919700622559,1.5665192604064941,1.3876042366027832
18200.54967098966,1.1895835399627686,1.1691824197769165,1.566843032836914,1.388413906097412
18200.551671051984,1.189745545387268,1.1699919700622559,1.566843032836914,1.388575792312622
18200.55367111431,1.1884502172470093,1.1703158617019653,1.5671669244766235,1.3882519006729126
18200.555671176637,1.1892597675323486,1.1704777479171753,1.5671669244766235,1.3876042366027832
18200.557671238963,1.1894216537475586,1.1701538562774658,1.567976474761963,1.3876042366027832
18200.55967130129,1.1907169818878174,1.1706396341323853,1.5683002471923828,1.388413906097412
18200.561671363615,1.1895835399627686,1.1704777479171753,1.5694336891174316,1.388413906097412
18200.56367142594,1.1913646459579468,1.1711254119873047,1.5694336891174316,1.388737678527832
18200.565671488268,1.1916884183883667,1.1708015203475952,1.5684622526168823,1.3890615701675415
18200.567671550594,1.1913646459579468,1.1699919700622559,1.5692718029022217,1.3892234563827515
18200.56967161292,1.1910407543182373,1.169830083847046,1.570081353187561,1.3882519006729126
18200.571671675247,1.1918504238128662,1.169668197631836,1.570243239402771,1.3882519006729126
18200.573671737573,1.1912027597427368,1.1699919700622559,1.570081353187561,1.3882519006729126
18200.5756717999,1.1905550956726074,1.169668197631836,1.5697574615478516,1.3871185779571533
18200.577671862226,1.1907169818878174,1.1703158617019653,1.570243239402771,1.3874423503875732
18200.57967192455,1.190393090248108,1.1699919700622559,1.5710527896881104,1.3877662420272827
18200.581671986878,1.189907431602478,1.169830083847046,1.5713766813278198,1.3882519006729126
18200.583672049204,1.1918504238128662,1.1703158617019653,1.569919466972351,1.3893853425979614
18200.58567211153,1.1913646459579468,1.1703158617019653,1.570243239402771,1.388413906097412
18200.587672173857,1.1916884183883667,1.1706396341323853,1.5697574615478516,1.3879281282424927
18200.589672236183,1.192336082458496,1.1699919700622559,1.5707290172576904,1.3871185779571533
18200.591672298506,1.193307638168335,1.1701538562774658,1.5708909034729004,1.3877662420272827
18200.593672360832,1.1912027597427368,1.169506311416626,1.5720243453979492,1.3882519006729126
18200.59567242316,1.1905550956726074,1.1690205335617065,1.5723481178283691,1.388737678527832
18200.597672485485,1.1913646459579468,1.169830083847046,1.5718624591827393,1.3882519006729126
18200.59967254781,1.1915265321731567,1.1706396341323853,1.5708909034729004,1.388575792312622
18200.601672610137,1.1908788681030273,1.1706396341323853,1.5710527896881104,1.3895472288131714
18200.603672672463,1.192336082458496,1.1703158617019653,1.570243239402771,1.3898711204528809
18200.60567273479,1.1921741962432861,1.1704777479171753,1.5710527896881104,1.3892234563827515
18200.607672797116,1.1924980878829956,1.1699919700622559,1.5718624591827393,1.388575792312622
18200.609672859442,1.1920123100280762,1.1703158617019653,1.5713766813278198,1.388899564743042
18200.61167292177,1.1928218603134155,1.1699919700622559,1.5705671310424805,1.3880900144577026
18200.613672984095,1.192336082458496,1.169830083847046,1.5717004537582397,1.3867946863174438
18200.61567304642,1.1916884183883667,1.1711254119873047,1.5721862316131592,1.388899564743042
18200.617673108747,1.1913646459579468,1.1712872982025146,1.5723481178283691,1.388899564743042
18200.619673171073,1.1918504238128662,1.1711254119873047,1.5715385675430298,1.3876042366027832
18200.6216732334,1.1910407543182373,1.1712872982025146,1.5712147951126099,1.3879281282424927
18200.623673295726,1.192336082458496,1.171934962272644,1.5717004537582397,1.3879281282424927
18200.625673358052,1.1929837465286255,1.1714491844177246,1.5713766813278198,1.3877662420272827
18200.62767342038,1.192336082458496,1.1708015203475952,1.5718624591827393,1.3882519006729126
18200.629673482705,1.1913646459579468,1.1708015203475952,1.5715385675430298,1.388575792312622
18200.631673545027,1.1926599740982056,1.1716111898422241,1.5718624591827393,1.388737678527832
18200.633673607354,1.1913646459579468,1.1716111898422241,1.5723481178283691,1.3879281282424927
18200.63567366968,1.1908788681030273,1.1714491844177246,1.5728338956832886,1.3877662420272827
18200.637673732006,1.1916884183883667,1.1716111898422241,1.5718624591827393,1.3877662420272827
18200.639673794332,1.1905550956726074,1.171773076057434,1.5715385675430298,1.3871185779571533
18200.64167385666,1.1892597675323486,1.1709635257720947,1.5720243453979492,1.3866328001022339
18200.643673918985,1.1907169818878174,1.1714491844177246,1.573481559753418,1.3876042366027832
18200.64567398131,1.189745545387268,1.171773076057434,1.5729957818984985,1.3879281282424927
18200.647674043637,1.189745545387268,1.1716111898422241,1.5726720094680786,1.3880900144577026
18200.649674105964,1.190069317817688,1.1714491844177246,1.5721862316131592,1.3877662420272827
18200.65167416829,1.190393090248108,1.171773076057434,1.5718624591827393,1.3876042366027832
18200.653674230616,1.1879644393920898,1.1712872982025146,1.5718624591827393,1.386470913887024
18200.655674292942,1.1882882118225098,1.1711254119873047,1.5717004537582397,1.386470913887024
18200.65767435527,1.1890978813171387,1.1709635257720947,1.5718624591827393,1.3871185779571533
18200.659674417595,1.1889358758926392,1.1712872982025146,1.5720243453979492,1.3861470222473145
18200.66167447992,1.1878025531768799,1.1716111898422241,1.5718624591827393,1.386309027671814
18200.663674542247,1.1890978813171387,1.171934962272644,1.5720243453979492,1.3872804641723633
18200.665674604574,1.1886121034622192,1.1716111898422241,1.5720243453979492,1.3869566917419434
18200.6676746669,1.1886121034622192,1.1712872982025146,1.5718624591827393,1.3871185779571533
18200.669674729223,1.1894216537475586,1.1709635257720947,1.5713766813278198,1.3876042366027832
18200.67167479155,1.190069317817688,1.1703158617019653,1.572510004043579,1.3877662420272827
18200.673674853875,1.1884502172470093,1.1708015203475952,1.5726720094680786,1.3858232498168945
18200.6756749162,1.1878025531768799,1.1708015203475952,1.5721862316131592,1.3861470222473145
18200.677674978528,1.186507225036621,1.1714491844177246,1.5717004537582397,1.3851755857467651
18200.679675040854,1.1856976747512817,1.1709635257720947,1.5723481178283691,1.3856613636016846
18200.68167510318,1.1856976747512817,1.1699919700622559,1.572510004043579,1.385337471961975
18200.683675165506,1.1873167753219604,1.1701538562774658,1.5717004537582397,1.3859851360321045
18200.685675227833,1.1869930028915405,1.1708015203475952,1.5713766813278198,1.3859851360321045
18200.68767529016,1.1874786615371704,1.1712872982025146,1.5712147951126099,1.3859851360321045
18200.689675352485,1.1878025531768799,1.1724207401275635,1.5712147951126099,1.386309027671814
18200.69167541481,1.1882882118225098,1.1727445125579834,1.5717004537582397,1.3861470222473145
18200.693675477138,1.1863453388214111,1.1732302904129028,1.5718624591827393,1.3866328001022339
18200.695675539464,1.1860214471817017,1.1727445125579834,1.5718624591827393,1.3866328001022339
18200.69767560179,1.1861833333969116,1.1725826263427734,1.5712147951126099,1.3867946863174438
18200.699675664117,1.1852118968963623,1.172096848487854,1.5712147951126099,1.3866328001022339
18200.701675726443,1.1847261190414429,1.1729063987731934,1.5707290172576904,1.386309027671814
18200.70367578877,1.1869930028915405,1.1725826263427734,1.570405125617981,1.3877662420272827
18200.705675851095,1.186507225036621,1.1727445125579834,1.570405125617981,1.3877662420272827
18200.70767591342,1.1858595609664917,1.1733921766281128,1.5710527896881104,1.3871185779571533
18200.709675975748,1.1860214471817017,1.1733921766281128,1.5721862316131592,1.386470913887024
18200.71167603807,1.1874786615371704,1.1725826263427734,1.5721862316131592,1.3872804641723633
18200.713676100397,1.1858595609664917,1.172096848487854,1.5726720094680786,1.3866328001022339
18200.715676162723,1.1858595609664917,1.171934962272644,1.5721862316131592,1.3871185779571533
18200.71767622505,1.1856976747512817,1.1727445125579834,1.5710527896881104,1.3867946863174438
18200.719676287375,1.1861833333969116,1.1729063987731934,1.5707290172576904,1.3869566917419434
18200.7216763497,1.1855357885360718,1.1733921766281128,1.5710527896881104,1.3866328001022339
18200.723676412028,1.186830997467041,1.1738779544830322,1.5713766813278198,1.3866328001022339
18200.725676474354,1.186669111251831,1.1742017269134521,1.5718624591827393,1.3856613636016846
18200.72767653668,1.1855357885360718,1.1748493909835815,1.5726720094680786,1.386309027671814
18200.729676599007,1.186669111251831,1.1750112771987915,1.572510004043579,1.386309027671814
18200.731676661333,1.1878025531768799,1.1759828329086304,1.5723481178283691,1.3858232498168945
18200.73367672366,1.1861833333969116,1.175335168838501,1.5728338956832886,1.3856613636016846
18200.735676785986,1.186507225036621,1.1750112771987915,1.573319673538208,1.3874423503875732
18200.737676848312,1.1860214471817017,1.1748493909835815,1.5729957818984985,1.3876042366027832
18200.739676910638,1.1858595609664917,1.1745256185531616,1.5729957818984985,1.3872804641723633
18200.741676972964,1.1861833333969116,1.1738779544830322,1.572510004043579,1.3869566917419434
18200.74367703529,1.1873167753219604,1.1740398406982422,1.5723481178283691,1.386309027671814
18200.745677097617,1.18764066696167,1.1745256185531616,1.5728338956832886,1.386470913887024
18200.747677159943,1.1879644393920898,1.1746875047683716,1.573643445968628,1.3872804641723633
18200.749677222266,1.1871548891067505,1.1746875047683716,1.573319673538208,1.3872804641723633
18200.751677284592,1.1884502172470093,1.1743637323379517,1.5731576681137085,1.3871185779571533
18200.75367734692,1.1871548891067505,1.1745256185531616,1.5723481178283691,1.386309027671814
18200.755677409245,1.186830997467041,1.1746875047683716,1.5721862316131592,1.386309027671814
18200.75767747157,1.186830997467041,1.1748493909835815,1.5729957818984985,1.386470913887024
18200.759677533897,1.1861833333969116,1.1750112771987915,1.573319673538208,1.3867946863174438
18200.761677596223,1.1856976747512817,1.175173282623291,1.573481559753418,1.386309027671814
18200.76367765855,1.186507225036621,1.175497055053711,1.573643445968628,1.3874423503875732
18200.765677720876,1.1856976747512817,1.1750112771987915,1.572510004043579,1.3877662420272827
18200.767677783202,1.1856976747512817,1.175497055053711,1.5739673376083374,1.386470913887024
18200.76967784553,1.1860214471817017,1.1758209466934204,1.5742911100387573,1.3858232498168945
18200.771677907855,1.1869930028915405,1.1748493909835815,1.5739673376083374,1.385499358177185
18200.77367797018,1.1853737831115723,1.1746875047683716,1.5739673376083374,1.3848518133163452
18200.775678032507,1.1853737831115723,1.1746875047683716,1.573319673538208,1.3850136995315552
18200.777678094833,1.1856976747512817,1.175173282623291,1.572510004043579,1.385499358177185
18200.77967815716,1.1855357885360718,1.1745256185531616,1.5723481178283691,1.3858232498168945
18200.781678219486,1.1839165687561035,1.1750112771987915,1.5723481178283691,1.3859851360321045
18200.783678281812,1.1855357885360718,1.1740398406982422,1.5721862316131592,1.3856613636016846
18200.78567834414,1.1860214471817017,1.1742017269134521,1.5726720094680786,1.3858232498168945
18200.787678406465,1.1858595609664917,1.175335168838501,1.5729957818984985,1.3858232498168945
18200.789678468787,1.1855357885360718,1.1758209466934204,1.5731576681137085,1.386470913887024
18200.791678531114,1.1861833333969116,1.1758209466934204,1.572510004043579,1.3866328001022339
18200.79367859344,1.1847261190414429,1.175658941268921,1.5721862316131592,1.3856613636016846
18200.795678655766,1.1837546825408936,1.175497055053711,1.572510004043579,1.385499358177185
18200.797678718092,1.1839165687561035,1.175335168838501,1.5728338956832886,1.3851755857467651
18200.79967878042,1.1831070184707642,1.1758209466934204,1.573319673538208,1.385337471961975
18200.801678842745,1.1821355819702148,1.175497055053711,1.5728338956832886,1.3843660354614258
18200.80367890507,1.184240460395813,1.175658941268921,1.5728338956832886,1.3850136995315552
18200.805678967397,1.184240460395813,1.1746875047683716,1.5731576681137085,1.3856613636016846
18200.807679029724,1.184564232826233,1.1745256185531616,1.573319673538208,1.3856613636016846
18200.80967909205,1.1847261190414429,1.1746875047683716,1.5739673376083374,1.385499358177185
18200.811679154376,1.1852118968963623,1.175335168838501,1.5746148824691772,1.3851755857467651
18200.813679216702,1.1839165687561035,1.1761447191238403,1.5741292238235474,1.3848518133163452
18200.81567927903,1.184564232826233,1.1761447191238403,1.5741292238235474,1.3848518133163452
18200.817679341355,1.1839165687561035,1.1761447191238403,1.5742911100387573,1.3848518133163452
18200.81967940368,1.184240460395813,1.1758209466934204,1.573805332183838,1.385499358177185
18200.821679466007,1.1840784549713135,1.1759828329086304,1.5731576681137085,1.385337471961975
18200.823679528334,1.1852118968963623,1.1759828329086304,1.5739673376083374,1.385499358177185
18200.82567959066,1.1848881244659424,1.1759828329086304,1.573643445968628,1.385337471961975
18200.827679652986,1.1850500106811523,1.1758209466934204,1.573643445968628,1.3858232498168945
18200.82967971531,1.1856976747512817,1.175335168838501,1.5742911100387573,1.3867946863174438
18200.831679777635,1.1858595609664917,1.175173282623291,1.5747768878936768,1.3871185779571533
18200.83367983996,1.1847261190414429,1.175173282623291,1.5754245519638062,1.3856613636016846
18200.835679902288,1.1850500106811523,1.1758209466934204,1.5749387741088867,1.385337471961975
18200.837679964614,1.1850500106811523,1.1761447191238403,1.5746148824691772,1.3858232498168945
18200.83968002694,1.184564232826233,1.1763066053390503,1.5747768878936768,1.3851755857467651
18200.841680089266,1.1840784549713135,1.1764686107635498,1.5739673376083374,1.3850136995315552
18200.843680151593,1.1861833333969116,1.175173282623291,1.5739673376083374,1.3856613636016846
18200.84568021392,1.1863453388214111,1.175335168838501,1.5749387741088867,1.3861470222473145
18200.847680276245,1.1855357885360718,1.175658941268921,1.5746148824691772,1.385337471961975
18200.84968033857,1.186507225036621,1.175335168838501,1.5742911100387573,1.386309027671814
18200.851680400898,1.1874786615371704,1.175335168838501,1.5752625465393066,1.3859851360321045
18200.853680463224,1.1861833333969116,1.175658941268921,1.5762341022491455,1.385337471961975
18200.85568052555,1.1850500106811523,1.1759828329086304,1.5751006603240967,1.3846898078918457
18200.857680587877,1.184564232826233,1.1759828329086304,1.5749387741088867,1.3842041492462158
18200.859680650203,1.1847261190414429,1.1759828329086304,1.5749387741088867,1.3837183713912964
18200.86168071253,1.184402346611023,1.1769542694091797,1.5747768878936768,1.3843660354614258
18200.863680774855,1.1855357885360718,1.1769542694091797,1.5744529962539673,1.385337471961975
18200.86568083718,1.1856976747512817,1.1767923831939697,1.5742911100387573,1.385499358177185
18200.867680899508,1.1856976747512817,1.1763066053390503,1.575748324394226,1.3856613636016846
18200.86968096183,1.1855357885360718,1.1764686107635498,1.5751006603240967,1.3858232498168945
18200.871681024157,1.1861833333969116,1.1764686107635498,1.5749387741088867,1.3858232498168945
18200.873681086483,1.1847261190414429,1.175173282623291,1.5755864381790161,1.385337471961975
18200.87568114881,1.1850500106811523,1.175497055053711,1.575910210609436,1.385337471961975
18200.877681211135,1.1850500106811523,1.175658941268921,1.5752625465393066,1.3850136995315552
18200.87968127346,1.1848881244659424,1.1750112771987915,1.5749387741088867,1.3843660354614258
18200.881681335788,1.1835927963256836,1.175335168838501,1.5744529962539673,1.3848518133163452
18200.883681398114,1.1850500106811523,1.1759828329086304,1.5744529962539673,1.385499358177185
18200.88568146044,1.1855357885360718,1.1764686107635498,1.573805332183838,1.3843660354614258
18200.887681522767,1.1853737831115723,1.1759828329086304,1.573643445968628,1.3842041492462158
18200.889681585093,1.1848881244659424,1.1758209466934204,1.5721862316131592,1.3850136995315552
18200.89168164742,1.1855357885360718,1.175658941268921,1.5721862316131592,1.3851755857467651
18200.893681709746,1.1832689046859741,1.175658941268921,1.5720243453979492,1.3842041492462158
18200.895681772072,1.1832689046859741,1.1748493909835815,1.5728338956832886,1.3845279216766357
18200.897681834398,1.1832689046859741,1.175497055053711,1.5723481178283691,1.3843660354614258
18200.899681896724,1.1824593544006348,1.1750112771987915,1.573319673538208,1.383394479751587
18200.90168195905,1.1819735765457153,1.1745256185531616,1.5731576681137085,1.383070707321167
18200.903682021377,1.1834309101104736,1.1743637323379517,1.5731576681137085,1.382746934890747
18200.905682083703,1.1829451322555542,1.1745256185531616,1.5726720094680786,1.383394479751587
18200.907682146026,1.1818116903305054,1.1748493909835815,1.5721862316131592,1.3835564851760864
18200.909682208352,1.1829451322555542,1.1748493909835815,1.5717004537582397,1.3838802576065063
18200.91168227068,1.1839165687561035,1.1743637323379517,1.5717004537582397,1.382908821105957
18200.913682333005,1.1824593544006348,1.1737160682678223,1.5720243453979492,1.3825849294662476
18200.91568239533,1.1822974681854248,1.1738779544830322,1.5717004537582397,1.3825849294662476
18200.917682457657,1.1818116903305054,1.1742017269134521,1.5720243453979492,1.382908821105957
18200.919682519983,1.1816498041152954,1.1745256185531616,1.5718624591827393,1.3824230432510376
18200.92168258231,1.181164026260376,1.1737160682678223,1.5715385675430298,1.3820992708206177
18200.923682644636,1.1831070184707642,1.1732302904129028,1.5717004537582397,1.3822611570358276
18200.925682706962,1.1831070184707642,1.1735540628433228,1.5718624591827393,1.383070707321167
18200.92768276929,1.1824593544006348,1.1733921766281128,1.5729957818984985,1.383394479751587
18200.929682831615,1.1827832460403442,1.1733921766281128,1.573481559753418,1.382908821105957
18200.93168289394,1.1852118968963623,1.1738779544830322,1.5729957818984985,1.3837183713912964
18200.933682956267,1.184564232826233,1.1740398406982422,1.5723481178283691,1.382908821105957
18200.935683018593,1.1832689046859741,1.1735540628433228,1.5723481178283691,1.3822611570358276
18200.93768308092,1.1829451322555542,1.1737160682678223,1.5728338956832886,1.382908821105957
18200.939683143246,1.1831070184707642,1.1743637323379517,1.5731576681137085,1.3837183713912964
18200.941683205572,1.1832689046859741,1.1737160682678223,1.573319673538208,1.382908821105957
18200.9436832679,1.184564232826233,1.1740398406982422,1.573319673538208,1.3825849294662476
18200.945683330225,1.184240460395813,1.1732302904129028,1.573319673538208,1.3837183713912964
18200.947683392547,1.1840784549713135,1.1738779544830322,1.573319673538208,1.383232593536377
18200.949683454874,1.1847261190414429,1.1737160682678223,1.573319673538208,1.382908821105957
18200.9516835172,1.1855357885360718,1.1743637323379517,1.5731576681137085,1.3811277151107788
18200.953683579526,1.184564232826233,1.1750112771987915,1.573481559753418,1.3822611570358276
18200.955683641852,1.1847261190414429,1.1743637323379517,1.573643445968628,1.382746934890747
18200.95768370418,1.1837546825408936,1.1740398406982422,1.5739673376083374,1.383232593536377
18200.959683766505,1.1831070184707642,1.1743637323379517,1.5744529962539673,1.3825849294662476
18200.96168382883,1.1831070184707642,1.1742017269134521,1.5744529962539673,1.3825849294662476
18200.963683891157,1.184402346611023,1.175173282623291,1.5746148824691772,1.382908821105957
18200.965683953484,1.1847261190414429,1.1748493909835815,1.5754245519638062,1.3820992708206177
18200.96768401581,1.1855357885360718,1.175173282623291,1.5755864381790161,1.383394479751587
18200.969684078136,1.1860214471817017,1.1743637323379517,1.5754245519638062,1.3837183713912964
18200.971684140462,1.1863453388214111,1.175173282623291,1.5744529962539673,1.382908821105957
18200.97368420279,1.1847261190414429,1.175335168838501,1.5746148824691772,1.382746934890747
18200.975684265115,1.184564232826233,1.1750112771987915,1.5755864381790161,1.3837183713912964
18200.97768432744,1.1855357885360718,1.1742017269134521,1.5760722160339355,1.383232593536377
18200.979684389767,1.1861833333969116,1.1745256185531616,1.5762341022491455,1.382908821105957
18200.981684452094,1.1852118968963623,1.1745256185531616,1.5760722160339355,1.383070707321167
18200.98368451442,1.186507225036621,1.175173282623291,1.575748324394226,1.383232593536377
18200.985684576746,1.1871548891067505,1.175173282623291,1.5762341022491455,1.383232593536377
18200.98768463907,1.186830997467041,1.175497055053711,1.575910210609436,1.3840421438217163
18200.989684701395,1.1878025531768799,1.175658941268921,1.575748324394226,1.3842041492462158
18200.99168476372,1.1884502172470093,1.1759828329086304,1.5770436525344849,1.3835564851760864
18200.993684826048,1.18764066696167,1.1750112771987915,1.576881766319275,1.382746934890747
18200.995684888374,1.1873167753219604,1.1746875047683716,1.5765578746795654,1.382746934890747
18200.9976849507,1.186669111251831,1.1746875047683716,1.576881766319275,1.383070707321167
18200.999685013026,1.1873167753219604,1.175335168838501,1.5781770944595337,1.3837183713912964
18201.001685075353,1.186507225036621,1.175173282623291,1.5781770944595337,1.3840421438217163
18201.00368513768,1.1878025531768799,1.175497055053711,1.5786627531051636,1.3851755857467651
18201.005685200005,1.1884502172470093,1.175497055053711,1.5783389806747437,1.3842041492462158
18201.00768526233,1.1881263256072998,1.175497055053711,1.5772055387496948,1.3838802576065063
18201.009685324658,1.1882882118225098,1.175173282623291,1.5772055387496948,1.3843660354614258
18201.011685386984,1.1887739896774292,1.1758209466934204,1.576719880104065,1.3840421438217163
18201.01368544931,1.186669111251831,1.1745256185531616,1.5765578746795654,1.3835564851760864
18201.015685511637,1.1856976747512817,1.1745256185531616,1.5765578746795654,1.3837183713912964
18201.017685573963,1.1863453388214111,1.175173282623291,1.5773674249649048,1.3835564851760864
18201.01968563629,1.186669111251831,1.1759828329086304,1.5781770944595337,1.382908821105957
18201.021685698615,1.1858595609664917,1.175173282623291,1.576719880104065,1.383394479751587
18201.02368576094,1.186669111251831,1.1750112771987915,1.576719880104065,1.383394479751587
18201.025685823268,1.1873167753219604,1.1743637323379517,1.576881766319275,1.382746934890747
18201.02768588559,1.1874786615371704,1.1746875047683716,1.5770436525344849,1.383394479751587
18201.029685947917,1.18764066696167,1.1740398406982422,1.5772055387496948,1.3840421438217163
18201.031686010243,1.189745545387268,1.1748493909835815,1.5770436525344849,1.3835564851760864
18201.03368607257,1.1869930028915405,1.175658941268921,1.5775294303894043,1.383394479751587
18201.035686134896,1.1863453388214111,1.175335168838501,1.5776913166046143,1.3837183713912964
18201.03768619722,1.186507225036621,1.1742017269134521,1.576881766319275,1.3835564851760864
18201.039686259548,1.186507225036621,1.1737160682678223,1.5773674249649048,1.3842041492462158
18201.041686321874,1.1860214471817017,1.1745256185531616,1.5781770944595337,1.382746934890747
18201.0436863842,1.1871548891067505,1.1740398406982422,1.5785008668899536,1.3835564851760864
18201.045686446527,1.1879644393920898,1.1733921766281128,1.5775294303894043,1.3837183713912964
18201.047686508853,1.18764066696167,1.1735540628433228,1.576881766319275,1.3835564851760864
18201.04968657118,1.1881263256072998,1.1733921766281128,1.5760722160339355,1.383394479751587
18201.051686633506,1.1884502172470093,1.1740398406982422,1.5762341022491455,1.383394479751587
18201.053686695832,1.1863453388214111,1.1742017269134521,1.575910210609436,1.383232593536377
18201.055686758158,1.1863453388214111,1.1735540628433228,1.5760722160339355,1.3843660354614258
18201.057686820484,1.186830997467041,1.1730684041976929,1.575748324394226,1.3842041492462158
18201.05968688281,1.1860214471817017,1.1733921766281128,1.5760722160339355,1.383394479751587
18201.061686945137,1.1856976747512817,1.1729063987731934,1.5763959884643555,1.383394479751587
18201.063687007463,1.1874786615371704,1.1738779544830322,1.5763959884643555,1.383394479751587
18201.065687069786,1.1874786615371704,1.1742017269134521,1.575748324394226,1.383070707321167
18201.067687132112,1.1871548891067505,1.1737160682678223,1.5762341022491455,1.383232593536377
18201.06968719444,1.1873167753219604,1.1729063987731934,1.575910210609436,1.383070707321167
18201.071687256765,1.1878025531768799,1.1724207401275635,1.575748324394226,1.383070707321167
18201.07368731909,1.1861833333969116,1.1732302904129028,1.5762341022491455,1.3825849294662476
18201.075687381417,1.1861833333969116,1.1743637323379517,1.5762341022491455,1.3825849294662476
18201.077687443743,1.186830997467041,1.1743637323379517,1.575748324394226,1.382908821105957
18201.07968750607,1.1871548891067505,1.1745256185531616,1.5755864381790161,1.382908821105957
18201.081687568396,1.1855357885360718,1.175173282623291,1.5754245519638062,1.383394479751587
18201.083687630722,1.1874786615371704,1.175173282623291,1.575910210609436,1.383070707321167
18201.08568769305,1.1881263256072998,1.1740398406982422,1.5763959884643555,1.383394479751587
18201.087687755375,1.1879644393920898,1.1735540628433228,1.5765578746795654,1.3837183713912964
18201.0896878177,1.1881263256072998,1.1740398406982422,1.5763959884643555,1.3842041492462158
18201.091687880027,1.1895835399627686,1.1740398406982422,1.5763959884643555,1.3845279216766357
18201.093687942353,1.1892597675323486,1.1740398406982422,1.576719880104065,1.3845279216766357
18201.09568800468,1.1882882118225098,1.1742017269134521,1.576719880104065,1.3843660354614258
18201.097688067006,1.1881263256072998,1.1743637323379517,1.5770436525344849,1.3851755857467651
18201.099688129332,1.1878025531768799,1.1750112771987915,1.5770436525344849,1.3848518133163452
18201.10168819166,1.1871548891067505,1.175658941268921,1.5775294303894043,1.3843660354614258
18201.103688253985,1.1892597675323486,1.1750112771987915,1.5780150890350342,1.3842041492462158
18201.105688316307,1.1894216537475586,1.1735540628433228,1.5780150890350342,1.3851755857467651
18201.107688378634,1.1895835399627686,1.1750112771987915,1.5775294303894043,1.385337471961975
18201.10968844096,1.1892597675323486,1.1750112771987915,1.5772055387496948,1.3848518133163452
18201.111688503286,1.1907169818878174,1.1742017269134521,1.5772055387496948,1.383232593536377
18201.113688565612,1.1882882118225098,1.1732302904129028,1.5773674249649048,1.382908821105957
18201.11568862794,1.1887739896774292,1.1745256185531616,1.5773674249649048,1.3843660354614258
18201.117688690265,1.1884502172470093,1.1746875047683716,1.5770436525344849,1.3843660354614258
18201.11968875259,1.1878025531768799,1.1745256185531616,1.576881766319275,1.3838802576065063
18201.121688814917,1.1878025531768799,1.1746875047683716,1.575748324394226,1.3837183713912964
18201.123688877244,1.1895835399627686,1.1746875047683716,1.5763959884643555,1.3840421438217163
18201.12568893957,1.190069317817688,1.1743637323379517,1.575910210609436,1.3842041492462158
18201.127689001896,1.1889358758926392,1.1737160682678223,1.5752625465393066,1.383232593536377
18201.129689064222,1.1890978813171387,1.1743637323379517,1.5755864381790161,1.383232593536377
18201.13168912655,1.1887739896774292,1.1746875047683716,1.5751006603240967,1.382908821105957
18201.133689188875,1.1863453388214111,1.1735540628433228,1.5747768878936768,1.3822611570358276
18201.1356892512,1.1860214471817017,1.1745256185531616,1.5747768878936768,1.383232593536377
18201.137689313528,1.1869930028915405,1.1746875047683716,1.5752625465393066,1.3838802576065063
18201.139689375854,1.18764066696167,1.1746875047683716,1.5760722160339355,1.3842041492462158
18201.14168943818,1.1869930028915405,1.1740398406982422,1.5754245519638062,1.3842041492462158
18201.143689500506,1.1881263256072998,1.1745256185531616,1.575748324394226,1.3840421438217163
18201.14568956283,1.1886121034622192,1.1746875047683716,1.5751006603240967,1.3837183713912964
18201.147689625155,1.1884502172470093,1.1742017269134521,1.5752625465393066,1.3837183713912964
18201.14968968748,1.1889358758926392,1.1742017269134521,1.575748324394226,1.3843660354614258
18201.151689749808,1.189745545387268,1.175497055053711,1.575910210609436,1.3851755857467651
18201.153689812134,1.1884502172470093,1.1750112771987915,1.5765578746795654,1.3851755857467651
18201.15568987446,1.1887739896774292,1.1738779544830322,1.5776913166046143,1.3850136995315552
18201.157689936786,1.1890978813171387,1.1746875047683716,1.5770436525344849,1.3848518133163452
18201.159689999113,1.1894216537475586,1.1743637323379517,1.5763959884643555,1.3846898078918457
18201.16169006144,1.1887739896774292,1.1740398406982422,1.576719880104065,1.3851755857467651
18201.163690123765,1.1916884183883667,1.1735540628433228,1.576719880104065,1.386309027671814
18201.16569018609,1.1918504238128662,1.1735540628433228,1.576881766319275,1.3866328001022339
18201.167690248418,1.1913646459579468,1.1737160682678223,1.5775294303894043,1.386470913887024
18201.169690310744,1.1921741962432861,1.1737160682678223,1.5785008668899536,1.3866328001022339
18201.17169037307,1.1931456327438354,1.1742017269134521,1.5785008668899536,1.386470913887024
18201.173690435397,1.1913646459579468,1.1745256185531616,1.5785008668899536,1.3861470222473145
18201.175690497723,1.1910407543182373,1.1738779544830322,1.5780150890350342,1.3869566917419434
18201.17769056005,1.1916884183883667,1.1735540628433228,1.5778532028198242,1.386309027671814
18201.179690622375,1.192336082458496,1.1737160682678223,1.5776913166046143,1.385499358177185
18201.1816906847,1.1918504238128662,1.1740398406982422,1.5778532028198242,1.3859851360321045
18201.183690747028,1.1926599740982056,1.1740398406982422,1.5783389806747437,1.3866328001022339
18201.18569080935,1.1924980878829956,1.1732302904129028,1.579148530960083,1.3866328001022339
