0,1
14353.540678668985,7658.0
14353.540741166196,7034.0
14353.540803663409,7296.0
14353.540866160622,8063.0
14353.540928657834,8663.0
14353.540991155047,9219.0
14353.54105365226,9674.0
14353.541116149472,9390.0
14353.541178646685,8007.0
14353.541241143897,5992.0
14353.54130364111,4025.0
14353.54136613832,2629.0
14353.541428635534,2094.0
14353.541491132746,2412.0
14353.541553629959,3289.0
14353.541616127171,4103.0
14353.541678624384,4341.0
14353.541741121597,3999.0
14353.54180361881,3313.0
14353.541866116022,2292.0
14353.541928613235,1046.0
14353.541991110447,-115.0
14353.54205360766,-1147.0
14353.54211610487,-2230.0
14353.542178602083,-3600.0
14353.542241099296,-5408.0
14353.542303596509,-7695.0
14353.542366093721,-10378.0
14353.542428590934,-13664.0
14353.542491088147,-17921.0
14353.54255358536,-22658.0
14353.542616082572,-26976.0
14353.542678579784,-30897.0
14353.542741076995,-32718.0
14353.542803574208,-32768.0
14353.54286607142,-31946.0
14353.542928568633,-27099.0
14353.542991065846,-16946.0
14353.543053563058,-5179.0
14353.543116060271,4751.0
14353.543178557484,11926.0
14353.543241054696,15824.0
14353.543303551909,15324.0
14353.543366049122,11738.0
14353.543428546334,7377.0
14353.543491043545,2217.0
14353.543553540758,-3188.0
14353.54361603797,-6253.0
14353.543678535183,-4769.0
14353.543741032396,240.0
14353.543803529608,4957.0
14353.543866026821,5349.0
14353.543928524034,2300.0
14353.543991021246,-1559.0
14353.544053518459,-4702.0
14353.54411601567,-5605.0
14353.544178512882,-2393.0
14353.544241010095,3597.0
14353.544303507308,8923.0
14353.54436600452,12690.0
14353.544428501733,14688.0
14353.544490998946,13516.0
14353.544553496158,9310.0
14353.54461599337,4299.0
14353.544678490583,-99.0
14353.544740987796,-2977.0
14353.544803485009,-2956.0
14353.54486598222,277.0
14353.544928479432,5053.0
14353.544990976645,9348.0
14353.545053473857,11720.0
14353.54511597107,11624.0
14353.545178468283,9895.0
14353.545240965495,7669.0
14353.545303462708,5767.0
14353.54536595992,5333.0
14353.545428457133,6970.0
14353.545490954344,9228.0
14353.545553451557,10965.0
14353.54561594877,12253.0
14353.545678445982,12433.0
14353.545740943195,10884.0
14353.545803440407,8139.0
14353.54586593762,5222.0
14353.545928434833,2756.0
14353.545990932045,1380.0
14353.546053429258,1379.0
14353.54611592647,2398.0
14353.546178423683,3552.0
14353.546240920894,4373.0
14353.546303418107,4509.0
14353.54636591532,3922.0
14353.546428412532,3032.0
14353.546490909745,1854.0
14353.546553406957,604.0
14353.54661590417,-161.0
14353.546678401382,-464.0
14353.546740898595,-603.0
14353.546803395808,-907.0
14353.546865893019,-1833.0
14353.546928390231,-3828.0
14353.546990887444,-6346.0
14353.547053384656,-8980.0
14353.54711588187,-11924.0
14353.547178379082,-15272.0
14353.547240876294,-18945.0
14353.547303373507,-22806.0
14353.54736587072,-26649.0
14353.547428367932,-29825.0
14353.547490865145,-31624.0
14353.547553362356,-32658.0
14353.547615859568,-32111.0
14353.547678356781,-27503.0
14353.547740853994,-18042.0
14353.547803351206,-7853.0
14353.547865848419,611.0
14353.547928345632,7755.0
14353.547990842844,12535.0
14353.548053340057,13303.0
14353.54811583727,11103.0
14353.548178334482,7295.0
14353.548240831693,3005.0
14353.548303328906,668.0
14353.548365826118,523.0
14353.54842832333,-517.0
14353.548490820544,-2405.0
14353.548553317756,-2953.0
14353.548615814969,-3464.0
14353.548678312181,-4354.0
14353.548740809394,-3802.0
14353.548803306607,-1871.0
14353.54886580382,-361.0
14353.54892830103,2110.0
14353.548990798243,5898.0
14353.549053295455,8890.0
14353.549115792668,10825.0
14353.54917828988,11833.0
14353.549240787093,10708.0
14353.549303284306,7803.0
14353.549365781519,5298.0
14353.549428278731,3761.0
14353.549490775944,2835.0
14353.549553273157,3143.0
14353.549615770367,4098.0
14353.54967826758,4940.0
14353.549740764793,6351.0
14353.549803262005,7699.0
14353.549865759218,7956.0
14353.54992825643,7976.0
14353.549990753643,8222.0
14353.550053250856,7948.0
14353.550115748068,7710.0
14353.550178245281,8628.0
14353.550240742494,9587.0
14353.550303239705,9823.0
14353.550365736917,9938.0
14353.55042823413,10011.0
14353.550490731343,9400.0
14353.550553228555,8627.0
14353.550615725768,7764.0
14353.55067822298,6703.0
14353.550740720193,5944.0
14353.550803217406,5482.0
14353.550865714618,4836.0
14353.55092821183,4287.0
14353.550990709042,3868.0
14353.551053206254,3037.0
14353.551115703467,2068.0
14353.55117820068,1647.0
14353.551240697892,1471.0
14353.551303195105,1207.0
14353.551365692318,1047.0
14353.55142818953,808.0
14353.551490686743,33.0
14353.551553183956,-1317.0
14353.551615681168,-3293.0
14353.551678178379,-5942.0
14353.551740675592,-9065.0
14353.551803172804,-12457.0
14353.551865670017,-16266.0
14353.55192816723,-20276.0
14353.551990664442,-24044.0
14353.552053161655,-27641.0
14353.552115658867,-30390.0
14353.55217815608,-31812.0
14353.552240653293,-32622.0
14353.552303150504,-32292.0
14353.552365647716,-27934.0
14353.552428144929,-19236.0
14353.552490642141,-10568.0
14353.552553139354,-3108.0
14353.552615636567,3958.0
14353.55267813378,9045.0
14353.552740630992,10599.0
14353.552803128205,10206.0
14353.552865625417,8496.0
14353.55292812263,4797.0
14353.552990619843,603.0
14353.553053117053,-1993.0
14353.553115614266,-3389.0
14353.553178111479,-3688.0
14353.553240608691,-3232.0
14353.553303105904,-2734.0
14353.553365603117,-2430.0
14353.55342810033,-1559.0
14353.553490597542,-315.0
14353.553553094755,1252.0
14353.553615591967,3672.0
14353.553678089178,6006.0
14353.55374058639,7512.0
14353.553803083603,8891.0
14353.553865580816,10019.0
14353.553928078029,9901.0
14353.553990575241,8595.0
14353.554053072454,6899.0
14353.554115569666,4773.0
14353.55417806688,2787.0
14353.554240564092,2171.0
14353.554303061304,2961.0
14353.554365558517,4306.0
14353.554428055728,5867.0
14353.55449055294,7178.0
14353.554553050153,8131.0
14353.554615547366,8904.0
14353.554678044578,9538.0
14353.554740541791,9912.0
14353.554803039004,10076.0
14353.554865536216,10139.0
14353.554928033429,10150.0
14353.554990530642,10306.0
14353.555053027852,10667.0
14353.555115525065,10616.0
14353.555178022278,9877.0
14353.55524051949,8572.0
14353.555303016703,7022.0
14353.555365513916,5737.0
14353.555428011128,5144.0
14353.55549050834,5003.0
14353.555553005554,4945.0
14353.555615502766,4858.0
14353.555677999979,4666.0
14353.555740497191,4288.0
14353.555802994402,3759.0
14353.555865491615,3146.0
14353.555927988828,2453.0
14353.55599048604,1889.0
14353.556052983253,1537.0
14353.556115480465,1227.0
14353.556177977678,659.0
14353.55624047489,-492.0
14353.556302972103,-2345.0
14353.556365469316,-4692.0
14353.556427966527,-6989.0
14353.55649046374,-9246.0
14353.556552960952,-11855.0
14353.556615458165,-14917.0
14353.556677955377,-18226.0
14353.55674045259,-21715.0
14353.556802949803,-25532.0
14353.556865447015,-28798.0
14353.556927944228,-30577.0
14353.55699044144,-31571.0
14353.557052938653,-32610.0
14353.557115435866,-30924.0
14353.557177933077,-24353.0
14353.55724043029,-15876.0
14353.557302927502,-8384.0
14353.557365424715,-1008.0
14353.557427921927,5488.0
14353.55749041914,8513.0
14353.557552916353,9284.0
14353.557615413565,9451.0
14353.557677910778,7600.0
14353.55774040799,3792.0
14353.557802905201,586.0
14353.557865402414,-1605.0
14353.557927899627,-3137.0
14353.55799039684,-3535.0
14353.558052894052,-3069.0
14353.558115391264,-2566.0
14353.558177888477,-1887.0
14353.55824038569,-944.0
14353.558302882902,167.0
14353.558365380115,1991.0
14353.558427877328,4205.0
14353.558490374538,5804.0
14353.558552871751,7296.0
14353.558615368964,8880.0
14353.558677866176,9514.0
14353.558740363389,9140.0
14353.558802860602,8357.0
14353.558865357814,6891.0
14353.558927855027,4818.0
14353.55899035224,3388.0
14353.559052849452,3054.0
14353.559115346665,3632.0
14353.559177843876,4972.0
14353.559240341088,6354.0
14353.559302838301,7584.0
14353.559365335514,8761.0
14353.559427832726,9664.0
14353.559490329939,10010.0
14353.559552827151,10272.0
14353.559615324364,10372.0
14353.559677821577,9907.0
14353.55974031879,9488.0
14353.559802816002,9596.0
14353.559865313213,9789.0
14353.559927810426,9694.0
14353.559990307638,9320.0
14353.56005280485,8701.0
14353.560115302063,7891.0
14353.560177799276,7217.0
14353.560240296489,6644.0
14353.560302793701,6076.0
14353.560365290914,5446.0
14353.560427788127,4809.0
14353.56049028534,4020.0
14353.56055278255,3474.0
14353.560615279763,3148.0
14353.560677776975,2670.0
14353.560740274188,2186.0
14353.5608027714,1735.0
14353.560865268613,1150.0
14353.560927765826,480.0
14353.560990263039,-154.0
14353.561052760251,-1146.0
14353.561115257464,-2781.0
14353.561177754676,-4877.0
14353.561240251887,-7336.0
14353.5613027491,-10210.0
14353.561365246313,-13583.0
14353.561427743525,-17248.0
14353.561490240738,-21149.0
14353.56155273795,-24895.0
14353.561615235163,-27685.0
14353.561677732376,-29179.0
14353.561740229588,-29971.0
14353.561802726801,-31209.0
14353.561865224012,-31306.0
14353.561927721224,-27499.0
14353.561990218437,-20550.0
14353.56205271565,-13365.0
14353.562115212862,-6445.0
14353.562177710075,446.0
14353.562240207288,5699.0
14353.5623027045,8654.0
14353.562365201713,9954.0
14353.562427698926,9747.0
14353.562490196138,7332.0
14353.56255269335,3691.0
14353.562615190562,270.0
14353.562677687774,-1737.0
14353.562740184987,-2485.0
14353.5628026822,-2708.0
14353.562865179412,-2584.0
14353.562927676625,-1924.0
14353.562990173838,-1344.0
14353.56305267105,-754.0
14353.563115168263,840.0
14353.563177665475,3054.0
14353.563240162686,4667.0
14353.563302659899,5817.0
14353.563365157112,7349.0
14353.563427654324,8624.0
14353.563490151537,9074.0
14353.56355264875,8972.0
14353.563615145962,8209.0
14353.563677643175,6560.0
14353.563740140387,4670.0
14353.5638026376,3448.0
14353.563865134813,3187.0
14353.563927632025,4254.0
14353.563990129236,5955.0
14353.564052626449,7485.0
14353.564115123661,8613.0
14353.564177620874,9672.0
14353.564240118087,10136.0
14353.5643026153,10229.0
14353.564365112512,10375.0
14353.564427609725,10460.0
14353.564490106937,10050.0
14353.56455260415,9743.0
14353.56461510136,10060.0
14353.564677598573,10295.0
14353.564740095786,10028.0
14353.564802592999,9344.0
14353.564865090211,8463.0
14353.564927587424,7520.0
14353.564990084637,6724.0
14353.56505258185,5988.0
14353.565115079062,5424.0
14353.565177576274,5055.0
14353.565240073487,4605.0
14353.5653025707,4105.0
14353.56536506791,3782.0
14353.565427565123,3670.0
14353.565490062336,3237.0
14353.565552559548,2769.0
14353.565615056761,2400.0
14353.565677553974,1914.0
14353.565740051186,1154.0
14353.565802548399,71.0
14353.565865045612,-1560.0
14353.565927542824,-3728.0
14353.565990040035,-6250.0
14353.566052537248,-9091.0
14353.56611503446,-12257.0
14353.566177531673,-15675.0
14353.566240028886,-19280.0
14353.566302526098,-22983.0
14353.566365023311,-26253.0
14353.566427520524,-28435.0
14353.566490017736,-29387.0
14353.566552514949,-30446.0
14353.566615012161,-32039.0
14353.566677509374,-31482.0
14353.566740006585,-26338.0
14353.566802503798,-18559.0
14353.56686500101,-11091.0
14353.566927498223,-3681.0
14353.566989995436,3341.0
14353.567052492648,7711.0
14353.56711498986,9477.0
14353.567177487073,10226.0
14353.567239984286,8990.0
14353.567302481499,5322.0
14353.56736497871,1435.0
14353.567427475922,-948.0
14353.567489973135,-2424.0
14353.567552470347,-2722.0
14353.56761496756,-1872.0
14353.567677464773,-1307.0
14353.567739961985,-1378.0
14353.567802459198,-1019.0
14353.56786495641,30.0
14353.567927453623,1607.0
14353.567989950836,3706.0
14353.568052448049,5603.0
14353.56811494526,7162.0
14353.568177442472,8673.0
14353.568239939685,9696.0
14353.568302436897,9591.0
14353.56836493411,8749.0
14353.568427431323,7685.0
14353.568489928535,5771.0
14353.568552425748,3713.0
14353.56861492296,3028.0
14353.568677420173,3562.0
14353.568739917384,4555.0
14353.568802414597,6703.0
14353.56886491181,9370.0
14353.568927409022,10985.0
14353.568989906234,11120.0
14353.569052403447,11171.0
14353.56911490066,10957.0
14353.569177397872,10237.0
14353.569239895085,9744.0
14353.569302392298,9616.0
14353.56936488951,9625.0
14353.569427386721,9982.0
14353.569489883934,10482.0
14353.569552381146,10403.0
14353.569614878359,9798.0
14353.569677375572,8871.0
14353.569739872784,7553.0
14353.569802369997,6366.0
14353.56986486721,5800.0
14353.569927364422,5394.0
14353.569989861635,5173.0
14353.570052358848,5272.0
14353.570114856058,5180.0
14353.570177353271,4823.0
14353.570239850484,4519.0
14353.570302347696,4161.0
14353.570364844909,3326.0
14353.570427342122,2446.0
14353.570489839334,1543.0
14353.570552336547,505.0
14353.57061483376,-745.0
14353.570677330972,-1997.0
14353.570739828185,-3602.0
14353.570802325396,-5644.0
14353.570864822608,-8128.0
14353.57092731982,-11135.0
14353.570989817033,-14462.0
14353.571052314246,-17906.0
14353.571114811459,-21627.0
14353.571177308671,-25435.0
14353.571239805884,-28289.0
14353.571302303097,-29566.0
14353.57136480031,-30410.0
14353.571427297522,-31806.0
14353.571489794733,-31829.0
14353.571552291945,-27318.0
14353.571614789158,-19386.0
14353.57167728637,-11525.0
14353.571739783583,-4205.0
14353.571802280796,2446.0
14353.571864778009,6666.0
14353.571927275221,8491.0
14353.571989772434,9643.0
14353.572052269647,9542.0
14353.57211476686,7081.0
14353.57217726407,4132.0
14353.572239761283,1818.0
14353.572302258495,-89.0
14353.572364755708,-1022.0
14353.57242725292,-1027.0
14353.572489750133,-1308.0
14353.572552247346,-1839.0
14353.572614744558,-1922.0
14353.572677241771,-1246.0
14353.572739738984,570.0
14353.572802236196,3348.0
14353.572864733407,5858.0
14353.57292723062,7738.0
14353.572989727832,9377.0
14353.573052225045,10042.0
14353.573114722258,9521.0
14353.57317721947,8668.0
14353.573239716683,7671.0
14353.573302213896,6025.0
14353.573364711108,4484.0
14353.573427208321,3945.0
14353.573489705534,4148.0
14353.573552202744,4826.0
14353.573614699957,6588.0
14353.57367719717,8939.0
14353.573739694382,10682.0
14353.573802191595,11092.0
14353.573864688808,10793.0
14353.57392718602,10682.0
14353.573989683233,10577.0
14353.574052180446,10478.0
14353.574114677658,10424.0
14353.574177174869,10445.0
14353.574239672082,10369.0
14353.574302169294,10488.0
14353.574364666507,10632.0
14353.57442716372,10335.0
14353.574489660932,9432.0
14353.574552158145,8198.0
14353.574614655357,6948.0
14353.57467715257,6071.0
14353.574739649783,5673.0
14353.574802146995,5627.0
14353.574864644208,5604.0
14353.574927141419,5360.0
14353.574989638631,4788.0
14353.575052135844,4134.0
14353.575114633057,3695.0
14353.57517713027,3113.0
14353.575239627482,2490.0
14353.575302124695,1948.0
14353.575364621907,1376.0
14353.57542711912,606.0
14353.575489616333,-486.0
14353.575552113543,-2051.0
14353.575614610756,-4245.0
14353.575677107969,-7106.0
14353.575739605181,-10494.0
14353.575802102394,-14050.0
14353.575864599607,-17527.0
14353.57592709682,-20801.0
14353.575989594032,-24064.0
14353.576052091244,-27089.0
14353.576114588457,-29219.0
14353.57617708567,-30919.0
14353.576239582882,-32482.0
14353.576302080093,-32768.0
14353.576364577306,-29901.0
14353.576427074519,-22625.0
14353.576489571731,-14816.0
14353.576552068944,-7036.0
14353.576614566156,960.0
14353.576677063369,7336.0
14353.576739560582,10172.0
14353.576802057794,11112.0
14353.576864555007,10996.0
14353.576927052218,8609.0
14353.57698954943,4842.0
14353.577052046643,1915.0
14353.577114543856,41.0
14353.577177041068,-1038.0
14353.577239538281,-1234.0
14353.577302035494,-935.0
14353.577364532706,-947.0
14353.577427029919,-1042.0
14353.577489527132,-647.0
14353.577552024344,205.0
14353.577614521557,2092.0
14353.577677018768,4098.0
14353.57773951598,6008.0
14353.577802013193,7906.0
14353.577864510406,9465.0
14353.577927007618,9883.0
14353.57798950483,9514.0
14353.578052002043,8848.0
14353.578114499256,7272.0
14353.578176996469,5182.0
14353.578239493681,4093.0
14353.578301990892,4045.0
14353.578364488105,4382.0
14353.578426985317,5317.0
14353.57848948253,7515.0
14353.578551979743,10240.0
14353.578614476955,12184.0
14353.578676974168,12285.0
14353.57873947138,11629.0
14353.578801968593,10950.0
14353.578864465806,10131.0
14353.578926963019,9548.0
14353.578989460231,9769.0
14353.579051957442,10230.0
14353.579114454655,10268.0
14353.579176951867,10359.0
14353.57923944908,10674.0
14353.579301946293,10531.0
14353.579364443505,9703.0
14353.579426940718,8457.0
14353.57948943793,6869.0
14353.579551935143,5547.0
14353.579614432356,4894.0
14353.579676929567,4829.0
14353.57973942678,5052.0
14353.579801923992,5224.0
14353.579864421205,4873.0
14353.579926918417,4240.0
14353.57998941563,3866.0
14353.580051912842,3417.0
14353.580114410055,2780.0
14353.580176907268,2038.0
14353.58023940448,1153.0
14353.580301901693,-186.0
14353.580364398906,-1754.0
14353.580426896116,-3515.0
14353.58048939333,-5872.0
14353.580551890542,-8870.0
14353.580614387754,-12188.0
14353.580676884967,-15753.0
14353.58073938218,-19229.0
14353.580801879392,-22244.0
14353.580864376605,-24912.0
14353.580926873818,-27151.0
14353.58098937103,-28751.0
14353.581051868241,-30469.0
14353.581114365454,-32402.0
14353.581176862666,-32064.0
14353.581239359879,-27337.0
14353.581301857092,-20122.0
14353.581364354304,-12797.0
14353.581426851517,-4664.0
14353.58148934873,3130.0
14353.581551845942,8100.0
14353.581614343155,10507.0
14353.581676840367,11811.0
14353.581739337578,10466.0
14353.58180183479,6742.0
14353.581864332004,3284.0
14353.581926829216,1264.0
14353.581989326429,-325.0
14353.582051823641,-756.0
14353.582114320854,-252.0
14353.582176818067,-157.0
14353.58223931528,-624.0
14353.582301812492,-639.0
14353.582364309705,-367.0
14353.582426806915,579.0
14353.582489304128,2227.0
14353.58255180134,4066.0
14353.582614298553,6022.0
14353.582676795766,8261.0
14353.582739292979,9709.0
14353.582801790191,9741.0
14353.582864287404,9237.0
14353.582926784617,7964.0
14353.58298928183,5748.0
14353.583051779042,4062.0
14353.583114276253,3699.0
14353.583176773465,3828.0
14353.583239270678,4407.0
14353.58330176789,5621.0
14353.583364265103,7053.0
14353.583426762316,9161.0
14353.583489259529,11895.0
14353.583551756741,13527.0
14353.583614253954,13252.0
14353.583676751166,12596.0
14353.583739248379,11765.0
14353.58380174559,10350.0
14353.583864242803,9718.0
14353.583926740015,10036.0
14353.583989237228,9738.0
14353.58405173444,9055.0
14353.584114231653,9131.0
14353.584176728866,9170.0
14353.584239226078,8653.0
14353.584301723291,8124.0
14353.584364220504,7151.0
14353.584426717716,5809.0
14353.584489214927,5029.0
14353.58455171214,4926.0
14353.584614209352,5159.0
14353.584676706565,5725.0
14353.584739203778,6058.0
14353.58480170099,5527.0
14353.584864198203,4990.0
14353.584926695416,4507.0
14353.584989192628,3406.0
14353.58505168984,2128.0
14353.585114187052,999.0
14353.585176684264,-432.0
14353.585239181477,-2198.0
14353.58530167869,-3772.0
14353.585364175902,-5489.0
14353.585426673115,-7741.0
14353.585489170327,-10619.0
14353.58555166754,-14101.0
14353.585614164753,-17753.0
14353.585676661965,-21088.0
14353.585739159178,-24127.0
14353.58580165639,-27097.0
14353.585864153602,-29268.0
14353.585926650814,-30621.0
14353.585989148027,-32282.0
14353.58605164524,-32768.0
14353.586114142452,-29464.0
14353.586176639665,-21669.0
14353.586239136877,-13771.0
14353.58630163409,-6491.0
14353.586364131303,669.0
14353.586426628515,6450.0
14353.586489125726,9244.0
14353.586551622939,11093.0
14353.586614120151,11546.0
14353.586676617364,9258.0
14353.586739114577,5491.0
14353.58680161179,2860.0
14353.586864109002,1137.0
14353.586926606215,-30.0
14353.586989103427,-619.0
14353.58705160064,-1052.0
14353.587114097852,-1701.0
14353.587176595065,-2119.0
14353.587239092276,-1712.0
14353.587301589489,-425.0
14353.587364086701,1807.0
14353.587426583914,3991.0
14353.587489081126,5762.0
14353.58755157834,7599.0
14353.587614075552,9357.0
14353.587676572764,9736.0
14353.587739069977,9274.0
14353.58780156719,8732.0
14353.5878640644,7499.0
14353.587926561613,5851.0
14353.587989058826,4825.0
14353.588051556038,4722.0
14353.588114053251,4870.0
14353.588176550464,5213.0
14353.588239047676,6035.0
14353.588301544889,7820.0
14353.588364042102,10312.0
14353.588426539314,12286.0
14353.588489036527,12850.0
14353.58855153374,12610.0
14353.58861403095,12123.0
14353.588676528163,11142.0
14353.588739025376,10382.0
14353.588801522588,10229.0
14353.5888640198,10077.0
14353.588926517014,9584.0
14353.588989014226,9459.0
14353.589051511439,9570.0
14353.589114008651,9421.0
14353.589176505864,8958.0
14353.589239003075,8212.0
14353.589301500288,7078.0
14353.5893639975,6063.0
14353.589426494713,5775.0
14353.589488991925,5749.0
14353.589551489138,5842.0
14353.58961398635,5821.0
14353.589676483563,5370.0
14353.589738980776,4702.0
14353.589801477989,4073.0
14353.589863975201,3307.0
14353.589926472414,2376.0
14353.589988969625,1434.0
14353.590051466837,351.0
14353.59011396405,-1168.0
14353.590176461263,-2904.0
14353.590238958475,-4736.0
14353.590301455688,-6974.0
14353.5903639529,-9817.0
14353.590426450113,-13085.0
14353.590488947326,-16522.0
14353.590551444539,-19921.0
14353.59061394175,-23088.0
14353.590676438962,-26101.0
14353.590738936175,-28684.0
14353.590801433387,-30714.0
14353.5908639306,-32264.0
14353.590926427813,-32768.0
14353.590988925025,-31533.0
14353.591051422238,-25292.0
14353.59111391945,-17093.0
14353.591176416663,-9323.0
14353.591238913876,-1409.0
14353.591301411088,5140.0
14353.5913639083,8702.0
14353.591426405512,10431.0
14353.591488902724,11044.0
14353.591551399937,8995.0
14353.59161389715,5563.0
14353.591676394362,2967.0
14353.591738891575,1357.0
14353.591801388788,137.0
14353.591863886,-10.0
14353.591926383213,-99.0
14353.591988880424,-877.0
14353.592051377636,-1755.0
14353.592113874849,-1774.0
14353.592176372062,-1191.0
14353.592238869274,518.0
14353.592301366487,2953.0
14353.5923638637,5183.0
14353.592426360912,7120.0
14353.592488858125,8866.0
14353.592551355337,9737.0
14353.59261385255,9476.0
14353.592676349761,8759.0
14353.592738846974,7472.0
14353.592801344186,5735.0
14353.592863841399,4525.0
14353.592926338612,4418.0
14353.592988835824,4899.0
14353.593051333037,5590.0
14353.59311383025,6374.0
14353.593176327462,7294.0
14353.593238824675,8711.0
14353.593301321887,10575.0
14353.593363819098,11997.0
14353.59342631631,12609.0
14353.593488813523,12417.0
14353.593551310736,11804.0
14353.593613807949,10972.0
14353.593676305161,10288.0
14353.593738802374,9902.0
14353.593801299587,9549.0
14353.5938637968,9165.0
14353.593926294012,8934.0
14353.593988791225,8859.0
14353.594051288435,8660.0
14353.594113785648,8265.0
14353.59417628286,7634.0
14353.594238780073,6763.0
14353.594301277286,5937.0
14353.594363774499,5629.0
14353.594426271711,5825.0
14353.594488768924,6062.0
14353.594551266136,6104.0
14353.59461376335,5786.0
14353.594676260562,5029.0
14353.594738757773,4018.0
14353.594801254985,2860.0
14353.594863752198,1576.0
14353.59492624941,347.0
14353.594988746623,-860.0
14353.595051243836,-2043.0
14353.595113741048,-3411.0
14353.595176238261,-4925.0
14353.595238735474,-6779.0
14353.595301232686,-9381.0
14353.595363729899,-12782.0
14353.59542622711,-16510.0
14353.595488724322,-20401.0
14353.595551221535,-24038.0
14353.595613718748,-26919.0
14353.59567621596,-28806.0
14353.595738713173,-30358.0
14353.595801210386,-32123.0
14353.595863707598,-32768.0
14353.59592620481,-30729.0
14353.595988702024,-23757.0
14353.596051199234,-15528.0
14353.596113696447,-8213.0
14353.59617619366,-1009.0
14353.596238690872,5402.0
14353.596301188085,8750.0
14353.596363685298,10274.0
14353.59642618251,11062.0
14353.596488679723,9452.0
14353.596551176935,5809.0
14353.596613674148,2918.0
14353.59667617136,1238.0
14353.596738668573,-37.0
14353.596801165784,-604.0
14353.596863662997,-844.0
14353.59692616021,-1493.0
14353.596988657422,-2336.0
14353.597051154635,-2300.0
14353.597113651847,-1333.0
14353.59717614906,827.0
14353.597238646273,3201.0
14353.597301143485,5123.0
14353.597363640698,6869.0
14353.597426137909,8749.0
14353.597488635121,9525.0
14353.597551132334,9340.0
14353.597613629547,9031.0
14353.59767612676,8054.0
14353.597738623972,6188.0
14353.597801121185,4744.0
14353.597863618397,4496.0
14353.59792611561,4709.0
14353.597988612823,5247.0
14353.598051110035,6069.0
14353.598113607248,7136.0
14353.598176104459,8798.0
14353.598238601671,10944.0
14353.598301098884,12171.0
14353.598363596097,12209.0
14353.59842609331,11921.0
14353.598488590522,11182.0
14353.598551087734,10001.0
14353.598613584947,9482.0
14353.59867608216,9491.0
14353.598738579372,9183.0
14353.598801076583,8851.0
14353.598863573796,9053.0
14353.598926071008,9242.0
14353.598988568221,9141.0
14353.599051065434,8871.0
14353.599113562646,8029.0
14353.599176059859,6837.0
14353.599238557072,5968.0
14353.599301054284,5536.0
14353.599363551497,5486.0
14353.59942604871,5796.0
14353.599488545922,5828.0
14353.599551043133,5307.0
14353.599613540346,4769.0
14353.599676037558,3987.0
14353.599738534771,2791.0
14353.599801031984,1587.0
14353.599863529196,410.0
14353.599926026409,-1061.0
14353.599988523622,-2426.0
14353.600051020834,-3499.0
14353.600113518047,-4799.0
14353.600176015258,-6895.0
14353.60023851247,-9706.0
14353.600301009683,-13090.0
14353.600363506896,-16757.0
14353.600426004108,-20115.0
14353.60048850132,-23300.0
14353.600550998533,-25984.0
14353.600613495746,-27766.0
14353.600675992959,-29026.0
14353.600738490171,-30850.0
14353.600800987384,-32342.0
14353.600863484597,-30814.0
14353.600925981807,-24931.0
14353.60098847902,-17170.0
14353.601050976233,-9862.0
14353.601113473445,-2008.0
14353.601175970658,4954.0
14353.60123846787,9049.0
14353.601300965083,10615.0
14353.601363462296,11540.0
14353.601425959509,10127.0
14353.601488456721,6318.0
14353.601550953932,2678.0
14353.601613451145,808.0
14353.601675948357,-611.0
14353.60173844557,-1183.0
14353.601800942783,-1293.0
14353.601863439995,-1497.0
14353.601925937208,-2069.0
14353.60198843442,-2116.0
14353.602050931633,-1213.0
14353.602113428846,624.0
14353.602175926058,2820.0
14353.602238423271,4641.0
14353.602300920482,6503.0
14353.602363417695,8301.0
14353.602425914907,9487.0
14353.60248841212,9605.0
14353.602550909332,9199.0
14353.602613406545,8133.0
14353.602675903758,6336.0
14353.60273840097,4740.0
14353.602800898183,4105.0
14353.602863395396,4288.0
14353.602925892606,4897.0
14353.602988389819,5659.0
14353.603050887032,6618.0
14353.603113384244,8234.0
14353.603175881457,10362.0
14353.60323837867,12115.0
14353.603300875882,12709.0
14353.603363373095,12375.0
14353.603425870308,11540.0
14353.60348836752,10465.0
14353.603550864733,9875.0
14353.603613361944,9884.0
14353.603675859156,9686.0
14353.603738356369,9303.0
14353.603800853582,9013.0
14353.603863350794,8932.0
14353.603925848007,8854.0
14353.60398834522,8526.0
14353.604050842432,7750.0
14353.604113339645,6657.0
14353.604175836857,5542.0
14353.60423833407,4842.0
14353.60430083128,4751.0
14353.604363328493,5083.0
14353.604425825706,5418.0
14353.604488322919,5150.0
14353.604550820131,4477.0
14353.604613317344,3750.0
14353.604675814557,2865.0
14353.60473831177,1810.0
14353.604800808982,668.0
14353.604863306195,-575.0
14353.604925803407,-1959.0
14353.604988300618,-3481.0
14353.60505079783,-5090.0
14353.605113295043,-6869.0
14353.605175792256,-8974.0
14353.605238289469,-11673.0
14353.605300786681,-15201.0
14353.605363283894,-19106.0
14353.605425781107,-22673.0
14353.60548827832,-25699.0
14353.605550775532,-28385.0
14353.605613272744,-30131.0
14353.605675769955,-31457.0
14353.605738267168,-32611.0
14353.60580076438,-31683.0
14353.605863261593,-25704.0
14353.605925758806,-16902.0
14353.605988256018,-9259.0
14353.606050753231,-2402.0
14353.606113250444,4230.0
14353.606175747656,8428.0
14353.606238244869,9678.0
14353.606300742082,10006.0
14353.606363239292,8838.0
14353.606425736505,5850.0
14353.606488233718,2898.0
14353.60655073093,1357.0
14353.606613228143,451.0
14353.606675725356,51.0
14353.606738222568,-473.0
14353.606800719781,-1403.0
14353.606863216994,-2466.0
14353.606925714206,-2771.0
14353.606988211417,-2281.0
14353.60705070863,-471.0
14353.607113205842,2359.0
14353.607175703055,4907.0
14353.607238200268,6990.0
14353.60730069748,8992.0
14353.607363194693,10201.0
14353.607425691906,9886.0
14353.607488189118,8827.0
14353.60755068633,7590.0
14353.607613183543,5958.0
14353.607675680756,4511.0
14353.607738177967,4151.0
14353.60780067518,4695.0
14353.607863172392,5320.0
14353.607925669605,5833.0
14353.607988166817,6031.0
14353.60805066403,6423.0
14353.608113161243,7864.0
14353.608175658455,10284.0
14353.608238155668,12297.0
14353.60830065288,13260.0
14353.608363150091,13408.0
14353.608425647304,12664.0
14353.608488144517,11399.0
14353.60855064173,10529.0
14353.608613138942,9898.0
14353.608675636155,8875.0
14353.608738133367,8043.0
14353.60880063058,7728.0
14353.608863127793,7815.0
14353.608925625005,8011.0
14353.608988122218,8155.0
14353.60905061943,7496.0
14353.609113116641,6342.0
14353.609175613854,5150.0
14353.609238111067,4372.0
14353.60930060828,4275.0
14353.609363105492,4848.0
14353.609425602705,5397.0
14353.609488099917,5314.0
14353.60955059713,4792.0
14353.609613094342,3920.0
14353.609675591555,2565.0
14353.609738088766,1176.0
14353.609800585979,-177.0
14353.609863083191,-1705.0
14353.609925580404,-3317.0
14353.609988077616,-4766.0
14353.610050574829,-6160.0
14353.610113072042,-7733.0
14353.610175569254,-9781.0
14353.610238066467,-12725.0
14353.61030056368,-16499.0
14353.610363060892,-20633.0
14353.610425558105,-24467.0
14353.610488055316,-27857.0
14353.610550552528,-30189.0
14353.610613049741,-31453.0
14353.610675546954,-32518.0
14353.610738044166,-32271.0
14353.610800541379,-27817.0
14353.610863038592,-19073.0
14353.610925535804,-10888.0
14353.610988033017,-3471.0
14353.61105053023,3370.0
14353.61111302744,7970.0
14353.611175524653,8966.0
14353.611238021866,9318.0
14353.611300519078,9138.0
14353.61136301629,7068.0
14353.611425513503,3938.0
14353.611488010716,1886.0
14353.611550507929,501.0
14353.611613005141,-349.0
14353.611675502354,-952.0
14353.611737999567,-1538.0
14353.61180049678,-2271.0
14353.61186299399,-2888.0
14353.611925491203,-2622.0
14353.611987988415,-894.0
14353.612050485628,2039.0
14353.61211298284,4591.0
14353.612175480053,6690.0
14353.612237977266,8512.0
14353.612300474479,9595.0
14353.612362971691,9424.0
14353.612425468904,8678.0
14353.612487966115,7692.0
14353.612550463327,6298.0
14353.61261296054,5007.0
14353.612675457753,4281.0
14353.612737954965,4519.0
14353.612800452178,5277.0
14353.61286294939,5792.0
14353.612925446603,6005.0
14353.612987943816,6151.0
14353.613050441028,6547.0
14353.613112938241,7591.0
14353.613175435454,9797.0
14353.613237932665,12081.0
14353.613300429877,13131.0
14353.61336292709,13124.0
14353.613425424302,12644.0
14353.613487921515,11745.0
14353.613550418728,10708.0
14353.61361291594,9752.0
14353.613675413153,8422.0
14353.613737910366,7279.0
14353.613800407578,6692.0
14353.61386290479,6613.0
14353.613925402002,6801.0
14353.613987899214,7066.0
14353.614050396427,6735.0
14353.61411289364,5800.0
14353.614175390852,4841.0
14353.614237888065,4384.0
14353.614300385278,4449.0
14353.61436288249,4939.0
14353.614425379703,5482.0
14353.614487876916,5517.0
14353.614550374126,5292.0
14353.614612871339,4788.0
14353.614675368552,3807.0
14353.614737865764,2192.0
14353.614800362977,228.0
14353.61486286019,-1858.0
14353.614925357402,-3989.0
14353.614987854615,-5990.0
14353.615050351827,-7721.0
14353.61511284904,-9249.0
14353.615175346253,-10995.0
14353.615237843464,-13222.0
14353.615300340676,-15860.0
14353.615362837889,-18831.0
14353.615425335101,-22024.0
14353.615487832314,-25103.0
14353.615550329527,-27554.0
14353.61561282674,-29398.0
14353.615675323952,-31639.0
14353.615737821165,-32576.0
14353.615800318377,-29325.0
14353.61586281559,-21090.0
14353.6159253128,-12577.0
14353.615987810013,-4970.0
14353.616050307226,2549.0
14353.616112804439,8239.0
14353.616175301651,9860.0
14353.616237798864,9790.0
14353.616300296077,9446.0
14353.61636279329,6597.0
14353.616425290502,2859.0
14353.616487787715,1176.0
14353.616550284927,579.0
14353.616612782138,-174.0
14353.61667527935,30.0
14353.616737776563,103.0
14353.616800273776,-1101.0
14353.616862770989,-2497.0
14353.616925268201,-2480.0
14353.616987765414,-1919.0
14353.617050262626,144.0
14353.617112759839,2981.0
14353.617175257052,5437.0
14353.617237754264,7618.0
14353.617300251475,9782.0
14353.617362748688,10331.0
14353.6174252459,9373.0
14353.617487743113,8404.0
14353.617550240326,6942.0
14353.617612737538,4965.0
14353.617675234751,4121.0
14353.617737731964,4658.0
14353.617800229176,5137.0
14353.617862726389,5546.0
14353.6179252236,6291.0
14353.617987720812,6602.0
14353.618050218025,6556.0
14353.618112715238,7311.0
14353.61817521245,9127.0
14353.618237709663,11317.0
14353.618300206876,12634.0
14353.618362704088,12927.0
14353.6184252013,12650.0
14353.618487698513,12016.0
14353.618550195726,10963.0
14353.618612692939,9838.0
14353.61867519015,8689.0
14353.618737687362,7513.0
14353.618800184575,6599.0
14353.618862681788,6414.0
14353.618925179,6657.0
14353.618987676213,6904.0
14353.619050173425,6705.0
14353.619112670638,5933.0
14353.61917516785,5091.0
14353.619237665063,4637.0
14353.619300162274,4752.0
14353.619362659487,5339.0
14353.6194251567,5993.0
14353.619487653912,5968.0
14353.619550151125,5334.0
14353.619612648337,4301.0
14353.61967514555,2873.0
14353.619737642763,1097.0
14353.619800139975,-696.0
14353.619862637188,-2265.0
14353.6199251344,-3907.0
14353.619987631613,-5439.0
14353.620050128824,-6640.0
14353.620112626037,-7862.0
14353.62017512325,-9903.0
14353.620237620462,-12802.0
14353.620300117675,-16481.0
14353.620362614887,-20521.0
14353.6204251121,-24431.0
14353.620487609312,-27618.0
14353.620550106525,-29914.0
14353.620612603738,-31739.0
14353.620675100949,-32655.0
14353.620737598161,-32729.0
14353.620800095374,-28510.0
14353.620862592586,-18913.0
14353.6209250898,-9910.0
14353.620987587012,-1714.0
14353.621050084224,5760.0
14353.621112581437,10346.0
14353.62117507865,11121.0
14353.621237575862,11096.0
14353.621300073075,9958.0
14353.621362570288,6323.0
14353.621425067498,2487.0
14353.621487564711,375.0
14353.621550061924,-1297.0
14353.621612559136,-1889.0
14353.621675056349,-1396.0
14353.621737553562,-1623.0
14353.621800050774,-2832.0
14353.621862547987,-3310.0
14353.6219250452,-2810.0
14353.621987542412,-1308.0
14353.622050039623,1917.0
14353.622112536836,5264.0
14353.622175034048,7648.0
14353.62223753126,9666.0
14353.622300028474,11037.0
14353.622362525686,10556.0
14353.622425022899,9338.0
14353.622487520111,8049.0
14353.622550017324,5959.0
14353.622612514537,3928.0
14353.62267501175,3506.0
14353.622737508962,4075.0
14353.622800006173,4738.0
14353.622862503385,5663.0
14353.622925000598,6388.0
14353.62298749781,6386.0
14353.623049995023,6816.0
14353.623112492236,8082.0
14353.623174989449,9716.0
14353.623237486661,11278.0
14353.623299983874,12393.0
14353.623362481087,12380.0
14353.623424978297,11895.0
14353.62348747551,11447.0
14353.623549972723,10729.0
14353.623612469935,9479.0
14353.623674967148,8172.0
14353.62373746436,6916.0
14353.623799961573,6024.0
14353.623862458786,5951.0
14353.623924955999,6444.0
14353.623987453211,6720.0
14353.624049950424,6690.0
14353.624112447636,6372.0
14353.624174944847,5825.0
14353.62423744206,5521.0
14353.624299939273,5604.0
14353.624362436485,5616.0
14353.624424933698,5340.0
14353.62448743091,4892.0
14353.624549928123,4114.0
14353.624612425336,3157.0
14353.624674922548,2208.0
14353.624737419761,994.0
14353.624799916972,-709.0
14353.624862414184,-2417.0
14353.624924911397,-3956.0
14353.62498740861,-5307.0
14353.625049905822,-6187.0
14353.625112403035,-6964.0
14353.625174900248,-8533.0
14353.62523739746,-11104.0
14353.625299894673,-14597.0
14353.625362391886,-18963.0
14353.625424889098,-23501.0
14353.62548738631,-27440.0
14353.625549883522,-30355.0
14353.625612380734,-32398.0
14353.625674877947,-32738.0
14353.62573737516,-32768.0
14353.625799872372,-30300.0
14353.625862369585,-20457.0
14353.625924866798,-10339.0
14353.62598736401,-2003.0
14353.626049861223,5888.0
14353.626112358435,11035.0
14353.626174855646,11553.0
14353.626237352859,10901.0
14353.626299850072,10500.0
14353.626362347284,7490.0
14353.626424844497,2991.0
14353.62648734171,608.0
14353.626549838922,-480.0
14353.626612336135,-1544.0
14353.626674833347,-1629.0
14353.62673733056,-1640.0
14353.626799827773,-2654.0
14353.626862324983,-3746.0
14353.626924822196,-3317.0
14353.626987319409,-1771.0
14353.627049816621,1396.0
14353.627112313834,4887.0
14353.627174811047,7570.0
14353.62723730826,9386.0
14353.627299805472,10826.0
14353.627362302685,10691.0
14353.627424799897,9474.0
14353.62748729711,8207.0
14353.62754979432,6548.0
14353.627612291533,4456.0
14353.627674788746,3576.0
14353.627737285959,4276.0
14353.627799783171,5220.0
14353.627862280384,5975.0
14353.627924777596,6572.0
14353.62798727481,6599.0
14353.628049772022,6136.0
14353.628112269234,5829.0
14353.628174766447,6649.0
14353.628237263658,9122.0
14353.62829976087,12133.0
14353.628362258083,13459.0
14353.628424755296,13747.0
14353.628487252508,13609.0
14353.628549749721,12293.0
14353.628612246934,10012.0
14353.628674744146,8338.0
14353.628737241359,6781.0
14353.628799738572,5092.0
14353.628862235784,4541.0
14353.628924732995,5392.0
14353.628987230208,6309.0
14353.62904972742,6966.0
14353.629112224633,7047.0
14353.629174721846,6221.0
14353.629237219058,5120.0
14353.62929971627,4474.0
14353.629362213484,4289.0
14353.629424710696,4590.0
14353.629487207909,5163.0
14353.629549705121,5165.0
14353.629612202332,4819.0
14353.629674699545,4290.0
14353.629737196758,3083.0
14353.62979969397,1074.0
14353.629862191183,-1042.0
14353.629924688395,-3241.0
14353.629987185608,-5667.0
14353.63004968282,-7359.0
14353.630112180033,-8135.0
14353.630174677246,-9030.0
14353.630237174457,-10762.0
14353.63029967167,-13278.0
14353.630362168882,-16616.0
14353.630424666095,-20466.0
14353.630487163307,-24300.0
14353.63054966052,-27580.0
14353.630612157733,-30431.0
14353.630674654945,-32489.0
14353.630737152158,-32768.0
14353.63079964937,-32062.0
14353.630862146583,-25720.0
14353.630924643796,-15222.0
14353.630987141007,-6040.0
14353.63104963822,2797.0
14353.631112135432,9744.0
14353.631174632645,12488.0
14353.631237129857,11722.0
14353.63129962707,10601.0
14353.631362124283,8115.0
14353.631424621495,4100.0
14353.631487118708,1068.0
14353.63154961592,45.0
14353.631612113131,-687.0
14353.631674610344,-953.0
14353.631737107557,-937.0
14353.63179960477,-1438.0
14353.631862101982,-2680.0
14353.631924599194,-3466.0
14353.631987096407,-3029.0
14353.63204959362,-989.0
14353.632112090832,2332.0
14353.632174588045,5404.0
14353.632237085258,8174.0
14353.63229958247,10409.0
14353.632362079681,11279.0
14353.632424576894,10331.0
14353.632487074106,8945.0
14353.632549571319,7435.0
14353.632612068532,5410.0
14353.632674565744,3733.0
14353.632737062957,3632.0
14353.63279956017,4410.0
14353.632862057382,5073.0
14353.632924554595,5718.0
14353.632987051806,6158.0
14353.633049549018,6199.0
14353.633112046231,5905.0
14353.633174543444,5935.0
14353.633237040656,7258.0
14353.633299537869,9990.0
14353.633362035082,12304.0
14353.633424532294,13123.0
14353.633487029507,13231.0
14353.63354952672,12624.0
14353.633612023932,10767.0
14353.633674521145,8665.0
14353.633737018356,7353.0
14353.633799515568,5943.0
14353.63386201278,4814.0
14353.633924509993,4893.0
14353.633987007206,5752.0
14353.634049504419,6496.0
14353.634112001631,7034.0
14353.634174498844,6881.0
14353.634236996057,5954.0
14353.63429949327,4969.0
14353.63436199048,4477.0
14353.634424487693,4667.0
14353.634486984905,5406.0
14353.634549482118,5920.0
14353.63461197933,5581.0
14353.634674476543,4843.0
14353.634736973756,3575.0
14353.634799470969,1499.0
14353.634861968181,-808.0
14353.634924465394,-2773.0
14353.634986962606,-4788.0
14353.63504945982,-6562.0
14353.63511195703,-7673.0
14353.635174454243,-8381.0
14353.635236951455,-9367.0
14353.635299448668,-11179.0
14353.63536194588,-14136.0
14353.635424443093,-18088.0
14353.635486940306,-22279.0
14353.635549437518,-26098.0
14353.635611934731,-29106.0
14353.635674431944,-31674.0
14353.635736929155,-32735.0
14353.635799426367,-32768.0
14353.63586192358,-31062.0
14353.635924420792,-22312.0
14353.635986918005,-11026.0
14353.636049415218,-1435.0
14353.63611191243,6750.0
14353.636174409643,11970.0
14353.636236906856,12960.0
14353.636299404068,11336.0
14353.63636190128,9908.0
14353.636424398494,7308.0
14353.636486895704,3779.0
14353.636549392917,1036.0
14353.63661189013,-455.0
14353.636674387342,-1565.0
14353.636736884555,-1713.0
14353.636799381768,-2070.0
14353.63686187898,-2970.0
14353.636924376193,-4087.0
14353.636986873405,-4222.0
14353.637049370618,-3111.0
14353.637111867829,172.0
14353.637174365042,4285.0
14353.637236862254,7576.0
14353.637299359467,10086.0
14353.63736185668,11678.0
14353.637424353892,11652.0
14353.637486851105,10196.0
14353.637549348317,8732.0
14353.63761184553,6961.0
14353.637674342743,4892.0
14353.637736839955,3582.0
14353.637799337166,3439.0
14353.637861834379,4033.0
14353.637924331591,4791.0
14353.637986828804,5292.0
14353.638049326017,5250.0
14353.63811182323,5159.0
14353.638174320442,5156.0
14353.638236817655,5400.0
14353.638299314867,6941.0
14353.63836181208,10347.0
14353.638424309293,13653.0
14353.638486806503,14611.0
14353.638549303716,14215.0
14353.638611800929,13142.0
14353.638674298141,10725.0
14353.638736795354,8243.0
14353.638799292567,6808.0
14353.63886178978,5622.0
14353.638924286992,4401.0
14353.638986784204,4364.0
14353.639049281417,5117.0
14353.63911177863,5773.0
14353.63917427584,6309.0
14353.639236773053,6240.0
14353.639299270266,5449.0
14353.639361767478,4781.0
14353.639424264691,4677.0
14353.639486761904,4959.0
14353.639549259116,5605.0
14353.639611756329,6005.0
14353.639674253542,5241.0
14353.639736750754,3855.0
14353.639799247967,2245.0
14353.639861745178,151.0
14353.63992424239,-2123.0
14353.639986739603,-4148.0
14353.640049236816,-5976.0
14353.640111734028,-7571.0
14353.640174231241,-8671.0
14353.640236728454,-9433.0
14353.640299225666,-10326.0
14353.640361722879,-12028.0
14353.640424220092,-14839.0
14353.640486717304,-18594.0
14353.640549214515,-22806.0
14353.640611711728,-26724.0
14353.64067420894,-29922.0
14353.640736706153,-32263.0
14353.640799203366,-32752.0
14353.640861700578,-32768.0
14353.64092419779,-29102.0
14353.640986695003,-17721.0
14353.641049192216,-6294.0
14353.641111689429,3268.0
14353.64117418664,10808.0
14353.641236683852,13815.0
14353.641299181065,12822.0
14353.641361678277,11242.0
14353.64142417549,9427.0
14353.641486672703,5492.0
14353.641549169915,1475.0
14353.641611667128,-795.0
14353.64167416434,-1945.0
14353.641736661553,-1971.0
14353.641799158766,-1370.0
14353.641861655979,-1777.0
14353.64192415319,-2977.0
14353.641986650402,-4223.0
14353.642049147615,-4549.0
14353.642111644827,-2629.0
14353.64217414204,1850.0
14353.642236639253,6024.0
14353.642299136465,8783.0
14353.642361633678,10965.0
14353.64242413089,12091.0
14353.642486628103,11334.0
14353.642549125314,9720.0
14353.642611622527,8027.0
14353.64267411974,5545.0
14353.642736616952,3146.0
14353.642799114165,2368.0
14353.642861611377,3170.0
14353.64292410859,4387.0
14353.642986605802,5425.0
14353.643049103015,5939.0
14353.643111600228,5778.0
14353.64317409744,5403.0
14353.643236594653,5126.0
14353.643299091864,5250.0
14353.643361589076,6207.0
14353.643424086289,8760.0
14353.643486583502,12153.0
14353.643549080714,14776.0
14353.643611577927,15236.0
14353.64367407514,14148.0
14353.643736572352,11627.0
14353.643799069565,8558.0
14353.643861566778,6103.0
14353.643924063988,4627.0
14353.643986561201,3553.0
14353.644049058414,3523.0
14353.644111555626,4535.0
14353.644174052839,5655.0
14353.644236550052,6537.0
14353.644299047264,6984.0
14353.644361544477,6149.0
14353.64442404169,4750.0
14353.644486538902,3806.0
14353.644549036115,3411.0
14353.644611533327,3868.0
14353.644674030538,4994.0
14353.64473652775,5576.0
14353.644799024964,4816.0
14353.644861522176,3443.0
14353.644924019389,1309.0
14353.644986516601,-1433.0
14353.645049013814,-4057.0
14353.645111511027,-6364.0
14353.64517400824,-8456.0
14353.645236505452,-9757.0
14353.645299002663,-10323.0
14353.645361499875,-10901.0
14353.645423997088,-12072.0
14353.6454864943,-14678.0
14353.645548991513,-18894.0
14353.645611488726,-23505.0
14353.645673985939,-27332.0
14353.645736483151,-30366.0
14353.645798980364,-32327.0
14353.645861477577,-32768.0
14353.64592397479,-32546.0
14353.645986472002,-27148.0
14353.646048969213,-15089.0
14353.646111466425,-3397.0
14353.646173963638,6074.0
14353.64623646085,12814.0
14353.646298958063,15159.0
14353.646361455276,12853.0
14353.646423952488,10060.0
14353.646486449701,7759.0
14353.646548946914,4337.0
14353.646611444126,524.0
14353.646673941337,-1449.0
14353.64673643855,-1928.0
14353.646798935762,-1841.0
14353.646861432975,-1741.0
14353.646923930188,-2216.0
14353.6469864274,-3404.0
14353.647048924613,-4581.0
14353.647111421826,-4528.0
14353.647173919038,-2163.0
14353.647236416251,2561.0
14353.647298913464,6986.0
14353.647361410676,10043.0
14353.647423907887,11963.0
14353.6474864051,12580.0
14353.647548902312,11114.0
14353.647611399525,8890.0
14353.647673896738,6715.0
14353.64773639395,4511.0
14353.647798891163,2552.0
14353.647861388376,2138.0
14353.647923885588,3229.0
14353.6479863828,4686.0
14353.648048880012,5719.0
14353.648111377224,6077.0
14353.648173874437,5748.0
14353.64823637165,5278.0
14353.648298868862,4767.0
14353.648361366075,4961.0
14353.648423863287,7132.0
14353.6484863605,10532.0
14353.648548857713,12975.0
14353.648611354925,13846.0
14353.648673852138,14029.0
14353.648736349349,12950.0
14353.648798846561,10461.0
14353.648861343774,8031.0
14353.648923840987,6398.0
14353.6489863382,4722.0
14353.649048835412,3817.0
14353.649111332625,4319.0
14353.649173829837,5315.0
14353.64923632705,5948.0
14353.649298824263,6218.0
14353.649361321475,5670.0
14353.649423818686,4715.0
14353.649486315899,3945.0
14353.649548813111,3622.0
14353.649611310324,3861.0
14353.649673807537,4616.0
14353.64973630475,5044.0
14353.649798801962,4558.0
14353.649861299175,3726.0
14353.649923796387,2215.0
14353.6499862936,-255.0
14353.650048790812,-2851.0
14353.650111288023,-4876.0
14353.650173785236,-6547.0
14353.650236282449,-7734.0
14353.650298779661,-8256.0
14353.650361276874,-8657.0
14353.650423774086,-9685.0
14353.650486271299,-11968.0
14353.650548768512,-15717.0
14353.650611265724,-20631.0
14353.650673762937,-25437.0
14353.65073626015,-29203.0
14353.65079875736,-31918.0
14353.650861254573,-32734.0
14353.650923751786,-32768.0
14353.650986248998,-32025.0
14353.651048746211,-24010.0
14353.651111243424,-11781.0
14353.651173740636,-1728.0
14353.651236237849,6775.0
14353.651298735062,12776.0
14353.651361232274,14079.0
14353.651423729487,12339.0
14353.651486226698,11147.0
14353.65154872391,8604.0
14353.651611221123,3997.0
14353.651673718336,266.0
14353.651736215548,-1276.0
14353.65179871276,-2512.0
14353.651861209974,-2775.0
14353.651923707186,-2672.0
14353.651986204399,-3406.0
14353.652048701611,-4686.0
14353.652111198822,-4788.0
14353.652173696035,-3596.0
14353.652236193248,-406.0
14353.65229869046,4180.0
14353.652361187673,7891.0
14353.652423684885,10211.0
14353.652486182098,11940.0
14353.65254867931,12308.0
14353.652611176523,10718.0
14353.652673673736,8758.0
14353.652736170949,6835.0
14353.652798668161,4489.0
14353.652861165372,2703.0
14353.652923662585,2590.0
14353.652986159797,3272.0
14353.65304865701,4158.0
14353.653111154223,5008.0
14353.653173651435,5229.0
14353.653236148648,4896.0
14353.65329864586,4693.0
14353.653361143073,4666.0
14353.653423640286,5896.0
14353.653486137497,9005.0
14353.65354863471,12307.0
14353.653611131922,13679.0
14353.653673629135,13920.0
14353.653736126347,13406.0
14353.65379862356,11311.0
14353.653861120772,8768.0
14353.653923617985,7175.0
14353.653986115198,5747.0
14353.65404861241,4286.0
14353.654111109623,4013.0
14353.654173606836,4497.0
14353.654236104047,4893.0
14353.65429860126,5293.0
14353.654361098472,5217.0
14353.654423595684,4535.0
14353.654486092897,4018.0
14353.65454859011,3820.0
14353.654611087322,4039.0
14353.654673584535,4855.0
14353.654736081748,5672.0
14353.65479857896,5402.0
14353.654861076171,4442.0
14353.654923573384,3157.0
14353.654986070596,1133.0
14353.655048567809,-1320.0
14353.655111065022,-3406.0
14353.655173562234,-5197.0
14353.655236059447,-6879.0
14353.65529855666,-7799.0
14353.655361053872,-8197.0
14353.655423551085,-8830.0
14353.655486048297,-10454.0
14353.65554854551,-13358.0
14353.655611042721,-17407.0
14353.655673539934,-21781.0
14353.655736037146,-25628.0
14353.655798534359,-28414.0
14353.655861031571,-30084.0
14353.655923528784,-31722.0
14353.655986025997,-32768.0
14353.65604852321,-32045.0
14353.656111020422,-24281.0
14353.656173517635,-11896.0
14353.656236014845,-1432.0
14353.656298512058,7227.0
14353.65636100927,13248.0
14353.656423506483,14742.0
14353.656486003696,12716.0
14353.656548500909,10818.0
14353.656610998121,8123.0
14353.656673495334,3586.0
14353.656735992547,-752.0
14353.65679848976,-2799.0
14353.656860986972,-3361.0
14353.656923484185,-2701.0
14353.656985981395,-2216.0
14353.657048478608,-2532.0
14353.65711097582,-3677.0
14353.657173473033,-4467.0
14353.657235970246,-4039.0
14353.657298467459,-1157.0
14353.657360964671,3155.0
14353.657423461884,6822.0
14353.657485959096,9579.0
14353.657548456309,11673.0
14353.65761095352,12459.0
14353.657673450733,11323.0
14353.657735947945,9432.0
14353.657798445158,7156.0
14353.65786094237,4441.0
14353.657923439583,2110.0
14353.657985936796,1670.0
14353.658048434008,2713.0
14353.658110931221,4024.0
14353.658173428434,4744.0
14353.658235925646,5063.0
14353.658298422859,5085.0
14353.65836092007,4701.0
14353.658423417282,4916.0
14353.658485914495,6677.0
14353.658548411708,9295.0
14353.65861090892,11033.0
14353.658673406133,12059.0
14353.658735903346,12702.0
14353.658798400558,12414.0
14353.65886089777,11083.0
14353.658923394984,9477.0
14353.658985892194,7588.0
14353.659048389407,5367.0
14353.65911088662,3718.0
14353.659173383832,3265.0
14353.659235881045,3753.0
14353.659298378258,4542.0
14353.65936087547,5068.0
14353.659423372683,5164.0
14353.659485869895,5015.0
14353.659548367108,4589.0
14353.65961086432,4320.0
14353.659673361532,4335.0
14353.659735858744,4624.0
14353.659798355957,4383.0
14353.65986085317,3917.0
14353.659923350382,3391.0
14353.659985847595,2398.0
14353.660048344807,634.0
14353.66011084202,-1327.0
14353.660173339233,-3207.0
14353.660235836445,-5044.0
14353.660298333658,-6626.0
14353.660360830869,-7770.0
14353.660423328081,-8661.0
14353.660485825294,-9921.0
14353.660548322507,-11965.0
14353.66061081972,-14850.0
14353.660673316932,-18319.0
14353.660735814145,-22069.0
14353.660798311357,-25775.0
14353.66086080857,-28462.0
14353.660923305782,-30374.0
14353.660985802995,-32171.0
14353.661048300206,-32768.0
14353.661110797419,-30364.0
14353.661173294631,-20843.0
14353.661235791844,-8832.0
14353.661298289057,1352.0
14353.66136078627,9349.0
14353.661423283482,13596.0
14353.661485780694,13570.0
14353.661548277907,11438.0
14353.66161077512,9403.0
14353.661673272332,6051.0
14353.661735769543,1876.0
14353.661798266756,-1383.0
14353.661860763968,-2701.0
14353.661923261181,-2688.0
14353.661985758394,-1928.0
14353.662048255606,-1869.0
14353.662110752819,-2559.0
14353.662173250032,-3859.0
14353.662235747244,-4611.0
14353.662298244457,-3625.0
14353.66236074167,105.0
14353.66242323888,4611.0
14353.662485736093,8154.0
14353.662548233306,10517.0
14353.662610730518,11937.0
14353.662673227731,11858.0
14353.662735724944,10283.0
14353.662798222156,8168.0
14353.662860719369,5691.0
14353.662923216581,3213.0
14353.662985713794,1512.0
14353.663048211005,1648.0
14353.663110708218,2974.0
14353.66317320543,4346.0
14353.663235702643,5210.0
14353.663298199855,5564.0
14353.663360697068,5243.0
14353.66342319428,4880.0
14353.663485691493,5848.0
14353.663548188706,8339.0
14353.663610685919,10889.0
14353.663673183131,11929.0
14353.663735680344,12279.0
14353.663798177555,12057.0
14353.663860674767,10941.0
14353.66392317198,9206.0
14353.663985669193,7798.0
14353.664048166405,6170.0
14353.664110663618,4475.0
14353.66417316083,3605.0
14353.664235658043,3923.0
14353.664298155256,4635.0
14353.664360652469,5275.0
14353.66442314968,5335.0
14353.664485646892,4921.0
14353.664548144105,4508.0
14353.664610641317,4233.0
14353.66467313853,4189.0
14353.664735635743,4501.0
14353.664798132955,4674.0
14353.664860630168,4162.0
14353.66492312738,3438.0
14353.664985624593,2609.0
14353.665048121806,1374.0
14353.665110619018,-357.0
14353.66517311623,-2141.0
14353.665235613442,-3966.0
14353.665298110654,-5747.0
14353.665360607867,-7090.0
14353.66542310508,-7964.0
14353.665485602292,-8953.0
14353.665548099505,-10475.0
14353.665610596718,-12617.0
14353.66567309393,-15681.0
14353.665735591143,-19310.0
14353.665798088354,-23103.0
14353.665860585566,-26449.0
14353.665923082779,-28987.0
14353.665985579992,-31400.0
14353.666048077204,-32652.0
14353.666110574417,-32768.0
14353.66617307163,-28919.0
14353.666235568842,-17764.0
14353.666298066055,-6639.0
14353.666360563268,2975.0
14353.66642306048,10805.0
14353.666485557693,13867.0
14353.666548054904,12682.0
14353.666610552116,11211.0
14353.666673049329,8976.0
14353.666735546542,4448.0
14353.666798043754,255.0
14353.666860540967,-1627.0
14353.66692303818,-2714.0
14353.666985535392,-2791.0
14353.667048032605,-1887.0
14353.667110529817,-1888.0
14353.667173027028,-3142.0
14353.66723552424,-4176.0
14353.667298021453,-4222.0
14353.667360518666,-2449.0
14353.667423015879,1550.0
14353.667485513091,5659.0
14353.667548010304,8646.0
14353.667610507517,10927.0
14353.66767300473,11999.0
14353.667735501942,11138.0
14353.667797999155,9491.0
14353.667860496367,7542.0
14353.667922993578,4918.0
14353.66798549079,2539.0
14353.668047988003,1709.0
14353.668110485216,2117.0
14353.668172982429,3237.0
14353.668235479641,4631.0
14353.668297976854,5473.0
14353.668360474067,5348.0
14353.66842297128,5558.0
14353.668485468492,6543.0
14353.668547965703,8047.0
14353.668610462915,9449.0
14353.668672960128,10442.0
14353.66873545734,10669.0
14353.668797954553,10419.0
14353.668860451766,10053.0
14353.668922948978,9523.0
14353.668985446191,8693.0
14353.669047943404,7417.0
14353.669110440616,5877.0
14353.669172937829,4536.0
14353.669235435042,4090.0
14353.669297932252,4449.0
14353.669360429465,4864.0
14353.669422926678,5087.0
14353.66948542389,5042.0
14353.669547921103,4703.0
14353.669610418316,4495.0
14353.669672915528,4494.0
14353.669735412741,4519.0
14353.669797909954,4194.0
14353.669860407166,3693.0
14353.669922904377,3028.0
14353.66998540159,2423.0
14353.670047898802,1835.0
14353.670110396015,963.0
14353.670172893228,-352.0
14353.67023539044,-2138.0
14353.670297887653,-4038.0
14353.670360384865,-5805.0
14353.670422882078,-7123.0
14353.67048537929,-8106.0
14353.670547876503,-9127.0
14353.670610373714,-10723.0
14353.670672870927,-13149.0
14353.67073536814,-16250.0
14353.670797865352,-19609.0
14353.670860362565,-23150.0
14353.670922859777,-26314.0
14353.67098535699,-29216.0
14353.671047854203,-32055.0
14353.671110351415,-32768.0
14353.671172848628,-32768.0
14353.67123534584,-27820.0
14353.671297843051,-16499.0
14353.671360340264,-6213.0
14353.671422837477,3065.0
14353.67148533469,10504.0
14353.671547831902,13292.0
14353.671610329115,12560.0
14353.671672826327,11376.0
14353.67173532354,8991.0
14353.671797820753,4594.0
14353.671860317965,630.0
14353.671922815178,-1399.0
14353.671985312389,-2166.0
14353.672047809601,-1963.0
14353.672110306814,-1872.0
14353.672172804027,-2553.0
14353.67223530124,-3638.0
14353.672297798452,-4551.0
14353.672360295664,-4581.0
14353.672422792877,-2331.0
14353.67248529009,1697.0
14353.672547787302,5310.0
14353.672610284515,8142.0
14353.672672781726,10598.0
14353.672735278938,11744.0
14353.672797776151,11212.0
14353.672860273364,9828.0
14353.672922770576,7893.0
14353.672985267789,5320.0
14353.673047765002,3102.0
14353.673110262214,2149.0
14353.673172759427,2446.0
14353.67323525664,3482.0
14353.673297753852,4428.0
14353.673360251063,4653.0
14353.673422748276,4628.0
14353.673485245488,4584.0
14353.673547742701,4333.0
14353.673610239914,4906.0
14353.673672737126,7469.0
14353.673735234339,10864.0
14353.673797731552,12799.0
14353.673860228764,13214.0
14353.673922725977,13034.0
14353.673985223188,11371.0
14353.6740477204,8855.0
14353.674110217613,6959.0
14353.674172714826,5540.0
14353.674235212038,3868.0
14353.67429770925,3192.0
14353.674360206463,3761.0
14353.674422703676,4820.0
14353.674485200889,5768.0
14353.674547698101,6311.0
14353.674610195314,5623.0
14353.674672692527,4466.0
14353.674735189737,3475.0
14353.67479768695,2835.0
14353.674860184163,2921.0
14353.674922681375,3705.0
14353.674985178588,3796.0
14353.6750476758,3085.0
14353.675110173013,2329.0
14353.675172670226,1215.0
14353.675235167439,-612.0
14353.675297664651,-2445.0
14353.675360161862,-4036.0
14353.675422659075,-5761.0
14353.675485156287,-7217.0
14353.6755476535,-8151.0
14353.675610150713,-8935.0
14353.675672647925,-10311.0
14353.675735145138,-12602.0
14353.67579764235,-16135.0
14353.675860139563,-20327.0
14353.675922636776,-24543.0
14353.675985133988,-27957.0
14353.676047631201,-30642.0
14353.676110128412,-32487.0
14353.676172625625,-32722.0
14353.676235122837,-32768.0
14353.67629762005,-27497.0
14353.676360117262,-16076.0
14353.676422614475,-5905.0
14353.676485111688,3100.0
14353.6765476089,9617.0
14353.676610106113,12082.0
14353.676672603326,11983.0
14353.676735100536,11428.0
14353.67679759775,9038.0
14353.676860094962,4964.0
14353.676922592174,1268.0
14353.676985089387,-1405.0
14353.6770475866,-2974.0
14353.677110083812,-3014.0
14353.677172581025,-3067.0
14353.677235078238,-3771.0
14353.67729757545,-4430.0
14353.677360072663,-4811.0
14353.677422569875,-4132.0
14353.677485067086,-1166.0
14353.677547564299,3044.0
14353.677610061512,6230.0
14353.677672558724,8700.0
14353.677735055937,10692.0
14353.67779755315,11268.0
14353.677860050362,10386.0
14353.677922547575,9281.0
14353.677985044787,7555.0
14353.678047542,5132.0
14353.67811003921,3145.0
14353.678172536424,2280.0
14353.678235033636,2421.0
14353.678297530849,3235.0
14353.678360028061,3967.0
14353.678422525274,4325.0
14353.678485022487,4467.0
14353.6785475197,4898.0
14353.678610016912,6120.0
14353.678672514125,8328.0
14353.678735011337,10437.0
14353.67879750855,11244.0
14353.67886000576,11276.0
14353.678922502973,10892.0
14353.678985000186,10066.0
14353.679047497399,9120.0
14353.679109994611,8404.0
14353.679172491824,7197.0
14353.679234989037,5717.0
14353.67929748625,4849.0
14353.679359983462,4831.0
14353.679422480674,5141.0
14353.679484977885,5408.0
14353.679547475098,5232.0
14353.67960997231,4693.0
14353.679672469523,4028.0
14353.679734966736,3718.0
14353.679797463948,3689.0
14353.679859961161,3949.0
14353.679922458374,3959.0
14353.679984955586,3434.0
14353.680047452799,2713.0
14353.680109950012,2213.0
14353.680172447224,1626.0
14353.680234944435,587.0
14353.680297441648,-747.0
14353.68035993886,-2430.0
14353.680422436073,-4166.0
14353.680484933286,-5790.0
14353.680547430498,-7205.0
14353.680609927711,-8598.0
14353.680672424924,-10322.0
14353.680734922136,-12701.0
14353.680797419349,-15872.0
14353.68085991656,-19366.0
14353.680922413772,-22859.0
14353.680984910985,-26043.0
14353.681047408198,-28752.0
14353.68110990541,-31458.0
14353.681172402623,-32729.0
14353.681234899836,-32768.0
14353.681297397048,-30745.0
14353.68135989426,-22294.0
14353.681422391473,-12245.0
14353.681484888686,-3216.0
14353.681547385899,4831.0
14353.68160988311,9960.0
14353.681672380322,11921.0
14353.681734877535,11904.0
14353.681797374747,10500.0
14353.68185987196,6976.0
14353.681922369173,2846.0
14353.681984866385,-318.0
14353.682047363598,-1853.0
14353.68210986081,-2257.0
14353.682172358023,-2146.0
14353.682234855234,-2549.0
14353.682297352447,-3264.0
14353.68235984966,-4140.0
14353.682422346872,-4342.0
14353.682484844085,-3054.0
14353.682547341297,2.0
14353.68260983851,3393.0
14353.682672335723,6388.0
14353.682734832935,9065.0
14353.682797330148,10810.0
14353.68285982736,11267.0
14353.682922324571,10423.0
14353.682984821784,8715.0
14353.683047318997,6335.0
14353.68310981621,4027.0
14353.683172313422,2382.0
14353.683234810635,2063.0
14353.683297307847,2844.0
14353.68335980506,3790.0
14353.683422302272,4284.0
14353.683484799485,4626.0
14353.683547296698,4772.0
14353.683609793909,4792.0
14353.683672291121,5860.0
14353.683734788334,8455.0
14353.683797285546,10910.0
14353.68385978276,11813.0
14353.683922279972,12189.0
14353.683984777184,11945.0
14353.684047274397,10549.0
14353.68410977161,8756.0
14353.684172268822,7386.0
14353.684234766035,5729.0
14353.684297263246,4124.0
14353.684359760458,3602.0
14353.684422257671,4116.0
14353.684484754884,5061.0
14353.684547252096,6048.0
14353.684609749309,6288.0
14353.684672246522,5638.0
14353.684734743734,4784.0
14353.684797240947,3903.0
14353.68485973816,3260.0
14353.684922235372,3371.0
14353.684984732583,3672.0
14353.685047229796,3188.0
14353.685109727008,2645.0
14353.68517222422,2131.0
14353.685234721434,1049.0
14353.685297218646,-540.0
14353.685359715859,-2175.0
14353.685422213071,-3820.0
14353.685484710284,-5588.0
14353.685547207497,-6949.0
14353.68560970471,-7656.0
14353.68567220192,-8216.0
14353.685734699133,-9440.0
14353.685797196345,-12020.0
14353.685859693558,-15896.0
14353.68592219077,-20379.0
14353.685984687983,-24869.0
14353.686047185196,-28577.0
14353.686109682409,-31213.0
14353.686172179621,-32606.0
14353.686234676834,-32749.0
14353.686297174045,-32768.0
14353.686359671257,-28239.0
14353.68642216847,-18346.0
14353.686484665683,-9127.0
14353.686547162895,-619.0
14353.686609660108,6403.0
14353.68667215732,10114.0
14353.686734654533,10546.0
14353.686797151746,10457.0
14353.686859648958,9337.0
14353.686922146171,6316.0
14353.686984643384,2774.0
14353.687047140595,486.0
14353.687109637807,-1237.0
14353.68717213502,-2311.0
14353.687234632233,-3167.0
14353.687297129445,-3775.0
14353.687359626658,-4577.0
14353.68742212387,-4792.0
14353.687484621083,-4210.0
14353.687547118296,-2017.0
14353.687609615508,1598.0
14353.68767211272,5011.0
14353.687734609932,7464.0
14353.687797107144,9257.0
14353.687859604357,10244.0
14353.68792210157,9929.0
14353.687984598782,8871.0
14353.688047095995,7622.0
14353.688109593208,6212.0
14353.68817209042,4533.0
14353.688234587633,3479.0
14353.688297084846,3268.0
14353.688359582058,3441.0
14353.688422079269,3656.0
14353.688484576482,3815.0
14353.688547073694,3975.0
14353.688609570907,4216.0
14353.68867206812,4529.0
14353.688734565332,5956.0
14353.688797062545,8599.0
14353.688859559757,10952.0
14353.68892205697,11810.0
14353.688984554183,12268.0
14353.689047051394,12083.0
14353.689109548606,10686.0
14353.689172045819,8906.0
14353.689234543031,7636.0
14353.689297040244,6006.0
14353.689359537457,4353.0
14353.68942203467,3826.0
14353.689484531882,4190.0
14353.689547029095,4663.0
14353.689609526307,5119.0
14353.68967202352,4983.0
14353.689734520733,4477.0
14353.689797017943,3995.0
14353.689859515156,3663.0
14353.689922012369,3486.0
14353.689984509581,3775.0
14353.690047006794,4071.0
14353.690109504007,3722.0
14353.69017200122,3183.0
14353.690234498432,2647.0
14353.690296995645,1469.0
14353.690359492857,-447.0
14353.690421990068,-2291.0
14353.69048448728,-4209.0
14353.690546984493,-6250.0
14353.690609481706,-7777.0
14353.690671978919,-8782.0
14353.690734476131,-9873.0
14353.690796973344,-11543.0
14353.690859470556,-13893.0
14353.69092196777,-17001.0
14353.690984464982,-20640.0
14353.691046962194,-24365.0
14353.691109459407,-27285.0
14353.691171956618,-29444.0
14353.69123445383,-31626.0
14353.691296951043,-32756.0
14353.691359448256,-32718.0
14353.691421945468,-28294.0
14353.691484442681,-18930.0
14353.691546939894,-9526.0
14353.691609437106,-711.0
14353.691671934319,6627.0
14353.691734431532,10718.0
14353.691796928742,11518.0
14353.691859425955,10742.0
14353.691921923168,8759.0
14353.69198442038,5576.0
14353.692046917593,1692.0
14353.692109414806,-1136.0
14353.692171912018,-2489.0
14353.69223440923,-2572.0
14353.692296906444,-2818.0
14353.692359403656,-3115.0
14353.692421900869,-3449.0
14353.692484398081,-3894.0
14353.692546895292,-3892.0
14353.692609392505,-1938.0
14353.692671889718,1428.0
14353.69273438693,4796.0
14353.692796884143,7493.0
14353.692859381355,9728.0
14353.692921878568,10842.0
14353.69298437578,10624.0
14353.693046872993,9470.0
14353.693109370206,7703.0
14353.693171867417,5526.0
14353.69323436463,3405.0
14353.693296861842,2125.0
14353.693359359055,2030.0
14353.693421856267,2948.0
14353.69348435348,3816.0
14353.693546850693,4403.0
14353.693609347905,4767.0
14353.693671845118,5086.0
14353.69373434233,5090.0
14353.693796839543,5687.0
14353.693859336754,7923.0
14353.693921833967,11017.0
14353.69398433118,12700.0
14353.694046828392,12763.0
14353.694109325605,12406.0
14353.694171822817,11136.0
14353.69423432003,8825.0
14353.694296817243,6991.0
14353.694359314455,5849.0
14353.694421811668,4595.0
14353.69448430888,3868.0
14353.694546806091,4336.0
14353.694609303304,5320.0
14353.694671800517,6002.0
14353.69473429773,6204.0
14353.694796794942,5432.0
14353.694859292154,4374.0
14353.694921789367,3523.0
14353.69498428658,2867.0
14353.695046783792,2760.0
14353.695109281005,3238.0
14353.695171778218,3349.0
14353.695234275428,2788.0
14353.695296772641,2149.0
14353.695359269854,1136.0
14353.695421767066,-564.0
14353.695484264279,-2529.0
14353.695546761492,-4327.0
14353.695609258704,-6041.0
14353.695671755917,-7650.0
14353.69573425313,-8883.0
14353.695796750342,-9892.0
14353.695859247555,-11488.0
14353.695921744766,-14139.0
14353.695984241978,-17837.0
14353.696046739191,-21868.0
14353.696109236404,-25559.0
14353.696171733616,-28601.0
14353.696234230829,-31462.0
14353.696296728041,-32764.0
14353.696359225254,-32768.0
14353.696421722467,-32037.0
14353.69648421968,-25139.0
14353.696546716892,-14898.0
14353.696609214103,-6168.0
14353.696671711316,1718.0
14353.696734208528,7484.0
14353.69679670574,9895.0
14353.696859202953,10075.0
14353.696921700166,9636.0
14353.696984197379,7632.0
14353.697046694591,4367.0
14353.697109191804,1294.0
14353.697171689017,-696.0
14353.697234186227,-1666.0
14353.69729668344,-1935.0
14353.697359180653,-2745.0
14353.697421677865,-3594.0
14353.697484175078,-4175.0
14353.69754667229,-4427.0
14353.697609169503,-3749.0
14353.697671666716,-923.0
14353.697734163929,2954.0
14353.697796661141,5982.0
14353.697859158354,8346.0
14353.697921655566,10217.0
14353.697984152777,10695.0
14353.69804664999,9877.0
14353.698109147203,8732.0
14353.698171644415,6994.0
14353.698234141628,4921.0
14353.69829663884,3464.0
14353.698359136053,3021.0
14353.698421633266,3251.0
14353.698484130478,3911.0
14353.698546627691,4479.0
14353.698609124902,4573.0
14353.698671622114,4462.0
14353.698734119327,4405.0
14353.69879661654,4839.0
14353.698859113752,6792.0
14353.698921610965,9776.0
14353.698984108178,11756.0
14353.69904660539,12373.0
14353.699109102603,12448.0
14353.699171599816,11774.0
14353.699234097028,10165.0
14353.69929659424,8543.0
14353.699359091452,7166.0
14353.699421588664,5593.0
14353.699484085877,4403.0
14353.69954658309,4374.0
14353.699609080302,5122.0
14353.699671577515,5817.0
14353.699734074728,6145.0
14353.69979657194,5700.0
14353.699859069153,4817.0
14353.699921566365,4020.0
14353.699984063576,3521.0
14353.700046560789,3367.0
14353.700109058002,3762.0
14353.700171555214,3830.0
14353.700234052427,3325.0
14353.70029654964,2712.0
14353.700359046852,2000.0
14353.700421544065,742.0
14353.700484041277,-968.0
14353.70054653849,-2754.0
14353.700609035703,-4589.0
14353.700671532915,-6326.0
14353.700734030126,-7609.0
14353.700796527339,-8619.0
14353.700859024551,-9935.0
14353.700921521764,-11998.0
14353.700984018977,-14877.0
14353.70104651619,-18361.0
14353.701109013402,-21985.0
14353.701171510615,-25503.0
14353.701234007827,-28364.0
14353.70129650504,-30220.0
14353.70135900225,-31814.0
14353.701421499463,-32768.0
14353.701483996676,-31286.0
14353.701546493889,-24503.0
14353.701608991101,-15219.0
14353.701671488314,-7088.0
14353.701733985527,754.0
14353.70179648274,7235.0
14353.701858979952,10360.0
14353.701921477164,10862.0
14353.701983974377,10617.0
14353.70204647159,8804.0
14353.7021089688,5421.0
14353.702171466013,2108.0
14353.702233963226,-288.0
14353.702296460438,-1853.0
14353.702358957651,-2565.0
14353.702421454864,-3174.0
14353.702483952076,-3816.0
14353.702546449289,-4028.0
14353.702608946502,-3821.0
14353.702671443714,-3080.0
14353.702733940925,-592.0
14353.702796438138,2905.0
14353.70285893535,5636.0
14353.702921432563,7942.0
14353.702983929776,9928.0
14353.703046426988,10818.0
14353.703108924201,10405.0
14353.703171421414,9430.0
14353.703233918626,7876.0
14353.703296415839,6002.0
14353.703358913051,4362.0
14353.703421410264,3409.0
14353.703483907475,3130.0
14353.703546404688,3584.0
14353.7036089019,4140.0
14353.703671399113,4405.0
14353.703733896326,4789.0
14353.703796393538,5125.0
14353.70385889075,5154.0
14353.703921387963,6278.0
14353.703983885176,9010.0
14353.704046382389,11724.0
14353.7041088796,12889.0
14353.704171376812,13134.0
14353.704233874025,12483.0
14353.704296371237,10599.0
14353.70435886845,8562.0
14353.704421365663,7353.0
14353.704483862875,6240.0
14353.704546360088,5156.0
14353.7046088573,4812.0
14353.704671354513,5187.0
14353.704733851726,5842.0
14353.704796348937,6528.0
14353.70485884615,6468.0
14353.704921343362,5615.0
14353.704983840575,4657.0
14353.705046337787,3937.0
14353.705108835,3693.0
14353.705171332213,4177.0
14353.705233829425,4657.0
14353.705296326638,4313.0
14353.70535882385,3341.0
14353.705421321063,2175.0
14353.705483818274,576.0
14353.705546315487,-1354.0
14353.7056088127,-3100.0
14353.705671309912,-4803.0
14353.705733807124,-6322.0
14353.705796304337,-7382.0
14353.70585880155,-8136.0
14353.705921298762,-9109.0
14353.705983795975,-10885.0
14353.706046293188,-13891.0
14353.7061087904,-17911.0
14353.706171287611,-22137.0
14353.706233784824,-25901.0
14353.706296282036,-28742.0
14353.706358779249,-31016.0
14353.706421276462,-32462.0
14353.706483773674,-32768.0
14353.706546270887,-31029.0
14353.7066087681,-23240.0
14353.706671265312,-13526.0
14353.706733762525,-5211.0
14353.706796259738,2472.0
14353.706858756948,8168.0
14353.706921254161,10257.0
14353.706983751374,10661.0
14353.707046248586,10586.0
14353.707108745799,8600.0
14353.707171243012,4924.0
14353.707233740224,1636.0
14353.707296237437,-616.0
14353.70735873465,-1764.0
14353.707421231862,-2031.0
14353.707483729075,-2616.0
14353.707546226286,-3496.0
14353.707608723498,-4048.0
14353.70767122071,-4169.0
14353.707733717923,-3277.0
14353.707796215136,-16.0
14353.707858712349,3926.0
14353.707921209561,6658.0
14353.707983706774,8649.0
14353.708046203987,10537.0
14353.7081087012,11057.0
14353.70817119841,10481.0
14353.708233695623,9532.0
14353.708296192835,7977.0
14353.708358690048,5701.0
14353.70842118726,4130.0
14353.708483684473,3544.0
14353.708546181686,3680.0
14353.708608678899,4398.0
14353.708671176111,4923.0
14353.708733673324,4850.0
14353.708796170537,4773.0
14353.70885866775,5035.0
14353.70892116496,5851.0
14353.708983662173,7928.0
14353.709046159385,10676.0
14353.709108656598,12341.0
14353.70917115381,12872.0
14353.709233651023,12966.0
14353.709296148236,12280.0
14353.709358645448,10782.0
14353.709421142661,9333.0
14353.709483639874,7712.0
14353.709546137085,5762.0
14353.709608634297,4508.0
14353.70967113151,4534.0
14353.709733628722,5303.0
14353.709796125935,6345.0
14353.709858623148,6859.0
14353.70992112036,6560.0
14353.709983617573,5815.0
14353.710046114786,5085.0
14353.710108611998,4427.0
14353.710171109211,4134.0
14353.710233606424,4156.0
14353.710296103634,3918.0
14353.710358600847,3258.0
14353.71042109806,2770.0
14353.710483595272,2230.0
14353.710546092485,1058.0
14353.710608589698,-535.0
14353.71067108691,-2328.0
14353.710733584123,-4062.0
14353.710796081336,-5453.0
14353.710858578548,-6441.0
14353.710921075759,-7344.0
14353.710983572972,-8619.0
14353.711046070184,-10712.0
14353.711108567397,-13797.0
14353.71117106461,-17492.0
14353.711233561822,-21022.0
14353.711296059035,-24219.0
14353.711358556247,-26778.0
14353.71142105346,-28666.0
14353.711483550673,-30707.0
14353.711546047885,-32600.0
14353.711608545098,-31669.0
14353.711671042309,-25958.0
14353.711733539521,-17180.0
14353.711796036734,-9036.0
14353.711858533947,-1068.0
14353.71192103116,5876.0
14353.711983528372,9958.0
14353.712046025585,10938.0
14353.712108522797,11416.0
14353.71217102001,10771.0
14353.712233517223,7383.0
14353.712296014433,2994.0
14353.712358511646,30.0
14353.712421008859,-1614.0
14353.712483506071,-2651.0
14353.712546003284,-3017.0
14353.712608500497,-3008.0
14353.71267099771,-3272.0
14353.712733494922,-3528.0
14353.712795992134,-2725.0
14353.712858489347,-522.0
14353.71292098656,2847.0
14353.712983483772,5509.0
14353.713045980983,7603.0
14353.713108478196,9351.0
14353.713170975409,10800.0
14353.713233472621,10881.0
14353.713295969834,10390.0
14353.713358467046,9317.0
14353.713420964259,7617.0
14353.713483461472,5299.0
14353.713545958684,3643.0
14353.713608455897,3154.0
14353.713670953108,3503.0
14353.71373345032,3888.0
14353.713795947533,4214.0
14353.713858444746,4706.0
14353.713920941958,5235.0
14353.713983439171,5667.0
14353.714045936384,7385.0
14353.714108433596,10710.0
14353.714170930809,13338.0
14353.714233428022,13722.0
14353.714295925234,13125.0
14353.714358422447,12043.0
14353.714420919658,10220.0
14353.71448341687,8545.0
14353.714545914083,7497.0
14353.714608411296,6210.0
14353.714670908508,4917.0
14353.71473340572,4660.0
14353.714795902933,5445.0
14353.714858400146,6509.0
14353.714920897359,7327.0
14353.714983394571,7070.0
14353.715045891782,6012.0
14353.715108388995,4913.0
14353.715170886207,4131.0
14353.71523338342,3917.0
14353.715295880633,4466.0
14353.715358377845,4869.0
14353.715420875058,4415.0
14353.71548337227,3636.0
14353.715545869483,2801.0
14353.715608366696,1469.0
14353.715670863909,-443.0
14353.71573336112,-2515.0
14353.715795858332,-4658.0
14353.715858355545,-6604.0
14353.715920852757,-7948.0
14353.71598334997,-8692.0
14353.716045847183,-9529.0
14353.716108344395,-11232.0
14353.716170841608,-14230.0
14353.71623333882,-17995.0
14353.716295836033,-21673.0
14353.716358333246,-24810.0
14353.716420830457,-27194.0
14353.71648332767,-29391.0
14353.716545824882,-31678.0
14353.716608322095,-32768.0
14353.716670819307,-31195.0
14353.71673331652,-23742.0
14353.716795813732,-14346.0
14353.716858310945,-6382.0
14353.716920808158,1259.0
14353.71698330537,6933.0
14353.717045802583,9189.0
14353.717108299794,9875.0
14353.717170797006,10465.0
14353.71723329422,8726.0
14353.717295791432,5164.0
14353.717358288644,2076.0
14353.717420785857,254.0
14353.71748328307,-1044.0
14353.717545780282,-1419.0
14353.717608277495,-1742.0
14353.717670774708,-2393.0
14353.71773327192,-3138.0
14353.717795769131,-3309.0
14353.717858266344,-2461.0
14353.717920763556,436.0
14353.717983260769,3721.0
14353.718045757982,6124.0
14353.718108255194,8182.0
14353.718170752407,9989.0
14353.71823324962,10614.0
14353.718295746832,10390.0
14353.718358244045,9905.0
14353.718420741257,8586.0
14353.718483238468,6600.0
14353.71854573568,4983.0
14353.718608232894,4268.0
14353.718670730106,4159.0
14353.718733227319,4634.0
14353.718795724531,5070.0
14353.718858221744,5147.0
14353.718920718957,5227.0
14353.71898321617,6001.0
14353.719045713382,7416.0
14353.719108210593,9336.0
14353.719170707805,10855.0
14353.719233205018,11624.0
14353.71929570223,11613.0
14353.719358199443,11207.0
14353.719420696656,10579.0
14353.719483193869,9804.0
14353.719545691081,8964.0
14353.719608188294,8009.0
14353.719670685507,6899.0
14353.71973318272,6233.0
14353.719795679932,6216.0
14353.719858177143,6449.0
14353.719920674355,6441.0
14353.719983171568,6190.0
14353.72004566878,5694.0
14353.720108165993,4991.0
14353.720170663206,4564.0
14353.720233160419,4546.0
14353.720295657631,4726.0
14353.720358154844,4731.0
14353.720420652056,4472.0
14353.720483149267,3849.0
14353.72054564648,3015.0
14353.720608143693,2053.0
14353.720670640905,871.0
14353.720733138118,-502.0
14353.72079563533,-1966.0
14353.720858132543,-3363.0
14353.720920629756,-4533.0
14353.720983126968,-5623.0
14353.721045624181,-6915.0
14353.721108121394,-8736.0
14353.721170618606,-11180.0
14353.721233115817,-14149.0
14353.72129561303,-17564.0
14353.721358110242,-20751.0
14353.721420607455,-23128.0
14353.721483104668,-25008.0
14353.72154560188,-26711.0
14353.721608099093,-28758.0
14353.721670596306,-31169.0
14353.721733093518,-31381.0
14353.72179559073,-26608.0
14353.721858087942,-18112.0
14353.721920585154,-10060.0
14353.721983082367,-2527.0
14353.72204557958,4156.0
14353.722108076792,8152.0
14353.722170574005,9321.0
14353.722233071217,10289.0
14353.72229556843,10133.0
14353.722358065643,7438.0
14353.722420562855,3515.0
14353.722483060068,576.0
14353.72254555728,-1073.0
14353.722608054492,-1311.0
14353.722670551704,-1382.0
14353.722733048917,-1564.0
14353.72279554613,-1998.0
14353.722858043342,-2405.0
14353.722920540555,-2485.0
14353.722983037767,-748.0
14353.72304553498,2567.0
14353.723108032193,5284.0
14353.723170529405,6992.0
14353.723233026616,8752.0
14353.723295523829,10332.0
14353.723358021041,10688.0
14353.723420518254,10477.0
14353.723483015467,9738.0
14353.72354551268,8001.0
14353.723608009892,5767.0
14353.723670507105,4363.0
14353.723733004317,4030.0
14353.72379550153,4326.0
14353.723857998742,4758.0
14353.723920495955,5319.0
14353.723982993166,6092.0
14353.724045490379,7235.0
14353.724107987591,8393.0
14353.724170484804,9372.0
14353.724232982016,10041.0
14353.72429547923,10173.0
14353.724357976442,9984.0
14353.724420473654,9935.0
14353.724482970867,9839.0
14353.72454546808,9490.0
14353.72460796529,9051.0
14353.724670462503,8482.0
14353.724732959716,7705.0
14353.724795456928,7087.0
14353.724857954141,6849.0
14353.724920451354,6770.0
14353.724982948566,6571.0
14353.725045445779,6105.0
14353.725107942992,5568.0
14353.725170440204,5251.0
14353.725232937417,5149.0
14353.72529543463,4940.0
14353.72535793184,4648.0
14353.725420429053,4420.0
14353.725482926266,3895.0
14353.725545423478,3225.0
14353.72560792069,2756.0
14353.725670417904,2346.0
14353.725732915116,1636.0
14353.725795412329,532.0
14353.725857909541,-850.0
14353.725920406754,-2380.0
14353.725982903965,-3964.0
14353.726045401178,-5600.0
14353.72610789839,-7368.0
14353.726170395603,-9492.0
14353.726232892815,-12164.0
14353.726295390028,-15112.0
14353.72635788724,-18168.0
14353.726420384453,-21113.0
14353.726482881666,-23703.0
14353.726545378879,-25770.0
14353.726607876091,-27512.0
14353.726670373302,-29631.0
14353.726732870515,-31677.0
14353.726795367727,-31376.0
14353.72685786494,-26757.0
14353.726920362153,-18956.0
14353.726982859365,-11062.0
14353.727045356578,-3389.0
14353.72710785379,3616.0
14353.727170351003,8233.0
14353.727232848216,10196.0
14353.727295345429,11537.0
14353.72735784264,11172.0
14353.727420339852,7847.0
14353.727482837065,3286.0
14353.727545334277,126.0
14353.72760783149,-1615.0
14353.727670328703,-2430.0
14353.727732825915,-2712.0
14353.727795323128,-2715.0
14353.72785782034,-2913.0
14353.727920317553,-2957.0
14353.727982814766,-2243.0
14353.728045311977,-78.0
14353.72810780919,3005.0
14353.728170306402,5402.0
14353.728232803614,7083.0
14353.728295300827,8827.0
14353.72835779804,10302.0
14353.728420295252,10765.0
14353.728482792465,10648.0
14353.728545289678,9938.0
14353.72860778689,8194.0
14353.728670284103,5890.0
14353.728732781314,4536.0
14353.728795278526,3913.0
14353.728857775739,3743.0
14353.728920272952,3872.0
14353.728982770164,4375.0
14353.729045267377,5267.0
14353.72910776459,6951.0
14353.729170261802,8742.0
14353.729232759015,10255.0
14353.729295256227,11323.0
14353.72935775344,11398.0
14353.729420250651,10665.0
14353.729482747864,10224.0
14353.729545245076,9982.0
14353.729607742289,9190.0
14353.729670239502,8326.0
14353.729732736714,7908.0
14353.729795233927,7312.0
14353.72985773114,6627.0
14353.729920228352,6554.0
14353.729982725565,6621.0
14353.730045222777,6334.0
14353.730107719988,5950.0
14353.7301702172,5693.0
14353.730232714413,5511.0
14353.730295211626,5425.0
14353.730357708839,5180.0
14353.730420206051,4845.0
14353.730482703264,4502.0
14353.730545200477,4026.0
14353.73060769769,3229.0
14353.730670194902,2466.0
14353.730732692115,1798.0
14353.730795189325,904.0
14353.730857686538,-312.0
14353.73092018375,-1482.0
14353.730982680963,-2637.0
14353.731045178176,-3985.0
14353.731107675389,-5426.0
14353.731170172601,-6965.0
14353.731232669814,-9010.0
14353.731295167026,-11582.0
14353.73135766424,-14444.0
14353.73142016145,-17582.0
14353.731482658663,-20714.0
14353.731545155875,-23271.0
14353.731607653088,-25186.0
14353.7316701503,-26718.0
14353.731732647513,-28371.0
14353.731795144726,-30624.0
14353.731857641938,-31550.0
14353.731920139151,-27727.0
14353.731982636364,-19563.0
14353.732045133576,-11547.0
14353.732107630789,-4537.0
14353.732170128,2207.0
14353.732232625212,7011.0
14353.732295122425,9010.0
14353.732357619638,10251.0
14353.73242011685,10600.0
14353.732482614063,8237.0
14353.732545111276,4256.0
14353.732607608488,986.0
14353.7326701057,-937.0
14353.732732602914,-1406.0
14353.732795100124,-1360.0
14353.732857597337,-1945.0
14353.73292009455,-2617.0
14353.732982591762,-2876.0
14353.733045088975,-2748.0
14353.733107586188,-1284.0
14353.7331700834,1903.0
14353.733232580613,4831.0
14353.733295077825,6632.0
14353.733357575038,8272.0
14353.73342007225,10065.0
14353.733482569463,10819.0
14353.733545066674,10754.0
14353.733607563887,9995.0
14353.7336700611,8278.0
14353.733732558312,6058.0
14353.733795055525,4443.0
14353.733857552737,3717.0
14353.73392004995,3874.0
14353.733982547163,4604.0
14353.734045044375,5575.0
14353.734107541588,6743.0
14353.734170038799,8255.0
14353.734232536011,9430.0
14353.734295033224,9797.0
14353.734357530437,9798.0
14353.73442002765,9749.0
14353.734482524862,9438.0
14353.734545022075,9106.0
14353.734607519287,9002.0
14353.7346700165,8776.0
14353.734732513713,8613.0
14353.734795010925,8583.0
14353.734857508138,8413.0
14353.734920005349,7989.0
14353.734982502561,7587.0
14353.735044999774,7252.0
14353.735107496987,6817.0
14353.7351699942,6400.0
14353.735232491412,6095.0
14353.735294988624,5655.0
14353.735357485837,5130.0
14353.73541998305,4729.0
14353.735482480262,4295.0
14353.735544977473,3772.0
14353.735607474686,3384.0
14353.735669971898,2937.0
14353.735732469111,2331.0
14353.735794966324,1734.0
14353.735857463536,1016.0
14353.735919960749,85.0
14353.735982457962,-1029.0
14353.736044955174,-2355.0
14353.736107452387,-3930.0
14353.7361699496,-5700.0
14353.736232446812,-7728.0
14353.736294944023,-10273.0
14353.736357441236,-13168.0
14353.736419938448,-16098.0
14353.736482435661,-18963.0
14353.736544932874,-21487.0
14353.736607430086,-23350.0
14353.736669927299,-24700.0
14353.736732424512,-25852.0
14353.736794921724,-27926.0
14353.736857418937,-30615.0
14353.736919916148,-30560.0
14353.73698241336,-25524.0
14353.737044910573,-18278.0
14353.737107407786,-11207.0
14353.737169904998,-3520.0
14353.73723240221,3707.0
14353.737294899423,8054.0
14353.737357396636,10196.0
14353.737419893849,11399.0
14353.737482391061,10349.0
14353.737544888274,7034.0
14353.737607385487,3386.0
14353.737669882697,523.0
14353.73773237991,-922.0
14353.737794877123,-981.0
14353.737857374335,-1022.0
14353.737919871548,-1356.0
14353.73798236876,-1605.0
14353.738044865973,-1953.0
14353.738107363186,-2041.0
14353.738169860399,-523.0
14353.738232357611,2052.0
14353.738294854822,4344.0
14353.738357352035,6545.0
14353.738419849247,9011.0
14353.73848234646,10656.0
14353.738544843673,11293.0
14353.738607340885,11489.0
14353.738669838098,10538.0
14353.73873233531,8345.0
14353.738794832523,6052.0
14353.738857329736,4523.0
14353.738919826948,3760.0
14353.73898232416,3821.0
14353.739044821372,4664.0
14353.739107318585,5895.0
14353.739169815797,7268.0
14353.73923231301,8648.0
14353.739294810222,9736.0
14353.739357307435,10386.0
14353.739419804648,10529.0
14353.73948230186,10142.0
14353.739544799073,9606.0
14353.739607296286,9414.0
14353.739669793496,9344.0
14353.739732290709,9108.0
14353.739794787922,8796.0
14353.739857285134,8484.0
14353.739919782347,8137.0
14353.73998227956,7756.0
14353.740044776772,7337.0
14353.740107273985,6982.0
14353.740169771198,6567.0
14353.74023226841,6041.0
14353.740294765623,5581.0
14353.740357262834,5298.0
14353.740419760046,5178.0
14353.740482257259,4964.0
14353.740544754472,4615.0
14353.740607251684,4222.0
14353.740669748897,3710.0
14353.74073224611,3188.0
14353.740794743322,2509.0
14353.740857240535,1745.0
14353.740919737747,835.0
14353.74098223496,-294.0
14353.74104473217,-1591.0
14353.741107229383,-2992.0
14353.741169726596,-4391.0
14353.741232223809,-5953.0
14353.741294721021,-7773.0
14353.741357218234,-10027.0
14353.741419715447,-12639.0
14353.74148221266,-15655.0
14353.741544709872,-18590.0
14353.741607207085,-20874.0
14353.741669704297,-22603.0
14353.741732201508,-24117.0
14353.74179469872,-25638.0
14353.741857195933,-27679.0
14353.741919693146,-30245.0
14353.741982190359,-30567.0
14353.742044687571,-26114.0
14353.742107184784,-18772.0
14353.742169681997,-11811.0
14353.74223217921,-4728.0
14353.742294676422,2297.0
14353.742357173633,6967.0
14353.742419670845,9081.0
14353.742482168058,10327.0
14353.74254466527,9863.0
14353.742607162483,7193.0
14353.742669659696,3748.0
14353.742732156908,1188.0
14353.742794654121,-346.0
14353.742857151334,-835.0
14353.742919648546,-1025.0
14353.742982145759,-1392.0
14353.743044642972,-1745.0
14353.743107140182,-1875.0
14353.743169637395,-1693.0
14353.743232134608,-191.0
14353.74329463182,2423.0
14353.743357129033,4635.0
14353.743419626246,6439.0
14353.743482123458,8352.0
14353.743544620671,9806.0
14353.743607117884,10299.0
14353.743669615096,10241.0
14353.743732112307,9506.0
14353.74379460952,7899.0
14353.743857106732,6047.0
14353.743919603945,4876.0
14353.743982101158,4415.0
14353.74404459837,4600.0
14353.744107095583,5310.0
14353.744169592796,6374.0
14353.744232090008,7657.0
14353.74429458722,8740.0
14353.744357084433,9180.0
14353.744419581646,9352.0
14353.744482078857,9360.0
14353.74454457607,9143.0
14353.744607073282,8964.0
14353.744669570495,9062.0
14353.744732067707,9000.0
14353.74479456492,8629.0
14353.744857062133,8308.0
14353.744919559345,8054.0
14353.744982056558,7829.0
14353.74504455377,7621.0
14353.745107050981,7411.0
14353.745169548194,7147.0
14353.745232045407,6931.0
14353.74529454262,6670.0
14353.745357039832,6243.0
14353.745419537045,5853.0
14353.745482034257,5286.0
14353.74554453147,4448.0
14353.745607028683,3653.0
14353.745669525895,3195.0
14353.745732023108,2927.0
14353.74579452032,2718.0
14353.745857017531,2549.0
14353.745919514744,2101.0
14353.745982011957,1343.0
14353.74604450917,387.0
14353.746107006382,-796.0
14353.746169503595,-2228.0
14353.746232000807,-3773.0
14353.74629449802,-5369.0
14353.746356995232,-7197.0
14353.746419492445,-9278.0
14353.746481989656,-11723.0
14353.746544486869,-14389.0
14353.746606984081,-17135.0
14353.746669481294,-19841.0
14353.746731978506,-22022.0
14353.746794475719,-23468.0
14353.746856972932,-24607.0
14353.746919470144,-25980.0
14353.746981967357,-28219.0
14353.74704446457,-29772.0
14353.747106961782,-28050.0
14353.747169458995,-22140.0
14353.747231956206,-14989.0
14353.747294453418,-7849.0
14353.747356950631,-188.0
14353.747419447844,5926.0
14353.747481945056,8467.0
14353.747544442269,9470.0
14353.747606939482,10228.0
14353.747669436694,8509.0
14353.747731933907,4660.0
14353.74779443112,1718.0
14353.74785692833,-166.0
14353.747919425543,-1406.0
14353.747981922756,-1664.0
14353.748044419968,-1358.0
14353.74810691718,-1246.0
14353.748169414393,-1684.0
14353.748231911606,-2125.0
14353.748294408819,-1829.0
14353.748356906031,247.0
14353.748419403244,2913.0
14353.748481900457,5112.0
14353.74854439767,7354.0
14353.74860689488,9767.0
14353.748669392093,10876.0
14353.748731889305,10937.0
14353.748794386518,10462.0
14353.74885688373,9082.0
14353.748919380943,6694.0
14353.748981878156,4662.0
14353.749044375369,3583.0
14353.749106872581,3400.0
14353.749169369794,4147.0
14353.749231867005,5841.0
14353.749294364217,7629.0
14353.74935686143,9000.0
14353.749419358643,9730.0
14353.749481855855,9659.0
14353.749544353068,9266.0
14353.74960685028,9103.0
14353.749669347493,8919.0
14353.749731844706,8669.0
14353.749794341918,8646.0
14353.749856839131,8651.0
14353.749919336342,8442.0
14353.749981833555,8410.0
14353.750044330767,8439.0
14353.75010682798,7971.0
14353.750169325192,7277.0
14353.750231822405,6696.0
14353.750294319618,6236.0
14353.75035681683,5860.0
14353.750419314043,5791.0
14353.750481811256,5808.0
14353.750544308468,5659.0
14353.75060680568,5260.0
14353.750669302892,4590.0
14353.750731800104,3953.0
14353.750794297317,3490.0
14353.75085679453,2920.0
14353.750919291742,2254.0
14353.750981788955,1680.0
14353.751044286168,1053.0
14353.75110678338,145.0
14353.751169280593,-1048.0
14353.751231777806,-2414.0
14353.751294275016,-4041.0
14353.751356772229,-6049.0
14353.751419269442,-8169.0
14353.751481766654,-10339.0
14353.751544263867,-12668.0
14353.75160676108,-15119.0
14353.751669258292,-17463.0
14353.751731755505,-19555.0
14353.751794252717,-21535.0
14353.75185674993,-23444.0
14353.751919247143,-25124.0
14353.751981744354,-27004.0
14353.752044241566,-29673.0
14353.752106738779,-30805.0
14353.752169235991,-27064.0
14353.752231733204,-19562.0
14353.752294230417,-12482.0
14353.75235672763,-5945.0
14353.752419224842,1092.0
14353.752481722055,6012.0
14353.752544219267,7688.0
14353.75260671648,8800.0
14353.75266921369,9305.0
14353.752731710903,7206.0
14353.752794208116,3885.0
14353.752856705329,1833.0
14353.752919202541,621.0
14353.752981699754,-54.0
14353.753044196967,-209.0
14353.75310669418,-696.0
14353.753169191392,-1770.0
14353.753231688605,-2520.0
14353.753294185815,-2637.0
14353.753356683028,-1572.0
14353.75341918024,1253.0
14353.753481677453,4167.0
14353.753544174666,6224.0
14353.753606671879,8311.0
14353.753669169091,10276.0
14353.753731666304,10926.0
14353.753794163516,10630.0
14353.753856660729,9791.0
14353.753919157942,7811.0
14353.753981655154,5340.0
14353.754044152365,3947.0
14353.754106649578,3705.0
14353.75416914679,4228.0
14353.754231644003,5574.0
14353.754294141216,7197.0
14353.754356638428,8439.0
14353.754419135641,9492.0
14353.754481632854,9916.0
14353.754544130066,9574.0
14353.754606627279,9288.0
14353.75466912449,9044.0
14353.754731621702,8625.0
14353.754794118915,8504.0
14353.754856616128,8861.0
14353.75491911334,9048.0
14353.754981610553,8938.0
14353.755044107766,8828.0
14353.755106604978,8403.0
14353.75516910219,7663.0
14353.755231599403,6980.0
14353.755294096616,6446.0
14353.755356593829,5960.0
14353.75541909104,5683.0
14353.755481588252,5663.0
14353.755544085465,5715.0
14353.755606582678,5609.0
14353.75566907989,5243.0
14353.755731577103,4624.0
14353.755794074315,3844.0
14353.755856571528,2941.0
14353.75591906874,2121.0
14353.755981565953,1671.0
14353.756044063164,1502.0
14353.756106560377,1247.0
14353.75616905759,701.0
14353.756231554802,-206.0
14353.756294052015,-1700.0
14353.756356549227,-3812.0
14353.75641904644,-6190.0
14353.756481543653,-8733.0
14353.756544040865,-11429.0
14353.756606538078,-14198.0
14353.75666903529,-16871.0
14353.756731532503,-19044.0
14353.756794029714,-20671.0
14353.756856526927,-21777.0
14353.75691902414,-22853.0
14353.756981521352,-24487.0
14353.757044018565,-27240.0
14353.757106515777,-30042.0
14353.75716901299,-29890.0
14353.757231510202,-25260.0
14353.757294007415,-18056.0
14353.757356504628,-10519.0
14353.757419001839,-2511.0
14353.757481499051,4056.0
14353.757543996264,7673.0
14353.757606493476,9099.0
14353.75766899069,9515.0
14353.757731487902,7984.0
14353.757793985114,4958.0
14353.757856482327,2029.0
14353.75791897954,308.0
14353.757981476752,-273.0
14353.758043973965,109.0
14353.758106471178,345.0
14353.758168968388,368.0
14353.758231465601,-152.0
14353.758293962814,-1010.0
14353.758356460026,-1491.0
14353.758418957239,-231.0
14353.758481454452,1830.0
14353.758543951664,3833.0
14353.758606448877,6104.0
14353.75866894609,8508.0
14353.758731443302,10116.0
14353.758793940513,10705.0
14353.758856437726,10431.0
14353.758918934938,8995.0
14353.75898143215,6963.0
14353.759043929364,5186.0
14353.759106426576,4145.0
14353.759168923789,4075.0
14353.759231421001,4852.0
14353.759293918214,5968.0
14353.759356415427,7211.0
14353.75941891264,8810.0
14353.759481409852,10120.0
14353.759543907063,10500.0
14353.759606404275,10252.0
14353.759668901488,9609.0
14353.7597313987,8887.0
14353.759793895913,8485.0
14353.759856393126,8590.0
14353.759918890339,8797.0
14353.759981387551,8910.0
14353.760043884764,8874.0
14353.760106381977,8582.0
14353.760168879187,8207.0
14353.7602313764,7848.0
14353.760293873613,7443.0
14353.760356370825,7005.0
14353.760418868038,6533.0
14353.76048136525,5971.0
14353.760543862463,5540.0
14353.760606359676,5422.0
14353.760668856889,5266.0
14353.760731354101,4856.0
14353.760793851314,4255.0
14353.760856348525,3581.0
14353.760918845737,2840.0
14353.76098134295,2266.0
14353.761043840163,1899.0
14353.761106337375,1577.0
14353.761168834588,1058.0
14353.7612313318,111.0
14353.761293829013,-1293.0
14353.761356326226,-2844.0
14353.761418823438,-4347.0
14353.761481320651,-6214.0
14353.761543817862,-8340.0
14353.761606315074,-10520.0
14353.761668812287,-12990.0
14353.7617313095,-15702.0
14353.761793806712,-18312.0
14353.761856303925,-20444.0
14353.761918801138,-21940.0
14353.76198129835,-23381.0
14353.762043795563,-25109.0
14353.762106292776,-27393.0
14353.762168789988,-29710.0
14353.762231287199,-29925.0
14353.762293784412,-25751.0
14353.762356281624,-18748.0
14353.762418778837,-11846.0
14353.76248127605,-5098.0
14353.762543773262,1525.0
14353.762606270475,6084.0
14353.762668767688,8203.0
14353.7627312649,9607.0
14353.762793762113,9405.0
14353.762856259325,6648.0
14353.762918756536,3395.0
14353.762981253749,1326.0
14353.763043750962,22.0
14353.763106248174,-426.0
14353.763168745387,-268.0
14353.7632312426,-369.0
14353.763293739812,-999.0
14353.763356237025,-1354.0
14353.763418734237,-1381.0
14353.76348123145,-554.0
14353.763543728663,1354.0
14353.763606225873,3432.0
14353.763668723086,5198.0
14353.763731220299,7550.0
14353.763793717511,9809.0
14353.763856214724,10888.0
14353.763918711937,10830.0
14353.76398120915,10093.0
14353.764043706362,8391.0
14353.764106203575,6243.0
14353.764168700787,4751.0
14353.764231197998,4165.0
14353.76429369521,4351.0
14353.764356192423,5237.0
14353.764418689636,6626.0
14353.764481186849,8141.0
14353.764543684061,9479.0
14353.764606181274,10198.0
14353.764668678486,10079.0
14353.7647311757,9675.0
14353.764793672912,9227.0
14353.764856170124,8776.0
14353.764918667337,8642.0
14353.764981164548,8852.0
14353.76504366176,9032.0
14353.765106158973,9112.0
14353.765168656186,9137.0
14353.765231153398,8859.0
14353.765293650611,8225.0
14353.765356147824,7505.0
14353.765418645036,6857.0
14353.765481142249,6234.0
14353.765543639462,5777.0
14353.765606136672,5646.0
14353.765668633885,5492.0
14353.765731131098,5156.0
14353.76579362831,4714.0
14353.765856125523,4099.0
14353.765918622736,3517.0
14353.765981119948,3013.0
14353.76604361716,2506.0
14353.766106114374,1978.0
14353.766168611586,1546.0
14353.766231108799,1170.0
14353.766293606011,517.0
14353.766356103222,-634.0
14353.766418600435,-2147.0
14353.766481097648,-3925.0
14353.76654359486,-5973.0
14353.766606092073,-8305.0
14353.766668589285,-10916.0
14353.766731086498,-13626.0
14353.76679358371,-16370.0
14353.766856080923,-18877.0
14353.766918578136,-20691.0
14353.766981075347,-21741.0
14353.76704357256,-22612.0
14353.767106069772,-23978.0
14353.767168566985,-26252.0
14353.767231064197,-28966.0
14353.76729356141,-29142.0
14353.767356058623,-24698.0
14353.767418555835,-17484.0
14353.767481053048,-10873.0
14353.76754355026,-4263.0
14353.767606047473,2116.0
14353.767668544686,6125.0
14353.767731041897,8062.0
14353.76779353911,9252.0
14353.767856036322,8566.0
14353.767918533535,5566.0
14353.767981030747,2523.0
14353.76804352796,787.0
14353.768106025173,7.0
14353.768168522385,195.0
14353.768231019598,517.0
14353.76829351681,143.0
14353.768356014021,-606.0
14353.768418511234,-1138.0
14353.768481008447,-1326.0
14353.76854350566,-304.0
14353.768606002872,1986.0
14353.768668500084,4079.0
14353.768730997297,5883.0
14353.76879349451,8045.0
14353.768855991722,9866.0
14353.768918488935,10465.0
14353.768980986148,10077.0
14353.76904348336,8822.0
14353.769105980571,7041.0
14353.769168477784,5391.0
14353.769230974996,4497.0
14353.769293472209,4474.0
14353.769355969422,5194.0
14353.769418466634,6304.0
14353.769480963847,7411.0
14353.76954346106,8631.0
14353.769605958272,9687.0
14353.769668455485,9904.0
14353.769730952696,9675.0
14353.769793449908,9424.0
14353.769855947121,9104.0
14353.769918444334,8773.0
14353.769980941546,8738.0
14353.770043438759,8844.0
14353.770105935972,8856.0
14353.770168433184,8878.0
14353.770230930397,8808.0
14353.77029342761,8430.0
14353.770355924822,7809.0
14353.770418422035,7192.0
14353.770480919246,6632.0
14353.770543416458,6188.0
14353.77060591367,5937.0
14353.770668410883,5730.0
14353.770730908096,5588.0
14353.770793405309,5388.0
14353.770855902521,5066.0
14353.770918399734,4633.0
14353.770980896947,4064.0
14353.77104339416,3360.0
14353.77110589137,2581.0
14353.771168388583,1952.0
14353.771230885795,1468.0
14353.771293383008,1014.0
14353.77135588022,418.0
14353.771418377433,-481.0
14353.771480874646,-1926.0
14353.771543371859,-3843.0
14353.771605869071,-6018.0
14353.771668366284,-8392.0
14353.771730863496,-10859.0
14353.771793360707,-13362.0
14353.77185585792,-15899.0
14353.771918355133,-18093.0
14353.771980852345,-19637.0
14353.772043349558,-20851.0
14353.77210584677,-22245.0
14353.772168343983,-23800.0
14353.772230841196,-25885.0
14353.772293338408,-28705.0
14353.772355835621,-29363.0
14353.772418332834,-25191.0
14353.772480830045,-18166.0
14353.772543327257,-11618.0
14353.77260582447,-4923.0
14353.772668321682,1502.0
14353.772730818895,5794.0
14353.772793316108,8379.0
14353.77285581332,9765.0
14353.772918310533,8747.0
14353.772980807746,5737.0
14353.773043304958,2914.0
14353.77310580217,911.0
14353.773168299382,-201.0
14353.773230796594,196.0
14353.773293293807,584.0
14353.77335579102,-66.0
14353.773418288232,-823.0
14353.773480785445,-1310.0
14353.773543282658,-1582.0
14353.77360577987,-513.0
14353.773668277083,1891.0
14353.773730774295,4099.0
14353.773793271508,5883.0
14353.773855768719,8099.0
14353.773918265932,10018.0
14353.773980763144,10624.0
14353.774043260357,10316.0
14353.77410575757,9358.0
14353.774168254782,7590.0
14353.774230751995,5703.0
14353.774293249207,4639.0
14353.77435574642,4419.0
14353.774418243633,4987.0
14353.774480740845,6132.0
14353.774543238056,7379.0
14353.774605735269,8512.0
14353.774668232481,9398.0
14353.774730729694,9547.0
14353.774793226907,9161.0
14353.77485572412,9026.0
14353.774918221332,9044.0
14353.774980718545,8902.0
14353.775043215757,8917.0
14353.77510571297,9110.0
14353.77516821018,9105.0
14353.775230707393,8858.0
14353.775293204606,8628.0
14353.775355701819,8104.0
14353.775418199031,7337.0
14353.775480696244,6539.0
14353.775543193457,5824.0
14353.77560569067,5447.0
14353.775668187882,5536.0
14353.775730685094,5798.0
14353.775793182307,5863.0
14353.77585567952,5725.0
14353.77591817673,5456.0
14353.775980673943,4878.0
14353.776043171156,4144.0
14353.776105668368,3416.0
14353.776168165581,2642.0
14353.776230662794,1823.0
14353.776293160006,1010.0
14353.776355657219,172.0
14353.776418154432,-657.0
14353.776480651644,-1617.0
14353.776543148855,-2902.0
14353.776605646068,-4449.0
14353.77666814328,-6194.0
14353.776730640493,-8056.0
14353.776793137706,-10159.0
14353.776855634918,-12628.0
14353.776918132131,-15213.0
14353.776980629344,-17669.0
14353.777043126556,-19824.0
14353.777105623769,-21654.0
14353.777168120982,-23279.0
14353.777230618194,-24713.0
14353.777293115405,-26330.0
14353.777355612618,-28453.0
14353.77741810983,-28695.0
14353.777480607043,-24684.0
14353.777543104256,-17895.0
14353.777605601468,-11447.0
14353.77766809868,-5080.0
14353.777730595893,1138.0
14353.777793093106,4968.0
14353.777855590319,7042.0
14353.77791808753,8500.0
14353.777980584742,8230.0
14353.778043081955,5999.0
14353.778105579167,3831.0
14353.77816807638,2209.0
14353.778230573593,770.0
14353.778293070805,695.0
14353.778355568018,731.0
14353.77841806523,-160.0
14353.778480562443,-998.0
14353.778543059656,-1258.0
14353.778605556869,-1402.0
14353.77866805408,-341.0
14353.778730551292,2315.0
14353.778793048505,4466.0
14353.778855545717,5959.0
14353.77891804293,8077.0
14353.778980540143,9797.0
14353.779043037355,10147.0
14353.779105534568,9952.0
14353.77916803178,9317.0
14353.779230528993,7645.0
14353.779293026204,5952.0
14353.779355523417,5057.0
14353.77941802063,4920.0
14353.779480517842,5478.0
14353.779543015055,6623.0
14353.779605512267,7859.0
14353.77966800948,8846.0
14353.779730506692,9420.0
14353.779793003905,9203.0
14353.779855501118,8628.0
14353.77991799833,8523.0
14353.779980495543,8619.0
14353.780042992754,8635.0
14353.780105489966,8851.0
14353.780167987179,9244.0
14353.780230484392,9365.0
14353.780292981604,9301.0
14353.780355478817,8993.0
14353.78041797603,8322.0
14353.780480473242,7475.0
14353.780542970455,6691.0
14353.780605467668,6172.0
14353.780667964878,5963.0
14353.780730462091,6018.0
14353.780792959304,5979.0
14353.780855456516,5612.0
14353.780917953729,4999.0
14353.780980450942,4285.0
14353.781042948154,3576.0
14353.781105445367,3036.0
14353.78116794258,2625.0
14353.781230439792,2298.0
14353.781292937005,2142.0
14353.781355434217,2059.0
14353.781417931428,1743.0
14353.78148042864,929.0
14353.781542925854,-361.0
14353.781605423066,-2023.0
14353.781667920279,-3912.0
14353.781730417491,-5710.0
14353.781792914704,-7313.0
14353.781855411917,-9073.0
14353.78191790913,-11286.0
14353.781980406342,-14090.0
14353.782042903553,-17131.0
14353.782105400765,-19648.0
14353.782167897978,-21540.0
14353.78223039519,-23203.0
14353.782292892403,-24694.0
14353.782355389616,-26137.0
14353.782417886829,-28251.0
14353.782480384041,-29626.0
14353.782542881254,-26745.0
14353.782605378467,-19781.0
14353.78266787568,-12929.0
14353.782730372892,-6998.0
14353.782792870103,-553.0
14353.782855367315,4695.0
14353.782917864528,7257.0
14353.78298036174,8834.0
14353.783042858953,9448.0
14353.783105356166,7356.0
14353.783167853378,3972.0
14353.783230350591,1755.0
14353.783292847804,602.0
14353.783355345016,193.0
14353.783417842227,516.0
14353.78348033944,517.0
14353.783542836652,-160.0
14353.783605333865,-608.0
14353.783667831078,-710.0
14353.78373032829,-110.0
14353.783792825503,1602.0
14353.783855322716,3548.0
14353.783917819928,5057.0
14353.783980317141,6856.0
14353.784042814354,9006.0
14353.784105311564,10275.0
14353.784167808777,10455.0
14353.78423030599,9940.0
14353.784292803202,8569.0
14353.784355300415,6497.0
14353.784417797628,5040.0
14353.78448029484,4595.0
14353.784542792053,4843.0
14353.784605289266,5627.0
14353.784667786478,6770.0
14353.78473028369,8167.0
14353.784792780902,9650.0
14353.784855278114,10442.0
14353.784917775327,10286.0
14353.78498027254,9702.0
14353.785042769752,9093.0
14353.785105266965,8408.0
14353.785167764177,8198.0
14353.78523026139,8530.0
14353.785292758603,8780.0
14353.785355255815,8695.0
14353.785417753028,8679.0
14353.785480250239,8579.0
14353.785542747451,8108.0
14353.785605244664,7496.0
14353.785667741877,6782.0
14353.78573023909,6069.0
14353.785792736302,5612.0
14353.785855233515,5487.0
14353.785917730727,5615.0
14353.78598022794,5686.0
14353.786042725153,5490.0
14353.786105222365,4969.0
14353.786167719576,4285.0
14353.786230216789,3682.0
14353.786292714001,3218.0
14353.786355211214,2846.0
14353.786417708427,2460.0
14353.78648020564,1717.0
14353.786542702852,638.0
14353.786605200065,-536.0
14353.786667697277,-1867.0
14353.78673019449,-3481.0
14353.786792691702,-5211.0
14353.786855188913,-6912.0
14353.786917686126,-8628.0
14353.786980183339,-10462.0
14353.787042680551,-12461.0
14353.787105177764,-14565.0
14353.787167674976,-16888.0
14353.787230172189,-19265.0
14353.787292669402,-21330.0
14353.787355166614,-22950.0
14353.787417663827,-24313.0
14353.787480161038,-26071.0
14353.78754265825,-28326.0
14353.787605155463,-28744.0
14353.787667652676,-24831.0
14353.787730149888,-17988.0
14353.787792647101,-11623.0
14353.787855144314,-5489.0
14353.787917641526,1007.0
14353.787980138739,5487.0
14353.788042635952,7191.0
14353.788105133164,8244.0
14353.788167630377,8351.0
14353.788230127588,6258.0
14353.7882926248,3583.0
14353.788355122013,2300.0
14353.788417619226,1594.0
14353.788480116438,914.0
14353.78854261365,502.0
14353.788605110864,77.0
14353.788667608076,-852.0
14353.788730105289,-1701.0
14353.788792602501,-1796.0
14353.788855099712,-668.0
14353.788917596925,1448.0
14353.788980094138,3612.0
14353.78904259135,5480.0
14353.789105088563,7690.0
14353.789167585775,9524.0
14353.789230082988,10178.0
14353.7892925802,9904.0
14353.789355077413,9220.0
14353.789417574626,7920.0
14353.789480071839,6259.0
14353.789542569051,5243.0
14353.789605066262,5093.0
14353.789667563475,5254.0
14353.789730060687,5546.0
14353.7897925579,5869.0
14353.789855055113,6423.0
14353.789917552325,7113.0
14353.789980049538,8010.0
14353.79004254675,9711.0
14353.790105043963,11433.0
14353.790167541176,11601.0
14353.790230038387,10622.0
14353.7902925356,9988.0
14353.790355032812,9214.0
14353.790417530025,8349.0
14353.790480027237,7970.0
14353.79054252445,7811.0
14353.790605021662,7441.0
14353.790667518875,7153.0
14353.790730016088,7172.0
14353.7907925133,7188.0
14353.790855010513,6932.0
14353.790917507726,6294.0
14353.790980004937,5256.0
14353.79104250215,4661.0
14353.791104999362,4554.0
14353.791167496574,4589.0
14353.791229993787,4939.0
14353.791292491,5315.0
14353.791354988212,4804.0
14353.791417485425,3861.0
14353.791479982638,2975.0
14353.79154247985,1817.0
14353.791604977061,288.0
14353.791667474274,-1170.0
14353.791729971486,-2432.0
14353.791792468699,-3676.0
14353.791854965912,-4742.0
14353.791917463124,-5765.0
14353.791979960337,-7095.0
14353.79204245755,-9028.0
14353.792104954762,-11751.0
14353.792167451975,-14829.0
14353.792229949187,-17614.0
14353.7922924464,-20031.0
14353.792354943611,-22134.0
14353.792417440824,-23452.0
14353.792479938036,-24560.0
14353.792542435249,-26535.0
14353.792604932461,-29133.0
14353.792667429674,-29418.0
14353.792729926887,-25413.0
14353.7927924241,-18898.0
14353.792854921312,-12521.0
14353.792917418525,-6261.0
14353.792979915735,-221.0
14353.793042412948,3811.0
14353.79310491016,6427.0
14353.793167407373,8840.0
14353.793229904586,9747.0
14353.793292401799,7856.0
14353.793354899011,4658.0
14353.793417396224,2295.0
14353.793479893437,847.0
14353.79354239065,216.0
14353.793604887862,-177.0
14353.793667385075,-791.0
14353.793729882285,-1526.0
14353.793792379498,-1930.0
14353.79385487671,-1570.0
14353.793917373923,49.0
14353.793979871136,2573.0
14353.794042368349,4468.0
14353.794104865561,5661.0
14353.794167362774,7158.0
14353.794229859986,8761.0
14353.794292357199,9697.0
14353.79435485441,10104.0
14353.794417351623,9964.0
14353.794479848835,8655.0
14353.794542346048,6760.0
14353.79460484326,5665.0
14353.794667340473,5277.0
14353.794729837686,5185.0
14353.794792334898,5157.0
14353.794854832111,5350.0
14353.794917329324,5594.0
14353.794979826536,6007.0
14353.795042323747,6701.0
14353.79510482096,7698.0
14353.795167318172,8986.0
14353.795229815385,10639.0
14353.795292312598,12142.0
14353.79535480981,12870.0
14353.795417307023,12537.0
14353.795479804236,11042.0
14353.795542301448,8994.0
14353.79560479866,7402.0
14353.795667295873,6421.0
14353.795729793084,5900.0
14353.795792290297,5901.0
14353.79585478751,6244.0
14353.795917284722,6546.0
14353.795979781935,6679.0
14353.796042279148,6633.0
14353.79610477636,6187.0
14353.796167273573,5357.0
14353.796229770785,4613.0
14353.796292267998,4149.0
14353.79635476521,4072.0
14353.796417262422,4483.0
14353.796479759634,4844.0
14353.796542256847,4533.0
14353.79660475406,3483.0
14353.796667251272,1886.0
14353.796729748485,-37.0
14353.796792245697,-1966.0
14353.79685474291,-3553.0
14353.796917240123,-4756.0
14353.796979737335,-5641.0
14353.797042234548,-6382.0
14353.797104731759,-7439.0
14353.797167228971,-9200.0
14353.797229726184,-11524.0
14353.797292223397,-14293.0
14353.79735472061,-17435.0
14353.797417217822,-20423.0
14353.797479715035,-22574.0
14353.797542212247,-23750.0
14353.79760470946,-24333.0
14353.797667206672,-25594.0
14353.797729703885,-27627.0
14353.797792201096,-27737.0
14353.797854698309,-23766.0
14353.797917195521,-17511.0
14353.797979692734,-11603.0
14353.798042189947,-5326.0
14353.79810468716,892.0
14353.798167184372,4762.0
14353.798229681584,6802.0
14353.798292178797,8596.0
14353.79835467601,9045.0
14353.79841717322,7081.0
14353.798479670433,4239.0
14353.798542167646,1989.0
14353.798604664858,611.0
14353.798667162071,16.0
14353.798729659284,-391.0
14353.798792156496,-643.0
14353.798854653709,-852.0
14353.798917150922,-1191.0
14353.798979648134,-1170.0
14353.799042145347,113.0
14353.79910464256,2130.0
14353.79916713977,3856.0
14353.799229636983,5536.0
14353.799292134196,7413.0
14353.799354631408,8904.0
14353.799417128621,9890.0
14353.799479625834,10095.0
14353.799542123046,9503.0
14353.799604620259,8303.0
14353.799667117471,6776.0
14353.799729614684,5437.0
14353.799792111895,5089.0
14353.799854609108,5366.0
14353.79991710632,5521.0
14353.799979603533,5789.0
14353.800042100745,6484.0
14353.800104597958,7176.0
14353.80016709517,7728.0
14353.800229592383,8680.0
14353.800292089596,9689.0
14353.800354586809,10060.0
14353.800417084021,9940.0
14353.800479581234,9769.0
14353.800542078445,9723.0
14353.800604575657,9506.0
14353.80066707287,8959.0
14353.800729570083,8430.0
14353.800792067295,7763.0
14353.800854564508,6995.0
14353.80091706172,6442.0
14353.800979558933,6426.0
14353.801042056146,6384.0
14353.801104553359,6108.0
14353.80116705057,5865.0
14353.801229547782,5712.0
14353.801292044995,5474.0
14353.801354542207,5182.0
14353.80141703942,4933.0
14353.801479536633,4489.0
14353.801542033845,3890.0
14353.801604531058,3237.0
14353.80166702827,2470.0
14353.801729525483,1754.0
14353.801792022696,1041.0
14353.801854519908,127.0
14353.80191701712,-934.0
14353.801979514332,-1993.0
14353.802042011544,-3140.0
14353.802104508757,-4457.0
14353.80216700597,-5894.0
14353.802229503182,-7708.0
14353.802292000395,-10103.0
14353.802354497608,-12803.0
14353.80241699482,-15426.0
14353.802479492033,-17918.0
14353.802541989244,-20093.0
14353.802604486456,-21749.0
14353.802666983669,-23119.0
14353.802729480882,-24477.0
14353.802791978094,-26343.0
14353.802854475307,-28923.0
14353.80291697252,-29183.0
14353.802979469732,-24502.0
14353.803041966945,-17028.0
14353.803104464158,-10428.0
14353.80316696137,-4084.0
14353.803229458583,2241.0
14353.803291955794,5967.0
14353.803354453006,7555.0
14353.803416950219,8808.0
14353.803479447432,8493.0
14353.803541944644,5452.0
14353.803604441857,2425.0
14353.80366693907,1101.0
14353.803729436282,351.0
14353.803791933495,325.0
14353.803854430707,607.0
14353.803916927918,91.0
14353.80397942513,-1096.0
14353.804041922343,-1829.0
14353.804104419556,-1843.0
14353.804166916769,-682.0
14353.804229413981,1865.0
14353.804291911194,4196.0
14353.804354408407,5828.0
14353.80441690562,8100.0
14353.804479402832,10270.0
14353.804541900045,10891.0
14353.804604397257,10448.0
14353.804666894468,9417.0
14353.80472939168,7498.0
14353.804791888893,5355.0
14353.804854386106,4351.0
14353.804916883319,4464.0
14353.804979380531,5057.0
14353.805041877744,5623.0
14353.805104374956,5867.0
14353.80516687217,6081.0
14353.805229369382,6746.0
14353.805291866593,7624.0
14353.805354363805,8570.0
14353.805416861018,9771.0
14353.80547935823,10525.0
14353.805541855443,10425.0
14353.805604352656,10391.0
14353.805666849868,10509.0
14353.805729347081,10060.0
14353.805791844294,9308.0
14353.805854341506,8808.0
14353.805916838719,8062.0
14353.80597933593,6987.0
14353.806041833142,6422.0
14353.806104330355,6307.0
14353.806166827568,5906.0
14353.80622932478,5445.0
14353.806291821993,5273.0
14353.806354319206,5060.0
14353.806416816418,4917.0
14353.806479313631,4984.0
14353.806541810844,4869.0
14353.806604308056,4472.0
14353.806666805267,3902.0
14353.80672930248,3172.0
14353.806791799692,2469.0
14353.806854296905,1807.0
14353.806916794118,935.0
14353.80697929133,-97.0
14353.807041788543,-1070.0
14353.807104285755,-2042.0
14353.807166782968,-3165.0
14353.80722928018,-4373.0
14353.807291777393,-5760.0
14353.807354274604,-7652.0
14353.807416771817,-10032.0
14353.80747926903,-12746.0
14353.807541766242,-15547.0
14353.807604263455,-18314.0
14353.807666760667,-20739.0
14353.80772925788,-22498.0
14353.807791755093,-23746.0
14353.807854252305,-24933.0
14353.807916749518,-26631.0
14353.80797924673,-28381.0
14353.808041743941,-27673.0
14353.808104241154,-22779.0
14353.808166738367,-15804.0
14353.80822923558,-9574.0
14353.808291732792,-3356.0
14353.808354230005,2614.0
14353.808416727217,6202.0
14353.80847922443,7699.0
14353.808541721643,8954.0
14353.808604218855,8625.0
14353.808666716068,5601.0
14353.808729213279,2616.0
14353.808791710491,1168.0
14353.808854207704,202.0
14353.808916704917,-232.0
14353.80897920213,-146.0
14353.809041699342,-619.0
14353.809104196554,-1640.0
14353.809166693767,-1810.0
14353.80922919098,-1221.0
14353.809291688192,124.0
14353.809354185403,2324.0
14353.809416682616,4630.0
14353.809479179828,6234.0
14353.809541677041,8098.0
14353.809604174254,10021.0
14353.809666671466,10726.0
14353.809729168679,10318.0
14353.809791665892,9416.0
14353.809854163104,7673.0
14353.809916660317,5703.0
14353.80997915753,4617.0
14353.810041654742,4481.0
14353.810104151953,4603.0
14353.810166649166,4802.0
14353.810229146378,5054.0
14353.810291643591,5445.0
14353.810354140804,6193.0
14353.810416638016,7256.0
14353.810479135229,8462.0
14353.810541632442,9854.0
14353.810604129654,10753.0
14353.810666626867,10589.0
14353.810729124078,10241.0
14353.81079162129,10150.0
14353.810854118503,9495.0
14353.810916615716,8486.0
14353.810979112928,7856.0
14353.81104161014,7192.0
14353.811104107353,6363.0
14353.811166604566,6091.0
14353.811229101779,6254.0
14353.811291598991,6041.0
14353.811354096204,5679.0
14353.811416593417,5551.0
14353.811479090627,5271.0
14353.81154158784,4911.0
14353.811604085053,4823.0
14353.811666582265,4765.0
14353.811729079478,4656.0
14353.81179157669,4529.0
14353.811854073903,4163.0
14353.811916571116,3446.0
14353.811979068329,2462.0
14353.812041565541,1072.0
14353.812104062752,-550.0
14353.812166559965,-2123.0
14353.812229057177,-3521.0
14353.81229155439,-4742.0
14353.812354051603,-5730.0
14353.812416548815,-6531.0
14353.812479046028,-7592.0
14353.81254154324,-9179.0
14353.812604040453,-11442.0
14353.812666537666,-14347.0
14353.812729034878,-17516.0
14353.812791532091,-20440.0
14353.812854029302,-22687.0
14353.812916526515,-24246.0
14353.812979023727,-25250.0
14353.81304152094,-26641.0
14353.813104018152,-28551.0
14353.813166515365,-27989.0
14353.813229012578,-23051.0
14353.81329150979,-16279.0
14353.813354007003,-10247.0
14353.813416504216,-3709.0
14353.813479001426,2614.0
14353.81354149864,5980.0
14353.813603995852,7726.0
14353.813666493064,9369.0
14353.813728990277,9060.0
14353.81379148749,6256.0
14353.813853984702,3497.0
14353.813916481915,1353.0
14353.813978979128,-477.0
14353.81404147634,-833.0
14353.814103973553,-442.0
14353.814166470765,-702.0
14353.814228967976,-1090.0
14353.814291465189,-1177.0
14353.814353962402,-1179.0
14353.814416459614,-34.0
14353.814478956827,2276.0
14353.81454145404,4124.0
14353.814603951252,5626.0
14353.814666448465,7650.0
14353.814728945677,9345.0
14353.81479144289,9976.0
14353.8148539401,10130.0
14353.814916437314,9501.0
14353.814978934526,7709.0
14353.815041431739,5896.0
14353.815103928951,4834.0
14353.815166426164,4465.0
14353.815228923377,4677.0
14353.81529142059,5050.0
14353.815353917802,5275.0
14353.815416415015,5779.0
14353.815478912227,6507.0
14353.81554140944,7060.0
14353.81560390665,7903.0
14353.815666403863,9151.0
14353.815728901076,10077.0
14353.815791398289,10353.0
14353.815853895501,10535.0
14353.815916392714,10571.0
14353.815978889927,10018.0
14353.81604138714,8938.0
14353.816103884352,7939.0
14353.816166381564,7105.0
14353.816228878775,6223.0
14353.816291375988,5808.0
14353.8163538732,5865.0
14353.816416370413,5946.0
14353.816478867626,5861.0
14353.816541364838,5719.0
14353.816603862051,5465.0
14353.816666359264,5027.0
14353.816728856476,4582.0
14353.816791353689,4159.0
14353.816853850902,3784.0
14353.816916348112,3510.0
14353.816978845325,3200.0
14353.817041342538,2603.0
14353.81710383975,1718.0
14353.817166336963,666.0
14353.817228834176,-502.0
14353.817291331388,-1738.0
14353.817353828601,-3039.0
14353.817416325814,-4279.0
14353.817478823026,-5402.0
14353.817541320239,-6497.0
14353.81760381745,-7808.0
14353.817666314662,-9549.0
14353.817728811875,-11832.0
14353.817791309088,-14855.0
14353.8178538063,-18175.0
14353.817916303513,-20997.0
14353.817978800726,-23106.0
14353.818041297938,-24683.0
14353.81810379515,-25758.0
14353.818166292363,-27147.0
14353.818228789576,-28190.0
14353.818291286787,-26246.0
14353.818353784,-20692.0
14353.818416281212,-14285.0
14353.818478778425,-8294.0
14353.818541275637,-1878.0
14353.81860377285,3357.0
14353.818666270063,6141.0
14353.818728767275,8039.0
14353.818791264488,9192.0
14353.8188537617,7874.0
14353.818916258913,5085.0
14353.818978756124,2650.0
14353.819041253337,508.0
14353.81910375055,-740.0
14353.819166247762,-683.0
14353.819228744975,-634.0
14353.819291242187,-1106.0
14353.8193537394,-1288.0
14353.819416236613,-1267.0
14353.819478733825,-981.0
14353.819541231038,571.0
14353.81960372825,2757.0
14353.819666225461,4355.0
14353.819728722674,6107.0
14353.819791219887,8337.0
14353.8198537171,9773.0
14353.819916214312,10251.0
14353.819978711525,10079.0
14353.820041208737,8861.0
14353.82010370595,6779.0
14353.820166203162,5169.0
14353.820228700375,4376.0
14353.820291197586,4256.0
14353.820353694799,4574.0
14353.820416192011,5023.0
14353.820478689224,5248.0
14353.820541186436,5743.0
14353.82060368365,6457.0
14353.820666180862,7148.0
14353.820728678074,8146.0
14353.820791175287,9184.0
14353.8208536725,9536.0
14353.820916169712,9671.0
14353.820978666925,10079.0
14353.821041164136,10176.0
14353.821103661348,9612.0
14353.821166158561,8784.0
14353.821228655774,7758.0
14353.821291152986,6619.0
14353.821353650199,5797.0
14353.821416147412,5529.0
14353.821478644624,5438.0
14353.821541141837,5376.0
14353.82160363905,5369.0
14353.82166613626,5320.0
14353.821728633473,5311.0
14353.821791130686,5256.0
14353.821853627898,4982.0
14353.82191612511,4503.0
14353.821978622324,3979.0
14353.822041119536,3405.0
14353.822103616749,2923.0
14353.822166113961,2611.0
14353.822228611174,2233.0
14353.822291108387,1500.0
14353.8223536056,459.0
14353.82241610281,-783.0
14353.822478600023,-2258.0
14353.822541097235,-3808.0
14353.822603594448,-5210.0
14353.82266609166,-6632.0
14353.822728588873,-8236.0
14353.822791086086,-10059.0
14353.822853583299,-12250.0
14353.822916080511,-14872.0
14353.822978577724,-17496.0
14353.823041074935,-19855.0
14353.823103572147,-21966.0
14353.82316606936,-23614.0
14353.823228566573,-24702.0
14353.823291063785,-26354.0
14353.823353560998,-28240.0
14353.82341605821,-27005.0
14353.823478555423,-21575.0
14353.823541052636,-14889.0
14353.823603549848,-8769.0
14353.823666047061,-2276.0
14353.823728544274,3471.0
14353.823791041485,6636.0
14353.823853538697,8142.0
14353.82391603591,8751.0
14353.823978533122,7491.0
14353.824041030335,4774.0
14353.824103527548,2333.0
14353.82416602476,498.0
14353.824228521973,-405.0
14353.824291019186,-302.0
14353.824353516398,-416.0
14353.82441601361,-930.0
14353.824478510822,-1285.0
14353.824541008034,-1465.0
14353.824603505247,-1184.0
14353.82466600246,344.0
14353.824728499672,2512.0
14353.824790996885,4405.0
14353.824853494098,6205.0
14353.82491599131,8300.0
14353.824978488523,9773.0
14353.825040985736,10194.0
14353.825103482948,9759.0
14353.825165980159,8635.0
14353.825228477372,6886.0
14353.825290974584,5206.0
14353.825353471797,4186.0
14353.82541596901,4155.0
