0,1
15418.808477638388,291.0
15418.808540135598,-10.0
15418.808602632811,30.0
15418.808665130024,-17.0
15418.808727627236,45.0
15418.808790124449,421.0
15418.808852621662,694.0
15418.808915118874,515.0
15418.808977616087,392.0
15418.8090401133,495.0
15418.809102610512,645.0
15418.809165107723,729.0
15418.809227604936,504.0
15418.809290102148,282.0
15418.80935259936,227.0
15418.809415096574,19.0
15418.809477593786,-95.0
15418.809540090999,-8.0
15418.809602588211,-145.0
15418.809665085424,-52.0
15418.809727582637,200.0
15418.80979007985,164.0
15418.809852577062,85.0
15418.809915074273,78.0
15418.809977571485,320.0
15418.810040068698,320.0
15418.81010256591,-163.0
15418.810165063123,-175.0
15418.810227560336,-281.0
15418.810290057549,-393.0
15418.810352554761,123.0
15418.810415051974,216.0
15418.810477549187,-101.0
15418.810540046397,-298.0
15418.81060254361,-389.0
15418.810665040823,-124.0
15418.810727538035,108.0
15418.810790035248,158.0
15418.81085253246,33.0
15418.810915029673,-202.0
15418.810977526886,-213.0
15418.811040024098,38.0
15418.811102521311,120.0
15418.811165018524,48.0
15418.811227515736,125.0
15418.811290012947,210.0
15418.81135251016,154.0
15418.811415007372,-101.0
15418.811477504585,-262.0
15418.811540001798,-233.0
15418.81160249901,-247.0
15418.811664996223,-41.0
15418.811727493436,245.0
15418.811789990648,99.0
15418.811852487861,9.0
15418.811914985072,19.0
15418.811977482284,65.0
15418.812039979497,379.0
15418.81210247671,368.0
15418.812164973922,68.0
15418.812227471135,-187.0
15418.812289968348,-363.0
15418.81235246556,-347.0
15418.812414962773,-350.0
15418.812477459986,-466.0
15418.812539957198,-433.0
15418.81260245441,-204.0
15418.812664951622,-123.0
15418.812727448834,-164.0
15418.812789946047,-330.0
15418.81285244326,-465.0
15418.812914940472,-314.0
15418.812977437685,-287.0
15418.813039934897,-356.0
15418.81310243211,-245.0
15418.813164929323,-222.0
15418.813227426534,-142.0
15418.813289923746,-21.0
15418.813352420959,-18.0
15418.813414918171,-396.0
15418.813477415384,-852.0
15418.813539912597,-955.0
15418.81360240981,-775.0
15418.813664907022,-492.0
15418.813727404235,-288.0
15418.813789901447,-218.0
15418.81385239866,-276.0
15418.813914895873,-212.0
15418.813977393085,-327.0
15418.814039890296,-822.0
15418.814102387509,-643.0
15418.814164884721,-98.0
15418.814227381934,231.0
15418.814289879147,72.0
15418.81435237636,-324.0
15418.814414873572,-262.0
15418.814477370785,-295.0
15418.814539867997,-207.0
15418.814602365208,-210.0
15418.81466486242,-324.0
15418.814727359633,-253.0
15418.814789856846,-391.0
15418.814852354059,-403.0
15418.814914851271,-124.0
15418.814977348484,-3.0
15418.815039845696,-38.0
15418.815102342909,-215.0
15418.815164840122,-367.0
15418.815227337334,-152.0
15418.815289834547,130.0
15418.81535233176,353.0
15418.81541482897,387.0
15418.815477326183,155.0
15418.815539823396,29.0
15418.815602320608,187.0
15418.815664817821,280.0
15418.815727315034,134.0
15418.815789812246,-73.0
15418.815852309459,-210.0
15418.815914806672,-352.0
15418.815977303882,-417.0
15418.816039801095,-572.0
15418.816102298308,-226.0
15418.81616479552,207.0
15418.816227292733,-13.0
15418.816289789946,-60.0
15418.816352287158,49.0
15418.81641478437,-112.0
15418.816477281584,-372.0
15418.816539778796,-254.0
15418.816602276009,122.0
15418.816664773221,190.0
15418.816727270434,96.0
15418.816789767645,-139.0
15418.816852264858,-496.0
15418.81691476207,-305.0
15418.816977259283,96.0
15418.817039756495,137.0
15418.817102253708,174.0
15418.81716475092,197.0
15418.817227248133,27.0
15418.817289745346,-83.0
15418.817352242557,-168.0
15418.81741473977,-369.0
15418.817477236982,-232.0
15418.817539734195,227.0
15418.817602231407,40.0
15418.81766472862,-193.0
15418.817727225833,9.0
15418.817789723045,211.0
15418.817852220258,389.0
15418.81791471747,402.0
15418.817977214683,134.0
15418.818039711896,-79.0
15418.818102209107,-293.0
15418.81816470632,-494.0
15418.818227203532,-385.0
15418.818289700745,-568.0
15418.818352197957,-461.0
15418.81841469517,-120.0
15418.818477192382,-193.0
15418.818539689595,-440.0
15418.818602186808,-752.0
15418.81866468402,-810.0
15418.818727181231,-665.0
15418.818789678444,-772.0
15418.818852175657,-762.0
15418.81891467287,-477.0
15418.818977170082,-283.0
15418.819039667294,-68.0
15418.819102164507,-9.0
15418.81916466172,66.0
15418.819227158932,10.0
15418.819289656145,-87.0
15418.819352153358,-29.0
15418.81941465057,-365.0
15418.819477147781,-409.0
15418.819539644994,-451.0
15418.819602142206,-763.0
15418.819664639419,-803.0
15418.819727136632,-899.0
15418.819789633844,-898.0
15418.819852131057,-916.0
15418.81991462827,-684.0
15418.819977125482,-368.0
15418.820039622695,-312.0
15418.820102119906,-56.0
15418.820164617118,-89.0
15418.820227114331,-402.0
15418.820289611544,-440.0
15418.820352108756,-162.0
15418.820414605969,-190.0
15418.820477103181,-119.0
15418.820539600394,48.0
15418.820602097607,-119.0
15418.82066459482,40.0
15418.820727092032,-12.0
15418.820789589245,6.0
15418.820852086455,-199.0
15418.820914583668,-403.0
15418.82097708088,-195.0
15418.821039578093,-228.0
15418.821102075306,-132.0
15418.821164572519,-122.0
15418.821227069731,245.0
15418.821289566944,619.0
15418.821352064157,215.0
15418.82141456137,-69.0
15418.82147705858,-123.0
15418.821539555793,-180.0
15418.821602053005,-71.0
15418.821664550218,-70.0
15418.82172704743,-131.0
15418.821789544643,-297.0
15418.821852041856,-569.0
15418.821914539069,-521.0
15418.821977036281,-256.0
15418.822039533494,-163.0
15418.822102030706,-380.0
15418.822164527919,-507.0
15418.82222702513,-83.0
15418.822289522343,348.0
15418.822352019555,161.0
15418.822414516768,75.0
15418.82247701398,193.0
15418.822539511193,21.0
15418.822602008406,-370.0
15418.822664505618,-272.0
15418.822727002831,84.0
15418.822789500044,44.0
15418.822851997254,52.0
15418.822914494467,94.0
15418.82297699168,97.0
15418.823039488892,52.0
15418.823101986105,70.0
15418.823164483318,100.0
15418.82322698053,81.0
15418.823289477743,16.0
15418.823351974956,136.0
15418.823414472168,210.0
15418.82347696938,-77.0
15418.823539466594,-256.0
15418.823601963804,-343.0
15418.823664461017,-571.0
15418.82372695823,-833.0
15418.823789455442,-908.0
15418.823851952655,-846.0
15418.823914449868,-520.0
15418.82397694708,-56.0
15418.824039444293,-21.0
15418.824101941505,53.0
15418.824164438716,416.0
15418.824226935929,797.0
15418.824289433142,1056.0
15418.824351930354,813.0
15418.824414427567,331.0
15418.82447692478,-123.0
15418.824539421992,-271.0
15418.824601919205,-37.0
15418.824664416417,149.0
15418.82472691363,151.0
15418.824789410843,246.0
15418.824851908055,22.0
15418.824914405268,-323.0
15418.824976902479,-336.0
15418.825039399691,-666.0
15418.825101896904,-376.0
15418.825164394117,285.0
15418.82522689133,-38.0
15418.825289388542,-270.0
15418.825351885755,-5.0
15418.825414382967,162.0
15418.82547688018,378.0
15418.82553937739,776.0
15418.825601874603,824.0
15418.825664371816,607.0
15418.825726869029,703.0
15418.825789366241,649.0
15418.825851863454,430.0
15418.825914360667,197.0
15418.82597685788,-177.0
15418.826039355092,-33.0
15418.826101852304,292.0
15418.826164349517,237.0
15418.82622684673,126.0
15418.826289343942,3.0
15418.826351841153,-188.0
15418.826414338366,-196.0
15418.826476835578,-2.0
15418.826539332791,-5.0
15418.826601830004,-22.0
15418.826664327216,-67.0
15418.826726824429,-244.0
15418.826789321642,-264.0
15418.826851818854,-367.0
15418.826914316065,-153.0
15418.826976813278,424.0
15418.82703931049,181.0
15418.827101807703,-204.0
15418.827164304916,-345.0
15418.827226802128,-502.0
15418.827289299341,-207.0
15418.827351796554,32.0
15418.827414293766,353.0
15418.827476790979,472.0
15418.827539288191,149.0
15418.827601785404,53.0
15418.827664282617,1.0
15418.827726779828,-209.0
15418.82778927704,-132.0
15418.827851774253,265.0
15418.827914271465,291.0
15418.827976768678,-61.0
15418.82803926589,-126.0
15418.828101763103,168.0
15418.828164260316,260.0
15418.828226757529,278.0
15418.82828925474,359.0
15418.828351751952,336.0
15418.828414249165,409.0
15418.828476746377,213.0
15418.82853924359,-97.0
15418.828601740803,-59.0
15418.828664238015,28.0
15418.828726735228,-27.0
15418.82878923244,-204.0
15418.828851729653,-246.0
15418.828914226866,76.0
15418.828976724079,422.0
15418.82903922129,430.0
15418.829101718502,240.0
15418.829164215715,144.0
15418.829226712927,-38.0
15418.82928921014,-74.0
15418.829351707353,70.0
15418.829414204565,-12.0
15418.829476701778,112.0
15418.82953919899,130.0
15418.829601696203,161.0
15418.829664193414,290.0
15418.829726690627,332.0
15418.82978918784,363.0
15418.829851685052,-25.0
15418.829914182264,-335.0
15418.829976679477,-198.0
15418.83003917669,-40.0
15418.830101673902,31.0
15418.830164171115,81.0
15418.830226668328,-19.0
15418.83028916554,86.0
15418.830351662753,150.0
15418.830414159964,-185.0
15418.830476657176,-125.0
15418.830539154389,338.0
15418.830601651602,666.0
15418.830664148814,713.0
15418.830726646027,459.0
15418.83078914324,387.0
15418.830851640452,399.0
15418.830914137665,461.0
15418.830976634878,559.0
15418.831039132088,39.0
15418.831101629301,-138.0
15418.831164126514,-202.0
15418.831226623726,-239.0
15418.831289120939,111.0
15418.831351618152,305.0
15418.831414115364,400.0
15418.831476612577,228.0
15418.83153910979,215.0
15418.831601607002,312.0
15418.831664104215,290.0
15418.831726601427,359.0
15418.831789098638,582.0
15418.83185159585,829.0
15418.831914093063,761.0
15418.831976590276,791.0
15418.832039087489,386.0
15418.832101584701,-46.0
15418.832164081914,-9.0
15418.832226579127,-96.0
15418.83228907634,53.0
15418.832351573552,186.0
15418.832414070763,-33.0
15418.832476567975,-60.0
15418.832539065188,183.0
15418.8326015624,289.0
15418.832664059613,363.0
15418.832726556826,182.0
15418.832789054039,-85.0
15418.832851551251,-53.0
15418.832914048464,-172.0
15418.832976545677,-362.0
15418.83303904289,-301.0
15418.833101540102,-46.0
15418.833164037313,-40.0
15418.833226534525,28.0
15418.833289031738,2.0
15418.83335152895,-65.0
15418.833414026163,-118.0
15418.833476523376,-74.0
15418.833539020588,464.0
15418.833601517801,813.0
15418.833664015014,645.0
15418.833726512226,322.0
15418.833789009437,440.0
15418.83385150665,598.0
15418.833914003862,435.0
15418.833976501075,358.0
15418.834038998288,213.0
15418.8341014955,204.0
15418.834163992713,159.0
15418.834226489926,245.0
15418.834288987138,510.0
15418.834351484351,251.0
15418.834413981564,79.0
15418.834476478776,-129.0
15418.834538975987,-212.0
15418.8346014732,102.0
15418.834663970412,65.0
15418.834726467625,287.0
15418.834788964838,454.0
15418.83485146205,112.0
15418.834913959263,76.0
15418.834976456475,294.0
15418.835038953688,547.0
15418.8351014509,654.0
15418.835163948112,609.0
15418.835226445324,263.0
15418.835288942537,3.0
15418.83535143975,252.0
15418.835413936962,506.0
15418.835476434175,673.0
15418.835538931387,686.0
15418.8356014286,579.0
15418.835663925813,540.0
15418.835726423025,282.0
15418.835788920238,222.0
15418.83585141745,268.0
15418.835913914661,54.0
15418.835976411874,143.0
15418.836038909087,257.0
15418.8361014063,299.0
15418.836163903512,390.0
15418.836226400725,334.0
15418.836288897937,505.0
15418.83635139515,757.0
15418.836413892363,754.0
15418.836476389573,606.0
15418.836538886786,606.0
15418.836601383999,733.0
15418.836663881211,455.0
15418.836726378424,231.0
15418.836788875637,341.0
15418.83685137285,460.0
15418.836913870062,622.0
15418.836976367274,1043.0
15418.837038864487,1025.0
15418.8371013617,548.0
15418.837163858912,636.0
15418.837226356125,1271.0
15418.837288853336,1507.0
15418.837351350548,1246.0
15418.837413847761,853.0
15418.837476344974,313.0
15418.837538842186,252.0
15418.837601339399,345.0
15418.837663836612,257.0
15418.837726333824,105.0
15418.837788831037,43.0
15418.837851328248,-68.0
15418.83791382546,-305.0
15418.837976322673,-165.0
15418.838038819886,-102.0
15418.838101317098,-42.0
15418.838163814311,272.0
15418.838226311524,469.0
15418.838288808736,463.0
15418.838351305949,320.0
15418.838413803162,116.0
15418.838476300374,203.0
15418.838538797587,520.0
15418.8386012948,742.0
15418.83866379201,1049.0
15418.838726289223,1338.0
15418.838788786436,1076.0
15418.838851283648,654.0
15418.83891378086,638.0
15418.838976278073,609.0
15418.839038775286,532.0
15418.839101272499,379.0
15418.839163769711,57.0
15418.839226266922,-79.0
15418.839288764135,4.0
15418.839351261347,70.0
15418.83941375856,51.0
15418.839476255773,87.0
15418.839538752985,180.0
15418.839601250198,213.0
15418.83966374741,64.0
15418.839726244623,30.0
15418.839788741836,283.0
15418.839851239049,294.0
15418.839913736261,494.0
15418.839976233472,719.0
15418.840038730685,547.0
15418.840101227897,275.0
15418.84016372511,62.0
15418.840226222323,305.0
15418.840288719535,389.0
15418.840351216748,338.0
15418.84041371396,387.0
15418.840476211173,245.0
15418.840538708386,224.0
15418.840601205597,381.0
15418.84066370281,481.0
15418.840726200022,-13.0
15418.840788697235,-501.0
15418.840851194447,-398.0
15418.84091369166,-488.0
15418.840976188872,-465.0
15418.841038686085,-25.0
15418.841101183298,138.0
15418.84116368051,26.0
15418.841226177723,-23.0
15418.841288674936,57.0
15418.841351172146,53.0
15418.84141366936,-56.0
15418.841476166572,-64.0
15418.841538663784,-244.0
15418.841601160997,-191.0
15418.84166365821,-66.0
15418.841726155422,-418.0
15418.841788652635,-627.0
15418.841851149848,-815.0
15418.84191364706,-1083.0
15418.841976144271,-1113.0
15418.842038641484,-1058.0
15418.842101138696,-1072.0
15418.842163635909,-1059.0
15418.842226133122,-749.0
15418.842288630334,-222.0
15418.842351127547,280.0
15418.84241362476,443.0
15418.842476121972,114.0
15418.842538619185,-229.0
15418.842601116397,-251.0
15418.84266361361,143.0
15418.84272611082,342.0
15418.842788608034,277.0
15418.842851105246,439.0
15418.842913602459,198.0
15418.842976099671,-76.0
15418.843038596884,195.0
15418.843101094097,288.0
15418.84316359131,372.0
15418.843226088522,377.0
15418.843288585735,-156.0
15418.843351082945,-408.0
15418.843413580158,-280.0
15418.84347607737,8.0
15418.843538574583,244.0
15418.843601071796,62.0
15418.843663569009,-205.0
15418.843726066221,-360.0
15418.843788563434,-240.0
15418.843851060647,-410.0
15418.84391355786,-873.0
15418.843976055072,-947.0
15418.844038552284,-887.0
15418.844101049495,-917.0
15418.844163546708,-1042.0
15418.84422604392,-676.0
15418.844288541133,-233.0
15418.844351038346,-314.0
15418.844413535558,-383.0
15418.844476032771,-461.0
15418.844538529984,-492.0
15418.844601027196,-619.0
15418.844663524409,-583.0
15418.84472602162,-312.0
15418.844788518833,-362.0
15418.844851016045,-323.0
15418.844913513258,-448.0
15418.84497601047,-792.0
15418.845038507683,-687.0
15418.845101004896,-278.0
15418.845163502108,100.0
15418.845225999321,276.0
15418.845288496534,264.0
15418.845350993746,-170.0
15418.845413490959,-437.0
15418.84547598817,-221.0
15418.845538485382,-312.0
15418.845600982595,-102.0
15418.845663479808,313.0
15418.84572597702,96.0
15418.845788474233,-193.0
15418.845850971446,-410.0
15418.845913468658,-505.0
15418.84597596587,-211.0
15418.846038463083,-142.0
15418.846100960294,-390.0
15418.846163457507,-502.0
15418.84622595472,-277.0
15418.846288451932,-41.0
15418.846350949145,130.0
15418.846413446357,389.0
15418.84647594357,581.0
15418.846538440783,636.0
15418.846600937995,601.0
15418.846663435208,785.0
15418.84672593242,850.0
15418.846788429633,862.0
15418.846850926844,706.0
15418.846913424057,399.0
15418.84697592127,449.0
15418.847038418482,192.0
15418.847100915695,5.0
15418.847163412907,-55.0
15418.84722591012,-163.0
15418.847288407333,47.0
15418.847350904545,-156.0
15418.847413401756,-393.0
15418.847475898969,-242.0
15418.847538396181,-339.0
15418.847600893394,-435.0
15418.847663390607,-167.0
15418.84772588782,-114.0
15418.847788385032,-441.0
15418.847850882245,-356.0
15418.847913379457,-353.0
15418.84797587667,-584.0
15418.848038373882,-411.0
15418.848100871095,-175.0
15418.848163368308,-168.0
15418.848225865519,-242.0
15418.848288362731,94.0
15418.848350859944,364.0
15418.848413357156,390.0
15418.84847585437,228.0
15418.848538351582,-15.0
15418.848600848794,253.0
15418.848663346007,651.0
15418.84872584322,857.0
15418.84878834043,1054.0
15418.848850837643,1048.0
15418.848913334856,877.0
15418.848975832068,709.0
15418.849038329281,283.0
15418.849100826494,-203.0
15418.849163323706,-156.0
15418.849225820919,28.0
15418.849288318132,107.0
15418.849350815344,205.0
15418.849413312557,-79.0
15418.84947580977,-343.0
15418.849538306982,-221.0
15418.849600804193,-155.0
15418.849663301406,-383.0
15418.849725798618,-301.0
15418.84978829583,-115.0
15418.849850793044,-72.0
15418.849913290256,84.0
15418.849975787469,48.0
15418.850038284681,-7.0
15418.850100781894,471.0
15418.850163279105,916.0
15418.850225776318,579.0
15418.85028827353,429.0
15418.850350770743,237.0
15418.850413267955,-70.0
15418.850475765168,171.0
15418.85053826238,281.0
15418.850600759593,378.0
15418.850663256806,429.0
15418.850725754019,31.0
15418.850788251231,-397.0
15418.850850748444,-362.0
15418.850913245655,-147.0
15418.850975742867,-192.0
15418.85103824008,-262.0
15418.851100737293,-449.0
15418.851163234505,-732.0
15418.851225731718,-806.0
15418.85128822893,-822.0
15418.851350726143,-603.0
15418.851413223356,-352.0
15418.851475720568,-383.0
15418.85153821778,-292.0
15418.851600714992,-135.0
15418.851663212205,-282.0
15418.851725709417,-312.0
15418.85178820663,-129.0
15418.851850703843,-246.0
15418.851913201055,-376.0
15418.851975698268,-431.0
15418.85203819548,-394.0
15418.852100692693,-306.0
15418.852163189906,-276.0
15418.852225687118,-170.0
15418.85228818433,-410.0
15418.852350681542,-630.0
15418.852413178754,-770.0
15418.852475675967,-890.0
15418.85253817318,-772.0
15418.852600670392,-578.0
15418.852663167605,-261.0
15418.852725664818,-206.0
15418.85278816203,-254.0
15418.852850659243,-253.0
15418.852913156454,-510.0
15418.852975653666,-340.0
15418.853038150879,-315.0
15418.853100648092,-635.0
15418.853163145304,-612.0
15418.853225642517,-615.0
15418.85328813973,-551.0
15418.853350636942,-354.0
15418.853413134155,-291.0
15418.853475631367,-55.0
15418.85353812858,180.0
15418.853600625793,271.0
15418.853663123004,267.0
15418.853725620216,326.0
15418.853788117429,221.0
15418.853850614641,-165.0
15418.853913111854,-471.0
15418.853975609067,-697.0
15418.85403810628,-752.0
15418.854100603492,-633.0
15418.854163100705,-612.0
15418.854225597917,-339.0
15418.854288095128,56.0
15418.85435059234,134.0
15418.854413089553,166.0
15418.854475586766,147.0
15418.854538083979,-74.0
15418.854600581191,-300.0
15418.854663078404,-269.0
15418.854725575617,-288.0
15418.85478807283,-103.0
15418.854850570042,315.0
15418.854913067255,423.0
15418.854975564467,586.0
15418.855038061678,442.0
15418.85510055889,-21.0
15418.855163056103,-116.0
15418.855225553316,-128.0
15418.855288050529,-94.0
15418.855350547741,-114.0
15418.855413044954,-187.0
15418.855475542166,-139.0
15418.85553803938,24.0
15418.855600536592,205.0
15418.855663033803,242.0
15418.855725531015,148.0
15418.855788028228,343.0
15418.85585052544,426.0
15418.855913022653,322.0
15418.855975519866,123.0
15418.856038017078,-89.0
15418.856100514291,43.0
15418.856163011504,-97.0
15418.856225508716,16.0
15418.856288005929,161.0
15418.856350503142,-50.0
15418.856413000352,109.0
15418.856475497565,454.0
15418.856537994778,434.0
15418.85660049199,178.0
15418.856662989203,189.0
15418.856725486416,84.0
15418.856787983628,-27.0
15418.85685048084,111.0
15418.856912978054,57.0
15418.856975475266,79.0
15418.857037972477,110.0
15418.85710046969,42.0
15418.857162966902,222.0
15418.857225464115,322.0
15418.857287961328,58.0
15418.85735045854,41.0
15418.857412955753,122.0
15418.857475452965,61.0
15418.857537950178,-76.0
15418.85760044739,-306.0
15418.857662944603,-513.0
15418.857725441816,-563.0
15418.857787939027,-357.0
15418.85785043624,-155.0
15418.857912933452,35.0
15418.857975430665,176.0
15418.858037927877,83.0
15418.85810042509,-101.0
15418.858162922303,-392.0
15418.858225419515,-568.0
15418.858287916728,-502.0
15418.858350413939,-476.0
15418.858412911151,-579.0
15418.858475408364,-466.0
15418.858537905577,-361.0
15418.85860040279,-432.0
15418.858662900002,-569.0
15418.858725397215,-954.0
15418.858787894427,-1058.0
15418.85885039164,-895.0
15418.858912888853,-941.0
15418.858975386065,-890.0
15418.859037883278,-779.0
15418.85910038049,-607.0
15418.859162877701,-523.0
15418.859225374914,-387.0
15418.859287872127,-86.0
15418.85935036934,70.0
15418.859412866552,-4.0
15418.859475363764,-28.0
15418.859537860977,43.0
15418.85960035819,-149.0
15418.859662855402,-245.0
15418.859725352613,-253.0
15418.859787849826,-339.0
15418.859850347038,32.0
15418.859912844251,272.0
15418.859975341464,55.0
15418.860037838676,28.0
15418.860100335889,-71.0
15418.860162833102,-151.0
15418.860225330314,33.0
15418.860287827527,-115.0
15418.86035032474,-50.0
15418.860412821952,111.0
15418.860475319165,-126.0
15418.860537816376,-267.0
15418.860600313588,-179.0
15418.860662810801,-8.0
15418.860725308014,14.0
15418.860787805226,262.0
15418.860850302439,192.0
15418.860912799651,13.0
15418.860975296864,171.0
15418.861037794077,192.0
15418.861100291288,371.0
15418.8611627885,375.0
15418.861225285713,316.0
15418.861287782926,279.0
15418.861350280138,312.0
15418.86141277735,425.0
15418.861475274563,354.0
15418.861537771776,312.0
15418.861600268989,30.0
15418.861662766201,-510.0
15418.861725263414,-948.0
15418.861787760627,-982.0
15418.86185025784,-824.0
15418.86191275505,-572.0
15418.861975252263,-322.0
15418.862037749475,-417.0
15418.862100246688,-538.0
15418.8621627439,-609.0
15418.862225241113,-594.0
15418.862287738326,-456.0
15418.862350235539,-398.0
15418.862412732751,-506.0
15418.862475229962,-380.0
15418.862537727175,-57.0
15418.862600224387,-15.0
15418.8626627216,-48.0
15418.862725218813,128.0
15418.862787716025,53.0
15418.862850213238,52.0
15418.86291271045,294.0
15418.862975207663,351.0
15418.863037704876,352.0
15418.863100202088,172.0
15418.863162699301,-29.0
15418.863225196512,-66.0
15418.863287693724,-214.0
15418.863350190937,-146.0
15418.86341268815,-9.0
15418.863475185362,-83.0
15418.863537682575,-321.0
15418.863600179788,-608.0
15418.863662677,-585.0
15418.863725174213,-478.0
15418.863787671426,-345.0
15418.863850168636,-219.0
15418.863912665849,-293.0
15418.863975163062,-502.0
15418.864037660274,-544.0
15418.864100157487,-103.0
15418.8641626547,210.0
15418.864225151912,546.0
15418.864287649125,813.0
15418.864350146338,671.0
15418.86441264355,572.0
15418.864475140763,422.0
15418.864537637975,158.0
15418.864600135186,99.0
15418.864662632399,220.0
15418.864725129612,306.0
15418.864787626824,409.0
15418.864850124037,318.0
15418.86491262125,43.0
15418.864975118462,-155.0
15418.865037615675,-128.0
15418.865100112887,233.0
15418.8651626101,380.0
15418.86522510731,137.0
15418.865287604523,-118.0
15418.865350101736,16.0
15418.865412598949,41.0
15418.865475096161,-57.0
15418.865537593374,57.0
15418.865600090587,-95.0
15418.8656625878,-307.0
15418.865725085012,-164.0
15418.865787582225,114.0
15418.865850079437,-62.0
15418.86591257665,-262.0
15418.86597507386,-138.0
15418.866037571073,-222.0
15418.866100068286,-304.0
15418.866162565499,-254.0
15418.866225062711,-271.0
15418.866287559924,-121.0
15418.866350057137,40.0
15418.86641255435,-66.0
15418.866475051562,-55.0
15418.866537548774,266.0
15418.866600045985,234.0
15418.866662543198,59.0
15418.86672504041,-17.0
15418.866787537623,-272.0
15418.866850034836,-437.0
15418.866912532048,-699.0
15418.866975029261,-825.0
15418.867037526474,-474.0
15418.867100023686,-395.0
15418.867162520899,-458.0
15418.867225018112,-251.0
15418.867287515324,-177.0
15418.867350012535,-204.0
15418.867412509748,-193.0
15418.86747500696,-408.0
15418.867537504173,-545.0
15418.867600001386,-627.0
15418.867662498598,-709.0
15418.867724995811,-591.0
15418.867787493024,-367.0
15418.867849990236,-81.0
15418.867912487449,39.0
15418.86797498466,39.0
15418.868037481872,-32.0
15418.868099979085,-193.0
15418.868162476298,-431.0
15418.86822497351,-285.0
15418.868287470723,99.0
15418.868349967936,100.0
15418.868412465148,219.0
15418.86847496236,273.0
15418.868537459573,142.0
15418.868599956786,170.0
15418.868662453999,-13.0
15418.86872495121,15.0
15418.868787448422,300.0
15418.868849945635,300.0
15418.868912442847,86.0
15418.86897494006,-12.0
15418.869037437273,-129.0
15418.869099934485,-82.0
15418.869162431698,43.0
15418.86922492891,-93.0
15418.869287426121,-486.0
15418.869349923334,-495.0
15418.869412420547,-136.0
15418.86947491776,-1.0
15418.869537414972,161.0
15418.869599912185,55.0
15418.869662409397,-9.0
15418.86972490661,109.0
15418.869787403823,19.0
15418.869849901035,-39.0
15418.869912398248,70.0
15418.86997489546,391.0
15418.870037392673,530.0
15418.870099889884,494.0
15418.870162387097,570.0
15418.87022488431,559.0
15418.870287381522,335.0
15418.870349878734,-188.0
15418.870412375947,-406.0
15418.87047487316,-163.0
15418.870537370372,144.0
15418.870599867585,446.0
15418.870662364796,460.0
15418.870724862009,431.0
15418.870787359221,437.0
15418.870849856434,390.0
15418.870912353646,361.0
15418.870974850859,164.0
15418.871037348072,-32.0
15418.871099845284,22.0
15418.871162342497,84.0
15418.87122483971,168.0
15418.871287336922,402.0
15418.871349834135,707.0
15418.871412331348,599.0
15418.871474828558,474.0
15418.871537325771,522.0
15418.871599822984,210.0
15418.871662320196,11.0
15418.871724817409,-132.0
15418.871787314622,-155.0
15418.871849811834,62.0
15418.871912309047,-54.0
15418.87197480626,-221.0
15418.87203730347,-128.0
15418.872099800683,111.0
15418.872162297896,485.0
15418.872224795108,683.0
15418.87228729232,809.0
15418.872349789533,579.0
15418.872412286746,192.0
15418.872474783959,149.0
15418.872537281171,342.0
15418.872599778384,517.0
15418.872662275597,536.0
15418.87272477281,762.0
15418.872787270022,772.0
15418.872849767233,632.0
15418.872912264445,494.0
15418.872974761658,49.0
15418.87303725887,-347.0
15418.873099756083,-697.0
15418.873162253296,-966.0
15418.873224750509,-1004.0
15418.873287247721,-945.0
15418.873349744934,-481.0
15418.873412242145,29.0
15418.873474739357,253.0
15418.87353723657,333.0
15418.873599733783,143.0
15418.873662230995,-154.0
15418.873724728208,-198.0
15418.87378722542,76.0
15418.873849722633,169.0
15418.873912219846,224.0
15418.873974717058,408.0
15418.874037214271,339.0
15418.874099711484,397.0
15418.874162208695,295.0
15418.874224705907,177.0
15418.87428720312,-24.0
15418.874349700332,-345.0
15418.874412197545,-365.0
15418.874474694758,-351.0
15418.87453719197,-32.0
15418.874599689183,172.0
15418.874662186396,249.0
15418.874724683608,538.0
15418.87478718082,617.0
15418.874849678032,581.0
15418.874912175244,638.0
15418.874974672457,747.0
15418.87503716967,710.0
15418.875099666882,553.0
15418.875162164095,439.0
15418.875224661308,60.0
15418.87528715852,-226.0
15418.875349655733,-206.0
15418.875412152946,-470.0
15418.875474650158,-706.0
15418.875537147369,-472.0
15418.875599644582,9.0
15418.875662141794,233.0
15418.875724639007,-19.0
15418.87578713622,-273.0
15418.875849633432,-235.0
15418.875912130645,-95.0
15418.875974627857,55.0
15418.87603712507,136.0
15418.876099622283,186.0
15418.876162119494,-28.0
15418.876224616706,-292.0
15418.876287113919,-256.0
15418.876349611131,-202.0
15418.876412108344,-184.0
15418.876474605557,-110.0
15418.87653710277,-83.0
15418.876599599982,-299.0
15418.876662097195,-444.0
15418.876724594407,-387.0
15418.87678709162,-382.0
15418.876849588833,-438.0
15418.876912086043,-444.0
15418.876974583256,-351.0
15418.877037080469,-410.0
15418.877099577681,-398.0
15418.877162074894,3.0
15418.877224572107,389.0
15418.87728706932,437.0
15418.877349566532,258.0
15418.877412063744,-63.0
15418.877474560957,-348.0
15418.877537058168,-160.0
15418.87759955538,-173.0
15418.877662052593,-307.0
15418.877724549806,-290.0
15418.877787047019,-647.0
15418.877849544231,-691.0
15418.877912041444,-738.0
15418.877974538656,-761.0
15418.878037035869,-435.0
15418.878099533082,-291.0
15418.878162030294,-360.0
15418.878224527507,-538.0
15418.878287024718,-568.0
15418.87834952193,-602.0
15418.878412019143,-519.0
15418.878474516356,-368.0
15418.878537013568,-568.0
15418.878599510781,-422.0
15418.878662007994,-109.0
15418.878724505206,-160.0
15418.878787002419,3.0
15418.878849499632,183.0
15418.878911996842,-16.0
15418.878974494055,-110.0
15418.879036991268,21.0
15418.87909948848,-22.0
15418.879161985693,-104.0
15418.879224482906,-3.0
15418.879286980118,-198.0
15418.87934947733,-466.0
15418.879411974543,-422.0
15418.879474471756,-519.0
15418.879536968969,-520.0
15418.879599466181,-460.0
15418.879661963392,-610.0
15418.879724460605,-580.0
15418.879786957817,-475.0
15418.87984945503,-571.0
15418.879911952243,-573.0
15418.879974449455,-522.0
15418.880036946668,-560.0
15418.88009944388,-240.0
15418.880161941093,-92.0
15418.880224438304,-123.0
15418.880286935517,19.0
15418.88034943273,-117.0
15418.880411929942,-187.0
15418.880474427155,-60.0
15418.880536924367,-326.0
15418.88059942158,-915.0
15418.880661918793,-943.0
15418.880724416005,-835.0
15418.880786913218,-802.0
15418.88084941043,-210.0
15418.880911907643,54.0
15418.880974404856,-82.0
15418.881036902067,-240.0
15418.88109939928,-508.0
15418.881161896492,-592.0
15418.881224393705,-660.0
15418.881286890917,-636.0
15418.88134938813,-323.0
15418.881411885342,-58.0
15418.881474382555,246.0
15418.881536879768,502.0
15418.881599376979,398.0
15418.881661874191,-140.0
15418.881724371404,-402.0
15418.881786868616,-77.0
15418.88184936583,-145.0
15418.881911863042,-161.0
15418.881974360254,93.0
15418.882036857467,180.0
15418.88209935468,122.0
15418.882161851892,-258.0
15418.882224349105,-429.0
15418.882286846318,-311.0
15418.88234934353,-183.0
15418.882411840741,62.0
15418.882474337954,198.0
15418.882536835166,47.0
15418.882599332379,-194.0
15418.882661829592,-158.0
15418.882724326804,62.0
15418.882786824017,189.0
15418.88284932123,252.0
15418.882911818442,137.0
15418.882974315653,204.0
15418.883036812866,378.0
15418.883099310078,193.0
15418.88316180729,83.0
15418.883224304504,25.0
15418.883286801716,-126.0
15418.883349298929,-292.0
15418.883411796141,-507.0
15418.883474293354,-674.0
15418.883536790567,-573.0
15418.88359928778,-272.0
15418.883661784992,-40.0
15418.883724282205,44.0
15418.883786779415,-107.0
15418.883849276628,-373.0
15418.88391177384,-533.0
15418.883974271053,-653.0
15418.884036768266,-552.0
15418.884099265479,-65.0
15418.884161762691,135.0
15418.884224259904,-11.0
15418.884286757117,-70.0
15418.884349254327,-228.0
15418.88441175154,-416.0
15418.884474248753,-586.0
15418.884536745965,-778.0
15418.884599243178,-930.0
15418.88466174039,-952.0
15418.884724237603,-877.0
15418.884786734816,-735.0
15418.884849232029,-435.0
15418.884911729241,-220.0
15418.884974226454,-19.0
15418.885036723666,73.0
15418.885099220877,-64.0
15418.88516171809,-227.0
15418.885224215303,-261.0
15418.885286712515,-121.0
15418.885349209728,-79.0
15418.88541170694,-277.0
15418.885474204153,-452.0
15418.885536701366,-622.0
15418.885599198578,-872.0
15418.885661695791,-1123.0
15418.885724193002,-1193.0
15418.885786690214,-780.0
15418.885849187427,-463.0
15418.88591168464,-231.0
15418.885974181852,-45.0
15418.886036679065,-172.0
15418.886099176278,-303.0
15418.88616167349,-330.0
15418.886224170703,-178.0
15418.886286667916,66.0
15418.886349165128,243.0
15418.88641166234,415.0
15418.886474159552,372.0
15418.886536656764,-208.0
15418.886599153977,-603.0
15418.88666165119,-611.0
15418.886724148402,-653.0
15418.886786645615,-606.0
15418.886849142827,-449.0
15418.88691164004,-461.0
15418.886974137253,-404.0
15418.887036634465,-126.0
15418.887099131676,-160.0
15418.887161628889,-322.0
15418.887224126102,-376.0
15418.887286623314,-522.0
15418.887349120527,-355.0
15418.88741161774,-138.0
15418.887474114952,38.0
15418.887536612165,158.0
15418.887599109377,-16.0
15418.88766160659,109.0
15418.887724103803,180.0
15418.887786601015,176.0
15418.887849098226,423.0
15418.887911595439,734.0
15418.887974092651,924.0
15418.888036589864,863.0
15418.888099087077,896.0
15418.88816158429,744.0
15418.888224081502,492.0
15418.888286578715,370.0
15418.888349075927,111.0
15418.88841157314,-56.0
15418.88847407035,-65.0
15418.888536567563,-29.0
15418.888599064776,33.0
15418.888661561989,130.0
15418.888724059201,58.0
15418.888786556414,-61.0
15418.888849053626,140.0
15418.88891155084,258.0
15418.888974048052,106.0
15418.889036545264,199.0
15418.889099042477,429.0
15418.88916153969,710.0
15418.8892240369,846.0
15418.889286534113,712.0
15418.889349031326,589.0
15418.889411528538,225.0
15418.889474025751,-121.0
15418.889536522964,-113.0
15418.889599020176,-77.0
15418.889661517389,10.0
15418.889724014602,244.0
15418.889786511814,415.0
15418.889849009025,304.0
15418.889911506238,212.0
15418.88997400345,312.0
15418.890036500663,241.0
15418.890098997876,250.0
15418.890161495088,169.0
15418.8902239923,203.0
15418.890286489514,354.0
15418.890348986726,400.0
15418.890411483939,505.0
15418.890473981151,334.0
15418.890536478364,362.0
15418.890598975575,570.0
15418.890661472788,526.0
15418.89072397,328.0
15418.890786467213,197.0
15418.890848964425,360.0
15418.890911461638,308.0
15418.89097395885,34.0
15418.891036456063,-41.0
15418.891098953276,17.0
15418.891161450489,-55.0
15418.8912239477,9.0
15418.891286444912,331.0
15418.891348942125,569.0
15418.891411439337,605.0
15418.89147393655,622.0
15418.891536433763,537.0
15418.891598930975,535.0
15418.891661428188,449.0
15418.8917239254,171.0
15418.891786422613,150.0
15418.891848919826,104.0
15418.891911417039,-127.0
15418.89197391425,-193.0
15418.892036411462,54.0
15418.892098908675,-2.0
15418.892161405887,-241.0
15418.8922239031,-97.0
15418.892286400313,0.0
15418.892348897525,-21.0
15418.892411394738,-8.0
15418.89247389195,176.0
15418.892536389161,206.0
15418.892598886374,247.0
15418.892661383587,439.0
15418.8927238808,552.0
15418.892786378012,824.0
15418.892848875224,655.0
15418.892911372437,398.0
15418.89297386965,321.0
15418.893036366862,18.0
15418.893098864075,-91.0
15418.893161361288,-169.0
15418.8932238585,-246.0
15418.893286355713,-227.0
15418.893348852924,-331.0
15418.893411350136,-510.0
15418.893473847349,-497.0
15418.893536344562,-267.0
15418.893598841774,-96.0
15418.893661338987,-151.0
15418.8937238362,-348.0
15418.893786333412,-289.0
15418.893848830625,-146.0
15418.893911327836,-264.0
15418.893973825048,-173.0
15418.894036322261,126.0
15418.894098819474,151.0
15418.894161316686,104.0
15418.894223813899,-109.0
15418.894286311112,-435.0
15418.894348808324,-544.0
15418.894411305537,-411.0
15418.89447380275,-53.0
15418.894536299962,74.0
15418.894598797175,171.0
15418.894661294387,362.0
15418.894723791598,312.0
15418.89478628881,459.0
15418.894848786023,643.0
15418.894911283236,550.0
15418.894973780449,277.0
15418.895036277661,30.0
15418.895098774874,-146.0
15418.895161272087,-395.0
15418.8952237693,-475.0
15418.89528626651,-538.0
15418.895348763723,-744.0
15418.895411260935,-831.0
15418.895473758148,-712.0
15418.89553625536,-581.0
15418.895598752573,-252.0
15418.895661249786,21.0
15418.895723746999,-80.0
15418.895786244211,-208.0
15418.895848741424,-248.0
15418.895911238636,-318.0
15418.89597373585,-211.0
15418.89603623306,35.0
15418.896098730273,218.0
15418.896161227485,267.0
15418.896223724698,134.0
15418.89628622191,95.0
15418.896348719123,141.0
15418.896411216336,73.0
15418.896473713548,-165.0
15418.896536210761,-314.0
15418.896598707974,-225.0
15418.896661205185,-236.0
15418.896723702397,-196.0
15418.89678619961,-68.0
15418.896848696822,43.0
15418.896911194035,30.0
15418.896973691248,87.0
15418.89703618846,239.0
15418.897098685673,225.0
15418.897161182886,312.0
15418.897223680098,205.0
15418.89728617731,62.0
15418.897348674524,-47.0
15418.897411171734,-369.0
15418.897473668947,-561.0
15418.89753616616,-559.0
15418.897598663372,-270.0
15418.897661160585,-80.0
15418.897723657798,-117.0
15418.89778615501,94.0
15418.897848652223,372.0
15418.897911149435,452.0
15418.897973646648,402.0
15418.898036143859,182.0
15418.898098641072,12.0
15418.898161138284,153.0
15418.898223635497,432.0
15418.89828613271,633.0
15418.898348629922,728.0
15418.898411127135,784.0
15418.898473624347,755.0
15418.89853612156,588.0
15418.898598618773,664.0
15418.898661115985,512.0
15418.898723613198,-90.0
15418.898786110409,-202.0
15418.898848607621,-59.0
15418.898911104834,143.0
15418.898973602047,533.0
15418.89903609926,575.0
15418.899098596472,349.0
15418.899161093685,289.0
15418.899223590897,285.0
15418.89928608811,129.0
15418.899348585323,217.0
15418.899411082533,394.0
15418.899473579746,225.0
15418.899536076959,-184.0
15418.899598574171,-430.0
15418.899661071384,-354.0
15418.899723568597,-144.0
15418.89978606581,159.0
15418.899848563022,289.0
15418.899911060234,292.0
15418.899973557447,220.0
15418.90003605466,-16.0
15418.900098551872,-128.0
15418.900161049083,-71.0
15418.900223546296,14.0
15418.900286043508,55.0
15418.900348540721,64.0
15418.900411037934,-127.0
15418.900473535146,-223.0
15418.900536032359,70.0
15418.900598529572,291.0
15418.900661026784,439.0
15418.900723523997,475.0
15418.900786021208,450.0
15418.90084851842,381.0
15418.900911015633,243.0
15418.900973512846,226.0
15418.901036010058,312.0
15418.901098507271,540.0
15418.901161004484,637.0
15418.901223501696,845.0
15418.901285998909,1124.0
15418.901348496121,1067.0
15418.901410993334,1238.0
15418.901473490547,1117.0
15418.901535987758,671.0
15418.90159848497,504.0
15418.901660982183,300.0
15418.901723479396,93.0
15418.901785976608,82.0
15418.90184847382,159.0
15418.901910971033,200.0
15418.901973468246,289.0
15418.902035965459,199.0
15418.902098462671,262.0
15418.902160959882,388.0
15418.902223457095,326.0
15418.902285954307,449.0
15418.90234845152,504.0
15418.902410948733,597.0
15418.902473445945,783.0
15418.902535943158,875.0
15418.90259844037,940.0
15418.902660937583,1074.0
15418.902723434796,1111.0
15418.902785932009,1006.0
15418.902848429221,965.0
15418.902910926432,725.0
15418.902973423645,743.0
15418.903035920857,734.0
15418.90309841807,391.0
15418.903160915283,160.0
15418.903223412495,-227.0
15418.903285909708,-296.0
15418.90334840692,-105.0
15418.903410904133,166.0
15418.903473401344,593.0
15418.903535898557,661.0
15418.90359839577,821.0
15418.903660892982,977.0
15418.903723390195,819.0
15418.903785887407,639.0
15418.90384838462,461.0
15418.903910881832,488.0
15418.903973379045,611.0
15418.904035876258,531.0
15418.90409837347,274.0
15418.904160870683,-4.0
15418.904223367896,-246.0
15418.904285865106,-370.0
15418.904348362319,-208.0
15418.904410859532,-51.0
15418.904473356744,47.0
15418.904535853957,228.0
15418.90459835117,249.0
15418.904660848382,176.0
15418.904723345595,-29.0
15418.904785842808,-298.0
15418.904848340018,-223.0
15418.904910837231,-172.0
15418.904973334444,-120.0
15418.905035831656,202.0
15418.905098328869,534.0
15418.905160826082,638.0
15418.905223323294,406.0
15418.905285820507,205.0
15418.90534831772,193.0
15418.905410814932,255.0
15418.905473312145,336.0
15418.905535809357,319.0
15418.90559830657,182.0
15418.90566080378,-30.0
15418.905723300993,-270.0
15418.905785798206,-313.0
15418.905848295419,-445.0
15418.905910792631,-699.0
15418.905973289844,-507.0
15418.906035787057,-511.0
15418.90609828427,-778.0
15418.906160781482,-847.0
15418.906223278693,-731.0
15418.906285775905,-552.0
15418.906348273118,-556.0
15418.90641077033,-462.0
15418.906473267543,-378.0
15418.906535764756,-316.0
15418.906598261969,38.0
15418.906660759181,149.0
15418.906723256394,45.0
15418.906785753607,349.0
15418.90684825082,564.0
15418.906910748032,430.0
15418.906973245243,158.0
15418.907035742455,49.0
15418.907098239668,135.0
15418.90716073688,41.0
15418.907223234093,234.0
15418.907285731306,422.0
15418.907348228518,219.0
15418.907410725731,-142.0
15418.907473222944,-433.0
15418.907535720156,-406.0
15418.907598217367,-348.0
15418.90766071458,-60.0
15418.907723211792,335.0
15418.907785709005,495.0
15418.907848206218,382.0
15418.90791070343,190.0
15418.907973200643,82.0
15418.908035697856,-106.0
15418.908098195068,-110.0
15418.908160692281,-36.0
15418.908223189494,-16.0
15418.908285686706,-40.0
15418.908348183917,-267.0
15418.90841068113,-275.0
15418.908473178342,117.0
15418.908535675555,307.0
15418.908598172768,297.0
15418.90866066998,326.0
15418.908723167193,147.0
15418.908785664406,183.0
15418.908848161618,303.0
15418.90891065883,322.0
15418.908973156042,702.0
15418.909035653254,928.0
15418.909098150467,843.0
15418.90916064768,807.0
15418.909223144892,739.0
15418.909285642105,430.0
15418.909348139317,155.0
15418.90941063653,91.0
15418.909473133743,-29.0
15418.909535630955,-82.0
15418.909598128168,-236.0
15418.90966062538,-420.0
15418.909723122591,-234.0
15418.909785619804,-140.0
15418.909848117017,-184.0
15418.90991061423,-56.0
15418.909973111442,112.0
15418.910035608655,207.0
15418.910098105867,168.0
15418.91016060308,247.0
15418.910223100293,533.0
15418.910285597505,701.0
15418.910348094716,782.0
15418.910410591929,929.0
15418.910473089141,909.0
15418.910535586354,789.0
15418.910598083567,800.0
15418.91066058078,809.0
15418.910723077992,634.0
15418.910785575204,474.0
15418.910848072417,503.0
15418.91091056963,490.0
15418.910973066842,511.0
15418.911035564055,394.0
15418.911098061266,249.0
15418.911160558479,258.0
15418.911223055691,232.0
15418.911285552904,267.0
15418.911348050116,577.0
15418.911410547329,787.0
15418.911473044542,756.0
15418.911535541754,562.0
15418.911598038967,165.0
15418.91166053618,-60.0
15418.91172303339,25.0
15418.911785530603,197.0
15418.911848027816,269.0
15418.911910525028,279.0
15418.911973022241,454.0
15418.912035519454,518.0
15418.912098016666,343.0
15418.912160513879,460.0
15418.912223011092,592.0
15418.912285508304,538.0
15418.912348005517,595.0
15418.91241050273,588.0
15418.91247299994,495.0
15418.912535497153,502.0
15418.912597994366,641.0
15418.912660491578,736.0
15418.91272298879,640.0
15418.912785486003,500.0
15418.912847983216,562.0
15418.912910480429,609.0
15418.912972977641,422.0
15418.913035474854,376.0
15418.913097972065,276.0
15418.913160469277,-173.0
15418.91322296649,-273.0
15418.913285463703,-96.0
15418.913347960915,-145.0
15418.913410458128,-257.0
15418.91347295534,-286.0
15418.913535452553,-351.0
15418.913597949766,-496.0
15418.913660446979,-420.0
15418.913722944191,-302.0
15418.913785441404,-38.0
15418.913847938615,194.0
15418.913910435827,62.0
15418.91397293304,107.0
15418.914035430253,201.0
15418.914097927465,305.0
15418.914160424678,242.0
15418.91422292189,99.0
15418.914285419103,227.0
15418.914347916316,307.0
15418.914410413527,372.0
15418.91447291074,386.0
15418.914535407952,173.0
15418.914597905165,-66.0
15418.914660402377,-264.0
15418.91472289959,-431.0
15418.914785396802,-375.0
15418.914847894015,-108.0
15418.914910391228,82.0
15418.91497288844,30.0
15418.915035385653,-101.0
15418.915097882866,-125.0
15418.915160380078,-207.0
15418.91522287729,-302.0
15418.915285374502,-409.0
15418.915347871714,-454.0
15418.915410368927,-335.0
15418.91547286614,-93.0
15418.915535363352,-75.0
15418.915597860565,-144.0
15418.915660357778,-181.0
15418.91572285499,-180.0
15418.915785352201,37.0
15418.915847849414,-64.0
15418.915910346626,-200.0
15418.915972843839,-239.0
15418.916035341052,-380.0
15418.916097838264,-578.0
15418.916160335477,-752.0
15418.91622283269,-595.0
15418.916285329902,-459.0
15418.916347827115,-490.0
15418.916410324327,-537.0
15418.91647282154,-831.0
15418.916535318753,-1083.0
15418.916597815964,-1047.0
15418.916660313176,-795.0
15418.916722810389,-488.0
15418.916785307601,-430.0
15418.916847804814,-450.0
15418.916910302027,-435.0
15418.91697279924,-401.0
15418.917035296452,-13.0
15418.917097793665,359.0
15418.917160290875,467.0
15418.917222788088,343.0
15418.9172852853,-152.0
15418.917347782513,-369.0
15418.917410279726,-349.0
15418.917472776939,-436.0
15418.917535274151,-489.0
15418.917597771364,-616.0
15418.917660268577,-642.0
15418.91772276579,-599.0
15418.917785263002,-475.0
15418.917847760214,-326.0
15418.917910257427,-423.0
15418.917972754638,-297.0
15418.91803525185,-134.0
15418.918097749063,12.0
15418.918160246276,361.0
15418.918222743489,538.0
15418.918285240701,377.0
15418.918347737914,108.0
15418.918410235126,207.0
15418.918472732339,132.0
15418.91853522955,-163.0
15418.918597726763,-88.0
15418.918660223975,-43.0
15418.918722721188,-185.0
15418.9187852184,-190.0
15418.918847715613,-132.0
15418.918910212826,-136.0
15418.918972710038,41.0
15418.919035207251,-36.0
15418.919097704464,-345.0
15418.919160201676,-293.0
15418.919222698889,-147.0
15418.9192851961,-10.0
15418.919347693312,58.0
15418.919410190525,30.0
15418.919472687738,14.0
15418.91953518495,-210.0
15418.919597682163,-431.0
15418.919660179376,-332.0
15418.919722676588,-164.0
15418.9197851738,178.0
15418.919847671013,285.0
15418.919910168224,130.0
15418.919972665437,89.0
15418.92003516265,-151.0
15418.920097659862,-85.0
15418.920160157075,-11.0
15418.920222654287,-30.0
15418.9202851515,-70.0
15418.920347648713,-408.0
15418.920410145925,-634.0
15418.920472643138,-732.0
15418.92053514035,-745.0
15418.920597637563,-853.0
15418.920660134774,-942.0
15418.920722631987,-928.0
15418.9207851292,-1034.0
15418.920847626412,-1054.0
15418.920910123625,-814.0
15418.920972620837,-531.0
15418.92103511805,-423.0
15418.921097615263,-526.0
15418.921160112475,-760.0
15418.921222609688,-862.0
15418.921285106899,-900.0
15418.921347604111,-700.0
15418.921410101324,-46.0
15418.921472598537,309.0
15418.92153509575,197.0
15418.921597592962,47.0
15418.921660090175,-93.0
15418.921722587387,-243.0
15418.9217850846,-223.0
15418.921847581812,-70.0
15418.921910079025,-20.0
15418.921972576238,-76.0
15418.922035073449,-218.0
15418.922097570661,-325.0
15418.922160067874,-265.0
15418.922222565086,-192.0
15418.9222850623,-355.0
15418.922347559512,-453.0
15418.922410056724,-435.0
15418.922472553937,-531.0
15418.92253505115,-453.0
15418.922597548362,-247.0
15418.922660045573,-11.0
15418.922722542786,111.0
15418.922785039998,58.0
15418.922847537211,-65.0
15418.922910034424,-88.0
15418.922972531636,-111.0
15418.923035028849,-234.0
15418.923097526062,-9.0
15418.923160023274,262.0
15418.923222520487,184.0
15418.9232850177,62.0
15418.923347514912,26.0
15418.923410012123,141.0
15418.923472509336,356.0
15418.923535006548,312.0
15418.92359750376,225.0
15418.923660000974,238.0
15418.923722498186,210.0
15418.923784995399,251.0
15418.923847492611,79.0
15418.923909989824,-95.0
15418.923972487037,-63.0
15418.924034984248,-152.0
15418.92409748146,-90.0
15418.924159978673,84.0
15418.924222475885,54.0
15418.924284973098,-111.0
15418.92434747031,-277.0
15418.924409967523,-383.0
15418.924472464736,-465.0
15418.924534961949,-479.0
15418.924597459161,-231.0
15418.924659956374,-15.0
15418.924722453587,-213.0
15418.924784950797,-141.0
15418.92484744801,123.0
15418.924909945223,14.0
15418.924972442435,51.0
15418.925034939648,-3.0
15418.92509743686,-160.0
15418.925159934073,-176.0
15418.925222431286,-330.0
15418.925284928499,-253.0
15418.92534742571,-8.0
15418.925409922922,-17.0
15418.925472420135,21.0
15418.925534917347,-134.0
15418.92559741456,-388.0
15418.925659911773,-408.0
15418.925722408985,-459.0
15418.925784906198,-356.0
15418.92584740341,-166.0
15418.925909900623,-203.0
15418.925972397836,-295.0
15418.926034895048,-296.0
15418.926097392261,-149.0
15418.926159889472,164.0
15418.926222386684,346.0
15418.926284883897,161.0
15418.92634738111,-50.0
15418.926409878322,-269.0
15418.926472375535,-589.0
15418.926534872748,-507.0
15418.92659736996,-339.0
15418.926659867173,-283.0
15418.926722364384,-294.0
15418.926784861596,-472.0
15418.926847358809,-501.0
15418.926909856022,-423.0
15418.926972353234,-326.0
15418.927034850447,-39.0
15418.92709734766,215.0
15418.927159844872,140.0
15418.927222342085,48.0
15418.927284839297,-105.0
15418.92734733651,-70.0
15418.927409833723,206.0
15418.927472330935,323.0
15418.927534828146,370.0
15418.927597325359,413.0
15418.927659822572,258.0
15418.927722319784,10.0
15418.927784816997,153.0
15418.92784731421,408.0
15418.927909811422,406.0
15418.927972308635,367.0
15418.928034805847,428.0
15418.928097303058,427.0
15418.92815980027,294.0
15418.928222297483,290.0
15418.928284794696,319.0
15418.928347291909,122.0
15418.928409789121,-115.0
15418.928472286334,-161.0
15418.928534783547,-124.0
15418.92859728076,-169.0
15418.928659777972,-134.0
15418.928722275185,3.0
15418.928784772397,87.0
15418.92884726961,326.0
15418.92890976682,303.0
15418.928972264033,50.0
15418.929034761246,71.0
15418.929097258459,182.0
15418.929159755671,289.0
15418.929222252884,388.0
15418.929284750096,307.0
15418.92934724731,-23.0
15418.929409744522,-379.0
15418.929472241733,-291.0
15418.929534738945,49.0
15418.929597236158,193.0
15418.92965973337,250.0
15418.929722230583,135.0
15418.929784727796,31.0
15418.929847225008,156.0
15418.929909722221,177.0
15418.929972219434,48.0
15418.930034716646,-8.0
15418.930097213859,47.0
15418.930159711072,82.0
15418.930222208282,147.0
15418.930284705495,145.0
15418.930347202708,66.0
15418.93040969992,-18.0
15418.930472197133,9.0
15418.930534694346,-137.0
15418.930597191558,-582.0
15418.93065968877,-719.0
15418.930722185984,-547.0
15418.930784683196,-191.0
15418.930847180407,222.0
15418.93090967762,451.0
15418.930972174832,522.0
15418.931034672045,478.0
15418.931097169258,419.0
15418.93115966647,283.0
15418.931222163683,210.0
15418.931284660895,420.0
15418.931347158108,637.0
15418.93140965532,682.0
15418.931472152533,601.0
15418.931534649746,530.0
15418.931597146957,569.0
15418.93165964417,557.0
15418.931722141382,425.0
15418.931784638595,361.0
15418.931847135807,248.0
15418.93190963302,33.0
15418.931972130233,-74.0
15418.932034627445,-163.0
15418.932097124658,-212.0
15418.93215962187,-162.0
15418.932222119081,-174.0
15418.932284616294,-233.0
15418.932347113507,-232.0
15418.93240961072,-128.0
15418.932472107932,27.0
15418.932534605145,163.0
15418.932597102357,65.0
15418.93265959957,51.0
15418.932722096783,153.0
15418.932784593995,139.0
15418.932847091208,87.0
15418.93290958842,-266.0
15418.932972085631,-416.0
15418.933034582844,-456.0
15418.933097080057,-513.0
15418.93315957727,-397.0
15418.933222074482,-391.0
15418.933284571694,-466.0
15418.933347068907,-496.0
15418.93340956612,-603.0
15418.933472063332,-625.0
15418.933534560545,-316.0
15418.933597057756,-123.0
15418.933659554968,-13.0
15418.933722052181,218.0
15418.933784549394,299.0
15418.933847046606,316.0
15418.933909543819,353.0
15418.933972041032,274.0
15418.934034538244,222.0
15418.934097035457,-56.0
15418.93415953267,-643.0
15418.934222029882,-951.0
15418.934284527095,-918.0
15418.934347024306,-748.0
15418.934409521518,-520.0
15418.934472018731,-417.0
15418.934534515944,-202.0
15418.934597013156,25.0
15418.934659510369,-74.0
15418.934722007582,-275.0
15418.934784504794,-310.0
15418.934847002007,-212.0
15418.93490949922,-61.0
15418.93497199643,113.0
15418.935034493643,70.0
15418.935096990856,37.0
15418.935159488068,71.0
15418.93522198528,132.0
15418.935284482493,132.0
15418.935346979706,155.0
15418.935409476919,335.0
15418.935471974131,240.0
15418.935534471344,-17.0
15418.935596968557,-181.0
15418.93565946577,-208.0
15418.93572196298,-327.0
15418.935784460193,-482.0
15418.935846957405,-315.0
15418.935909454618,-74.0
15418.93597195183,114.0
15418.936034449043,176.0
15418.936096946256,137.0
15418.936159443469,6.0
15418.936221940681,-107.0
15418.936284437894,-87.0
15418.936346935105,-220.0
15418.936409432317,-233.0
15418.93647192953,-95.0
15418.936534426743,-9.0
15418.936596923955,127.0
15418.936659421168,138.0
15418.93672191838,32.0
15418.936784415593,111.0
15418.936846912806,346.0
15418.936909410018,264.0
15418.936971907231,12.0
15418.937034404444,-93.0
15418.937096901655,-342.0
15418.937159398867,-311.0
15418.93722189608,-117.0
15418.937284393292,-127.0
15418.937346890505,74.0
15418.937409387718,182.0
15418.93747188493,117.0
15418.937534382143,107.0
15418.937596879356,99.0
15418.937659376566,160.0
15418.937721873779,411.0
15418.937784370992,695.0
15418.937846868204,619.0
15418.937909365417,397.0
15418.93797186263,241.0
15418.938034359842,85.0
15418.938096857055,211.0
15418.938159354268,235.0
15418.93822185148,47.0
15418.938284348693,54.0
15418.938346845905,32.0
15418.938409343118,72.0
15418.938471840329,155.0
15418.938534337542,94.0
15418.938596834754,-7.0
15418.938659331967,22.0
15418.93872182918,94.0
15418.938784326392,12.0
15418.938846823605,101.0
15418.938909320817,157.0
15418.93897181803,312.0
15418.93903431524,415.0
15418.939096812453,206.0
15418.939159309666,143.0
15418.939221806879,171.0
15418.939284304091,178.0
15418.939346801304,101.0
15418.939409298517,-54.0
15418.93947179573,-107.0
15418.939534292942,-182.0
15418.939596790155,-277.0
15418.939659287367,-441.0
15418.93972178458,-641.0
15418.939784281793,-641.0
15418.939846779003,-620.0
15418.939909276216,-614.0
15418.939971773429,-498.0
15418.940034270641,-509.0
15418.940096767854,-512.0
15418.940159265067,-369.0
15418.94022176228,-230.0
15418.940284259492,-115.0
15418.940346756704,21.0
15418.940409253915,66.0
15418.940471751128,-88.0
15418.94053424834,-61.0
15418.940596745553,158.0
15418.940659242766,208.0
15418.940721739978,206.0
15418.940784237191,322.0
15418.940846734404,344.0
15418.940909231616,31.0
15418.940971728829,-324.0
15418.941034226042,-436.0
15418.941096723254,-313.0
15418.941159220465,-21.0
15418.941221717678,293.0
15418.94128421489,409.0
15418.941346712103,407.0
15418.941409209316,250.0
15418.941471706528,12.0
15418.941534203741,-66.0
15418.941596700954,-90.0
15418.941659198166,-81.0
15418.941721695379,-137.0
15418.94178419259,-179.0
15418.941846689802,-179.0
15418.941909187015,-127.0
15418.941971684228,-113.0
15418.94203418144,-215.0
15418.942096678653,-159.0
15418.942159175866,-160.0
15418.942221673078,-123.0
15418.94228417029,88.0
15418.942346667503,205.0
15418.942409164716,411.0
15418.942471661929,604.0
15418.94253415914,561.0
15418.942596656352,390.0
15418.942659153565,211.0
15418.942721650777,193.0
15418.94278414799,463.0
15418.942846645203,874.0
15418.942909142415,996.0
15418.942971639628,982.0
15418.94303413684,910.0
15418.943096634053,735.0
15418.943159131264,578.0
15418.943221628477,332.0
15418.94328412569,32.0
15418.943346622902,-8.0
15418.943409120115,-79.0
15418.943471617327,-199.0
15418.94353411454,-89.0
15418.943596611753,102.0
15418.943659108965,193.0
15418.943721606178,-85.0
15418.94378410339,-308.0
15418.943846600603,-299.0
15418.943909097814,-375.0
15418.943971595027,-318.0
15418.94403409224,-219.0
15418.944096589452,-32.0
15418.944159086665,209.0
15418.944221583877,161.0
15418.94428408109,226.0
15418.944346578302,441.0
15418.944409075515,506.0
15418.944471572728,561.0
15418.944534069939,524.0
15418.944596567151,398.0
15418.944659064364,399.0
15418.944721561576,282.0
15418.944784058789,59.0
15418.944846556002,13.0
15418.944909053214,-189.0
15418.944971550427,-232.0
15418.94503404764,-11.0
15418.945096544852,201.0
15418.945159042065,304.0
15418.945221539278,170.0
15418.945284036488,89.0
15418.945346533701,140.0
15418.945409030914,-22.0
15418.945471528126,-239.0
15418.945534025339,-435.0
15418.945596522552,-466.0
15418.945659019764,-210.0
15418.945721516977,15.0
15418.94578401419,166.0
15418.945846511402,-40.0
15418.945909008613,-305.0
15418.945971505826,-195.0
15418.946034003038,-202.0
15418.94609650025,-177.0
15418.946158997463,-175.0
15418.946221494676,-130.0
15418.946283991889,199.0
15418.946346489101,220.0
15418.946408986314,80.0
15418.946471483527,-72.0
15418.94653398074,-213.0
15418.946596477952,-286.0
15418.946658975163,-317.0
15418.946721472375,-302.0
15418.946783969588,-289.0
15418.9468464668,-54.0
15418.946908964013,76.0
15418.946971461226,87.0
15418.947033958439,241.0
15418.947096455651,306.0
15418.947158952864,248.0
15418.947221450077,134.0
15418.947283947287,67.0
15418.9473464445,31.0
15418.947408941713,-64.0
15418.947471438925,-196.0
15418.947533936138,-126.0
15418.94759643335,24.0
15418.947658930563,-136.0
15418.947721427776,-255.0
15418.947783924988,-12.0
15418.947846422201,315.0
15418.947908919414,411.0
15418.947971416626,419.0
15418.948033913837,623.0
15418.94809641105,635.0
15418.948158908262,455.0
15418.948221405475,411.0
15418.948283902688,242.0
15418.9483463999,5.0
15418.948408897113,43.0
15418.948471394326,121.0
15418.948533891538,208.0
15418.94859638875,318.0
15418.948658885962,309.0
15418.948721383174,289.0
15418.948783880387,219.0
15418.9488463776,202.0
15418.948908874812,238.0
15418.948971372025,217.0
15418.949033869238,24.0
15418.94909636645,-51.0
15418.949158863663,2.0
15418.949221360876,26.0
15418.949283858088,182.0
15418.9493463553,374.0
15418.949408852512,555.0
15418.949471349724,648.0
15418.949533846937,613.0
15418.94959634415,541.0
15418.949658841362,572.0
15418.949721338575,526.0
15418.949783835787,436.0
15418.949846333,367.0
15418.949908830213,182.0
15418.949971327424,183.0
15418.950033824636,175.0
15418.950096321849,223.0
15418.950158819061,404.0
15418.950221316274,364.0
15418.950283813487,255.0
15418.9503463107,290.0
15418.950408807912,213.0
15418.950471305125,113.0
15418.950533802337,323.0
15418.95059629955,469.0
15418.950658796763,475.0
15418.950721293975,448.0
15418.950783791186,316.0
15418.950846288399,237.0
15418.950908785611,267.0
15418.950971282824,361.0
15418.951033780037,412.0
15418.95109627725,472.0
15418.951158774462,360.0
15418.951221271675,232.0
15418.951283768887,442.0
15418.951346266098,597.0
15418.95140876331,681.0
15418.951471260523,848.0
15418.951533757736,826.0
15418.951596254949,599.0
15418.951658752161,519.0
15418.951721249374,416.0
15418.951783746586,360.0
15418.951846243799,487.0
15418.951908741012,396.0
15418.951971238224,344.0
15418.952033735437,144.0
15418.952096232648,-41.0
15418.95215872986,-37.0
15418.952221227073,-228.0
15418.952283724286,-382.0
15418.952346221498,-212.0
15418.952408718711,-131.0
15418.952471215924,-284.0
15418.952533713136,-262.0
15418.952596210349,-255.0
15418.952658707562,-374.0
15418.952721204772,-310.0
15418.952783701985,-211.0
15418.952846199198,-227.0
15418.95290869641,-317.0
15418.952971193623,-402.0
15418.953033690836,-332.0
15418.953096188048,-123.0
15418.95315868526,-38.0
15418.953221182473,15.0
15418.953283679686,165.0
15418.953346176899,19.0
15418.953408674111,-238.0
15418.953471171322,-229.0
15418.953533668535,-96.0
15418.953596165748,117.0
15418.95365866296,64.0
15418.953721160173,-192.0
15418.953783657385,-250.0
15418.953846154598,-272.0
15418.95390865181,-168.0
15418.953971149023,171.0
15418.954033646236,337.0
15418.954096143447,236.0
15418.95415864066,111.0
15418.954221137872,-117.0
15418.954283635085,-261.0
15418.954346132297,-45.0
15418.95440862951,126.0
15418.954471126723,225.0
15418.954533623935,334.0
15418.954596121148,188.0
15418.95465861836,91.0
15418.954721115573,209.0
15418.954783612786,257.0
15418.954846109997,234.0
15418.95490860721,388.0
15418.954971104422,599.0
15418.955033601635,510.0
15418.955096098847,367.0
15418.95515859606,297.0
15418.955221093272,255.0
15418.955283590485,247.0
15418.955346087698,67.0
15418.95540858491,-292.0
15418.955471082121,-561.0
15418.955533579334,-644.0
15418.955596076546,-613.0
15418.95565857376,-393.0
15418.955721070972,-153.0
15418.955783568184,112.0
15418.955846065397,216.0
15418.95590856261,191.0
15418.955971059822,370.0
15418.956033557035,453.0
15418.956096054248,475.0
15418.95615855146,379.0
15418.956221048671,144.0
15418.956283545884,-60.0
15418.956346043096,-302.0
15418.956408540309,-412.0
15418.956471037522,-308.0
15418.956533534734,-272.0
15418.956596031947,-341.0
15418.95665852916,-274.0
15418.956721026372,-260.0
15418.956783523585,-202.0
15418.956846020796,-148.0
15418.956908518008,-365.0
15418.956971015221,-523.0
15418.957033512434,-445.0
15418.957096009646,-225.0
15418.957158506859,-155.0
15418.957221004071,-26.0
15418.957283501284,141.0
15418.957345998497,135.0
15418.95740849571,202.0
15418.957470992922,330.0
15418.957533490135,385.0
15418.957595987345,446.0
15418.957658484558,422.0
15418.95772098177,313.0
15418.957783478983,343.0
15418.957845976196,313.0
15418.957908473409,125.0
15418.957970970621,230.0
15418.958033467834,351.0
15418.958095965047,285.0
15418.95815846226,437.0
15418.95822095947,437.0
15418.958283456683,330.0
15418.958345953895,429.0
15418.958408451108,427.0
15418.95847094832,325.0
15418.958533445533,148.0
15418.958595942746,-5.0
15418.958658439959,112.0
15418.958720937171,188.0
15418.958783434384,0.0
15418.958845931596,-205.0
15418.958908428809,-170.0
15418.95897092602,-31.0
15418.959033423233,-137.0
15418.959095920445,-266.0
15418.959158417658,-488.0
15418.95922091487,-654.0
15418.959283412083,-621.0
15418.959345909296,-463.0
15418.959408406508,-188.0
15418.959470903721,-48.0
15418.959533400932,85.0
15418.959595898144,247.0
15418.959658395357,285.0
15418.95972089257,232.0
15418.959783389782,195.0
15418.959845886995,151.0
15418.959908384208,-123.0
15418.95997088142,-321.0
15418.960033378633,-386.0
15418.960095875846,-428.0
15418.960158373058,-255.0
15418.96022087027,-31.0
15418.960283367483,110.0
15418.960345864694,105.0
15418.960408361907,63.0
15418.96047085912,-101.0
15418.960533356332,-498.0
15418.960595853545,-535.0
15418.960658350758,-539.0
15418.96072084797,-560.0
15418.960783345183,-260.0
15418.960845842395,-119.0
15418.960908339606,-42.0
15418.960970836819,28.0
15418.961033334032,-38.0
15418.961095831244,98.0
15418.961158328457,157.0
15418.96122082567,77.0
15418.961283322882,67.0
15418.961345820095,11.0
15418.961408317307,-25.0
15418.96147081452,56.0
15418.961533311733,111.0
15418.961595808945,42.0
15418.961658306158,98.0
15418.961720803369,66.0
15418.961783300581,19.0
15418.961845797794,160.0
15418.961908295007,28.0
15418.96197079222,-86.0
15418.962033289432,-50.0
15418.962095786645,-123.0
15418.962158283857,-65.0
15418.96222078107,-29.0
15418.96228327828,-22.0
15418.962345775493,107.0
15418.962408272706,264.0
15418.962470769919,329.0
15418.962533267131,379.0
15418.962595764344,356.0
15418.962658261556,189.0
15418.96272075877,124.0
15418.962783255982,23.0
15418.962845753194,-53.0
15418.962908250407,54.0
15418.96297074762,131.0
15418.96303324483,193.0
15418.963095742043,220.0
15418.963158239256,108.0
15418.963220736468,-33.0
15418.963283233681,-137.0
15418.963345730894,-109.0
15418.963408228106,-7.0
15418.963470725319,19.0
15418.963533222532,-54.0
15418.963595719744,-48.0
15418.963658216955,68.0
15418.963720714168,-52.0
15418.96378321138,-241.0
15418.963845708593,-107.0
15418.963908205806,-69.0
15418.963970703018,-176.0
15418.964033200231,-217.0
15418.964095697444,-260.0
15418.964158194656,-184.0
15418.964220691869,-121.0
15418.964283189081,-131.0
15418.964345686294,-77.0
15418.964408183505,-27.0
15418.964470680718,-149.0
15418.96453317793,-133.0
15418.964595675143,-57.0
15418.964658172355,-220.0
15418.964720669568,-175.0
15418.96478316678,92.0
15418.964845663993,107.0
15418.964908161206,181.0
15418.964970658419,207.0
15418.96503315563,20.0
15418.965095652842,-71.0
15418.965158150055,-163.0
15418.965220647267,-85.0
15418.96528314448,1.0
15418.965345641693,57.0
15418.965408138905,19.0
15418.965470636118,-33.0
15418.96553313333,34.0
15418.965595630543,52.0
15418.965658127756,77.0
15418.965720624969,-107.0
15418.96578312218,-322.0
15418.965845619392,-224.0
15418.965908116605,-8.0
15418.965970613817,280.0
15418.96603311103,414.0
15418.966095608243,446.0
15418.966158105455,390.0
15418.966220602668,11.0
15418.96628309988,-109.0
15418.966345597093,88.0
15418.966408094304,244.0
15418.966470591517,365.0
15418.96653308873,254.0
15418.966595585942,36.0
15418.966658083154,3.0
15418.966720580367,-88.0
15418.96678307758,-187.0
15418.966845574792,23.0
15418.966908072005,100.0
15418.966970569218,-20.0
15418.96703306643,-96.0
15418.967095563643,-219.0
15418.967158060854,-219.0
15418.967220558066,-64.0
15418.967283055279,159.0
15418.967345552492,319.0
15418.967408049704,180.0
15418.967470546917,7.0
15418.96753304413,14.0
15418.967595541342,62.0
15418.967658038555,30.0
15418.967720535768,105.0
15418.967783032978,171.0
15418.967845530191,16.0
15418.967908027404,-95.0
15418.967970524616,-13.0
15418.968033021829,139.0
15418.968095519042,380.0
15418.968158016254,481.0
15418.968220513467,422.0
15418.96828301068,504.0
15418.968345507892,436.0
15418.968408005105,338.0
15418.968470502317,330.0
15418.968532999528,262.0
15418.96859549674,284.0
15418.968657993953,284.0
15418.968720491166,13.0
15418.968782988379,-265.0
15418.968845485591,-281.0
15418.968907982804,-320.0
15418.968970480017,-313.0
15418.96903297723,-187.0
15418.969095474442,-99.0
15418.969157971653,-13.0
15418.969220468865,99.0
15418.969282966078,124.0
15418.96934546329,182.0
15418.969407960503,316.0
15418.969470457716,271.0
15418.969532954929,142.0
15418.969595452141,141.0
15418.969657949354,148.0
15418.969720446566,257.0
15418.96978294378,476.0
15418.969845440992,586.0
15418.969907938203,490.0
15418.969970435415,251.0
15418.970032932628,-5.0
15418.97009542984,-230.0
15418.970157927053,-336.0
15418.970220424266,-185.0
15418.970282921478,-23.0
15418.970345418691,31.0
15418.970407915904,-77.0
15418.970470413115,-281.0
15418.970532910327,-264.0
15418.97059540754,-178.0
15418.970657904752,-136.0
15418.970720401965,-148.0
15418.970782899178,-161.0
15418.97084539639,-213.0
15418.970907893603,-451.0
15418.970970390816,-470.0
15418.971032888028,-249.0
15418.971095385241,-246.0
15418.971157882454,-457.0
15418.971220379666,-441.0
15418.971282876877,-447.0
15418.97134537409,-477.0
15418.971407871302,-196.0
15418.971470368515,-87.0
15418.971532865728,-84.0
15418.97159536294,-37.0
15418.971657860153,-70.0
15418.971720357365,-106.0
15418.971782854578,82.0
15418.971845351789,495.0
15418.971907849002,537.0
15418.971970346214,388.0
15418.972032843427,361.0
15418.97209534064,268.0
15418.972157837852,312.0
15418.972220335065,493.0
15418.972282832277,433.0
15418.97234532949,237.0
15418.972407826703,-7.0
15418.972470323915,-318.0
15418.972532821128,-473.0
15418.97259531834,-328.0
15418.972657815551,-54.0
15418.972720312764,-96.0
15418.972782809977,-185.0
15418.97284530719,-275.0
15418.972907804402,-569.0
15418.972970301615,-433.0
15418.973032798827,-58.0
15418.97309529604,99.0
15418.973157793253,127.0
15418.973220290463,71.0
15418.973282787676,-56.0
15418.973345284889,-213.0
15418.973407782101,-332.0
15418.973470279314,-432.0
15418.973532776527,-520.0
15418.97359527374,-596.0
15418.973657770952,-604.0
15418.973720268164,-482.0
15418.973782765377,-282.0
15418.97384526259,-104.0
15418.973907759802,9.0
15418.973970257015,96.0
15418.974032754226,43.0
15418.974095251438,-179.0
15418.974157748651,-382.0
15418.974220245864,-477.0
15418.974282743076,-424.0
15418.974345240289,-307.0
15418.974407737502,-359.0
15418.974470234714,-396.0
15418.974532731927,-149.0
15418.974595229138,-48.0
15418.97465772635,-237.0
15418.974720223563,-271.0
15418.974782720776,-10.0
15418.974845217988,202.0
15418.974907715201,230.0
15418.974970212414,147.0
15418.975032709626,-143.0
15418.975095206839,-352.0
15418.975157704052,-382.0
15418.975220201264,-236.0
15418.975282698477,40.0
15418.975345195688,56.0
15418.9754076929,-148.0
15418.975470190113,-155.0
15418.975532687326,-47.0
15418.975595184538,-134.0
15418.97565768175,-157.0
15418.975720178963,-98.0
15418.975782676176,-58.0
15418.975845173389,103.0
15418.975907670601,164.0
15418.975970167812,119.0
15418.976032665025,142.0
15418.976095162237,187.0
15418.97615765945,231.0
15418.976220156663,391.0
15418.976282653875,505.0
15418.976345151088,569.0
15418.9764076483,500.0
15418.976470145513,339.0
15418.976532642726,288.0
15418.976595139939,381.0
15418.976657637151,344.0
15418.976720134362,225.0
15418.976782631575,219.0
15418.976845128787,127.0
15418.976907626,35.0
15418.976970123213,153.0
15418.977032620425,247.0
15418.977095117638,127.0
15418.97715761485,5.0
15418.977220112063,59.0
15418.977282609276,141.0
15418.977345106487,26.0
15418.9774076037,-124.0
15418.977470100912,4.0
15418.977532598125,181.0
15418.977595095337,169.0
15418.97765759255,119.0
15418.977720089762,0.0
15418.977782586975,-181.0
15418.977845084188,-275.0
15418.9779075814,-406.0
15418.977970078613,-471.0
15418.978032575826,-309.0
15418.978095073036,-147.0
15418.97815757025,61.0
15418.978220067462,284.0
15418.978282564674,440.0
15418.978345061887,475.0
15418.9784075591,495.0
15418.978470056312,599.0
15418.978532553525,640.0
15418.978595050738,537.0
15418.97865754795,244.0
15418.978720045161,77.0
15418.978782542374,56.0
15418.978845039586,-71.0
15418.978907536799,-34.0
15418.978970034012,156.0
15418.979032531224,135.0
15418.979095028437,-27.0
15418.97915752565,-188.0
15418.979220022862,-170.0
15418.979282520075,-95.0
15418.979345017287,-38.0
15418.9794075145,-125.0
15418.97947001171,-272.0
15418.979532508924,-115.0
15418.979595006136,-72.0
15418.979657503349,-9.0
15418.979720000561,320.0
15418.979782497774,417.0
15418.979844994987,375.0
15418.9799074922,374.0
15418.979969989412,340.0
15418.980032486625,306.0
15418.980094983835,299.0
15418.980157481048,326.0
15418.98021997826,427.0
15418.980282475473,440.0
15418.980344972686,191.0
15418.980407469899,-143.0
15418.980469967111,-142.0
15418.980532464324,12.0
15418.980594961537,5.0
15418.98065745875,-25.0
15418.980719955962,3.0
15418.980782453174,60.0
15418.980844950385,27.0
15418.980907447598,-63.0
15418.98096994481,-85.0
15418.981032442023,-201.0
15418.981094939236,-284.0
15418.981157436448,-293.0
15418.981219933661,-145.0
15418.981282430874,-40.0
15418.981344928086,-233.0
15418.981407425297,-375.0
15418.98146992251,-275.0
15418.981532419722,24.0
15418.981594916935,5.0
15418.981657414148,-46.0
15418.98171991136,231.0
15418.981782408573,247.0
15418.981844905786,236.0
15418.981907402998,560.0
15418.981969900211,937.0
15418.982032397424,966.0
15418.982094894636,576.0
15418.982157391849,219.0
15418.98221988906,30.0
15418.982282386272,-296.0
15418.982344883485,-400.0
15418.982407380698,-77.0
15418.98246987791,167.0
15418.982532375123,133.0
15418.982594872336,92.0
15418.982657369548,141.0
15418.98271986676,230.0
15418.982782363972,292.0
15418.982844861184,188.0
15418.982907358397,74.0
15418.98296985561,-48.0
15418.983032352822,-315.0
15418.983094850035,-394.0
15418.983157347247,-235.0
15418.98321984446,-100.0
15418.983282341673,5.0
15418.983344838885,37.0
15418.983407336098,52.0
15418.98346983331,168.0
15418.983532330523,52.0
15418.983594827734,-80.0
15418.983657324947,136.0
15418.98371982216,182.0
15418.983782319372,143.0
15418.983844816585,138.0
15418.983907313797,35.0
15418.98396981101,263.0
15418.984032308223,449.0
15418.984094805435,403.0
15418.984157302646,411.0
15418.984219799859,311.0
15418.984282297071,171.0
15418.984344794284,-22.0
15418.984407291497,-133.0
15418.98446978871,-156.0
15418.984532285922,-229.0
15418.984594783135,-164.0
15418.984657280347,-49.0
15418.98471977756,-86.0
15418.984782274772,-71.0
15418.984844771985,16.0
15418.984907269198,38.0
15418.984969766409,156.0
15418.985032263621,313.0
15418.985094760834,153.0
15418.985157258046,-142.0
15418.98521975526,-280.0
15418.985282252472,-243.0
15418.985344749684,186.0
15418.985407246897,606.0
15418.98546974411,568.0
15418.98553224132,207.0
15418.985594738533,-94.0
15418.985657235746,-154.0
15418.985719732958,-98.0
15418.985782230171,21.0
15418.985844727384,204.0
15418.985907224596,319.0
15418.985969721809,326.0
15418.986032219022,169.0
15418.986094716234,62.0
15418.986157213447,200.0
15418.98621971066,263.0
15418.98628220787,260.0
15418.986344705083,166.0
15418.986407202296,-58.0
15418.986469699508,-54.0
15418.98653219672,-17.0
15418.986594693934,38.0
15418.986657191146,295.0
15418.986719688359,481.0
15418.986782185571,439.0
15418.986844682784,263.0
15418.986907179995,242.0
15418.986969677208,373.0
15418.98703217442,536.0
15418.987094671633,726.0
15418.987157168845,661.0
15418.987219666058,328.0
15418.98728216327,21.0
15418.987344660483,-149.0
15418.987407157696,-151.0
15418.987469654909,-114.0
15418.987532152121,-85.0
15418.987594649334,-9.0
15418.987657146545,27.0
15418.987719643757,-43.0
15418.98778214097,-75.0
15418.987844638183,-98.0
15418.987907135395,-132.0
15418.987969632608,-87.0
15418.98803212982,-50.0
15418.988094627033,-63.0
15418.988157124246,9.0
15418.988219621458,137.0
15418.98828211867,231.0
15418.988344615882,365.0
15418.988407113095,336.0
15418.988469610307,168.0
15418.98853210752,-13.0
15418.988594604732,-335.0
15418.988657101945,-262.0
15418.988719599158,67.0
15418.98878209637,236.0
15418.988844593583,407.0
15418.988907090796,394.0
15418.988969588008,375.0
15418.98903208522,437.0
15418.989094582432,504.0
15418.989157079644,501.0
15418.989219576857,374.0
15418.98928207407,284.0
15418.989344571282,209.0
15418.989407068495,281.0
15418.989469565708,453.0
15418.98953206292,497.0
15418.989594560133,545.0
15418.989657057344,559.0
15418.989719554556,284.0
15418.989782051769,-15.0
15418.989844548982,-65.0
15418.989907046194,-15.0
15418.989969543407,54.0
15418.99003204062,121.0
15418.990094537832,131.0
15418.990157035045,-131.0
15418.990219532257,-266.0
15418.99028202947,-132.0
15418.990344526683,-6.0
15418.990407023894,154.0
15418.990469521106,235.0
15418.990532018319,187.0
15418.990594515531,220.0
15418.990657012744,317.0
15418.990719509957,286.0
15418.99078200717,225.0
15418.990844504382,251.0
15418.990907001595,276.0
15418.990969498807,168.0
15418.991031996018,24.0
15418.99109449323,-31.0
15418.991156990443,-3.0
15418.991219487656,238.0
15418.991281984869,439.0
15418.991344482081,424.0
15418.991406979294,210.0
15418.991469476507,-48.0
15418.99153197372,-111.0
15418.991594470932,-55.0
15418.991656968145,73.0
15418.991719465357,16.0
15418.991781962568,-122.0
15418.99184445978,-20.0
15418.991906956993,16.0
15418.991969454206,-32.0
15418.992031951419,-50.0
15418.992094448631,82.0
15418.992156945844,228.0
15418.992219443056,197.0
15418.99228194027,288.0
15418.992344437482,239.0
15418.992406934693,51.0
15418.992469431905,58.0
15418.992531929118,201.0
15418.99259442633,450.0
15418.992656923543,732.0
15418.992719420756,754.0
15418.992781917968,522.0
15418.992844415181,421.0
15418.992906912394,308.0
15418.992969409606,324.0
15418.993031906819,416.0
15418.993094404032,509.0
15418.993156901242,582.0
15418.993219398455,392.0
15418.993281895668,193.0
15418.99334439288,99.0
15418.993406890093,48.0
15418.993469387306,55.0
15418.993531884518,7.0
15418.99359438173,-156.0
15418.993656878944,-232.0
15418.993719376154,-222.0
15418.993781873367,-137.0
15418.99384437058,178.0
15418.993906867792,393.0
15418.993969365005,399.0
15418.994031862218,427.0
15418.99409435943,423.0
15418.994156856643,364.0
15418.994219353855,401.0
15418.994281851068,614.0
15418.99434434828,764.0
15418.994406845493,784.0
15418.994469342706,741.0
15418.994531839917,779.0
15418.99459433713,805.0
15418.994656834342,682.0
15418.994719331555,452.0
15418.994781828767,387.0
15418.99484432598,476.0
15418.994906823193,183.0
15418.994969320405,-31.0
15418.995031817618,-142.0
15418.995094314829,-416.0
15418.995156812041,-532.0
15418.995219309254,-582.0
15418.995281806467,-420.0
15418.99534430368,-335.0
15418.995406800892,-497.0
15418.995469298105,-485.0
15418.995531795317,-182.0
15418.99559429253,207.0
15418.995656789742,307.0
15418.995719286955,146.0
15418.995781784168,50.0
15418.99584428138,12.0
15418.995906778591,80.0
15418.995969275804,279.0
15418.996031773017,320.0
15418.99609427023,330.0
15418.996156767442,333.0
15418.996219264654,340.0
15418.996281761867,335.0
15418.99634425908,91.0
15418.996406756292,-292.0
15418.996469253503,-484.0
15418.996531750716,-524.0
15418.996594247928,-520.0
15418.996656745141,-554.0
15418.996719242354,-459.0
15418.996781739566,-175.0
15418.996844236779,-259.0
15418.996906733992,-533.0
15418.996969231204,-594.0
15418.997031728417,-637.0
15418.99709422563,-627.0
15418.997156722842,-398.0
15418.997219220053,-34.0
15418.997281717266,277.0
15418.997344214478,262.0
15418.997406711691,26.0
15418.997469208904,27.0
15418.997531706116,71.0
15418.997594203329,69.0
15418.997656700541,101.0
15418.997719197754,95.0
15418.997781694967,109.0
15418.997844192178,57.0
15418.99790668939,-7.0
15418.997969186603,20.0
15418.998031683815,72.0
15418.998094181028,33.0
15418.99815667824,-17.0
15418.998219175453,-59.0
15418.998281672666,-153.0
15418.998344169879,-133.0
15418.998406667091,-98.0
15418.998469164304,-106.0
15418.998531661517,-116.0
15418.998594158727,-315.0
15418.99865665594,-421.0
15418.998719153153,-219.0
15418.998781650365,7.0
15418.998844147578,68.0
15418.99890664479,-156.0
15418.998969142003,-331.0
15418.999031639216,-387.0
15418.999094136429,-536.0
15418.999156633641,-675.0
15418.999219130852,-650.0
15418.999281628065,-513.0
15418.999344125277,-371.0
15418.99940662249,-133.0
15418.999469119703,-139.0
15418.999531616915,-309.0
15418.999594114128,-87.0
15418.99965661134,163.0
15418.999719108553,223.0
15418.999781605766,320.0
15418.999844102978,112.0
15418.999906600191,-112.0
15418.999969097402,26.0
15419.000031594614,-35.0
15419.000094091827,-210.0
15419.00015658904,-105.0
15419.000219086252,-32.0
15419.000281583465,-101.0
15419.000344080678,-132.0
15419.00040657789,-290.0
15419.000469075103,-272.0
15419.000531572316,-125.0
15419.000594069526,-221.0
15419.000656566739,-184.0
15419.000719063952,-37.0
15419.000781561164,214.0
15419.000844058377,265.0
15419.00090655559,-27.0
15419.000969052802,-148.0
15419.001031550015,-127.0
15419.001094047228,-85.0
15419.00115654444,16.0
15419.001219041653,214.0
15419.001281538865,371.0
15419.001344036076,464.0
15419.001406533289,395.0
15419.001469030502,309.0
15419.001531527714,335.0
15419.001594024927,191.0
15419.00165652214,182.0
15419.001719019352,278.0
15419.001781516565,243.0
15419.001844013777,229.0
15419.00190651099,81.0
15419.0019690082,-119.0
15419.002031505413,-35.0
15419.002094002626,3.0
15419.002156499839,-60.0
15419.002218997051,-78.0
15419.002281494264,-237.0
15419.002343991477,-297.0
15419.00240648869,-303.0
15419.002468985902,-322.0
15419.002531483115,-304.0
15419.002593980327,-363.0
15419.00265647754,-285.0
15419.00271897475,-26.0
15419.002781471963,55.0
15419.002843969176,-94.0
15419.002906466389,-44.0
15419.002968963601,46.0
15419.003031460814,-85.0
15419.003093958027,-76.0
15419.00315645524,155.0
15419.003218952452,200.0
15419.003281449664,66.0
15419.003343946875,-56.0
15419.003406444088,-235.0
15419.0034689413,-263.0
15419.003531438513,-250.0
15419.003593935726,-447.0
15419.003656432938,-420.0
15419.003718930151,-191.0
15419.003781427364,-65.0
15419.003843924576,-30.0
15419.003906421789,-11.0
15419.003968919002,37.0
15419.004031416214,-33.0
15419.004093913425,-249.0
15419.004156410638,-400.0
15419.00421890785,-325.0
15419.004281405063,-100.0
15419.004343902276,17.0
15419.004406399488,-9.0
15419.004468896701,-262.0
15419.004531393914,-752.0
15419.004593891126,-1169.0
15419.004656388337,-1180.0
15419.00471888555,-810.0
15419.004781382762,-472.0
15419.004843879975,-180.0
15419.004906377188,-112.0
15419.0049688744,-259.0
15419.005031371613,-315.0
15419.005093868825,-175.0
15419.005156366038,116.0
15419.00521886325,279.0
15419.005281360463,197.0
15419.005343857676,93.0
15419.005406354889,117.0
15419.0054688521,86.0
15419.005531349312,-72.0
15419.005593846525,-202.0
15419.005656343737,-504.0
15419.00571884095,-882.0
15419.005781338163,-1016.0
15419.005843835375,-767.0
15419.005906332588,-466.0
15419.0059688298,-317.0
15419.006031327011,-190.0
15419.006093824224,-136.0
15419.006156321437,-196.0
15419.00621881865,-335.0
15419.006281315862,-244.0
15419.006343813075,98.0
15419.006406310287,280.0
15419.0064688075,214.0
15419.006531304713,68.0
15419.006593801925,10.0
15419.006656299138,-71.0
15419.00671879635,-50.0
15419.006781293563,-39.0
15419.006843790774,-309.0
15419.006906287987,-559.0
15419.0069687852,-363.0
15419.007031282412,-25.0
15419.007093779624,150.0
15419.007156276837,126.0
15419.00721877405,-82.0
15419.007281271262,-286.0
15419.007343768475,-546.0
15419.007406265686,-664.0
15419.007468762898,-499.0
15419.007531260111,-389.0
15419.007593757324,-453.0
15419.007656254536,-656.0
15419.007718751749,-691.0
15419.007781248962,-483.0
15419.007843746174,-492.0
15419.007906243387,-453.0
15419.0079687406,-449.0
15419.008031237812,-527.0
15419.008093735025,-353.0
15419.008156232236,-235.0
15419.008218729448,-190.0
15419.008281226661,-226.0
15419.008343723874,-297.0
15419.008406221086,-207.0
15419.008468718299,-101.0
15419.008531215512,-103.0
15419.008593712724,-172.0
15419.008656209937,-177.0
15419.00871870715,-90.0
15419.00878120436,-41.0
15419.008843701573,20.0
15419.008906198786,-72.0
15419.008968695998,-118.0
15419.00903119321,46.0
15419.009093690423,5.0
15419.009156187636,11.0
15419.009218684849,25.0
15419.009281182061,-8.0
15419.009343679274,-16.0
15419.009406176487,-25.0
15419.0094686737,88.0
15419.00953117091,-64.0
15419.009593668123,-197.0
15419.009656165335,-163.0
15419.009718662548,-265.0
15419.00978115976,-386.0
15419.009843656973,-359.0
15419.009906154186,-172.0
15419.009968651399,43.0
15419.010031148611,112.0
15419.010093645824,64.0
15419.010156143035,18.0
15419.010218640247,41.0
15419.01028113746,270.0
15419.010343634673,328.0
15419.010406131885,200.0
15419.010468629098,60.0
15419.01053112631,-196.0
15419.010593623523,-365.0
15419.010656120736,-226.0
15419.010718617948,-84.0
15419.010781115161,-102.0
15419.010843612374,-56.0
15419.010906109585,-249.0
15419.010968606797,-341.0
15419.01103110401,-61.0
15419.011093601222,132.0
15419.011156098435,275.0
15419.011218595648,227.0
15419.01128109286,9.0
15419.011343590073,-64.0
15419.011406087286,94.0
15419.011468584498,239.0
15419.01153108171,279.0
15419.011593578922,456.0
15419.011656076134,537.0
15419.011718573347,377.0
15419.01178107056,149.0
15419.011843567772,75.0
15419.011906064985,165.0
15419.011968562198,321.0
15419.01203105941,350.0
15419.012093556623,271.0
15419.012156053835,293.0
15419.012218551048,329.0
15419.012281048259,500.0
15419.012343545472,737.0
15419.012406042684,864.0
15419.012468539897,916.0
15419.01253103711,757.0
15419.012593534322,406.0
15419.012656031535,286.0
15419.012718528747,384.0
15419.01278102596,455.0
15419.012843523173,655.0
15419.012906020384,624.0
15419.012968517596,361.0
15419.013031014809,136.0
15419.013093512021,27.0
15419.013156009234,234.0
15419.013218506447,373.0
15419.01328100366,195.0
15419.013343500872,224.0
15419.013405998085,267.0
15419.013468495297,165.0
15419.01353099251,177.0
15419.013593489723,278.0
15419.013655986933,398.0
15419.013718484146,258.0
15419.013780981359,106.0
15419.013843478571,46.0
15419.013905975784,48.0
15419.013968472997,260.0
15419.01403097021,428.0
15419.014093467422,532.0
15419.014155964634,245.0
15419.014218461847,-208.0
15419.014280959058,-456.0
15419.01434345627,-434.0
15419.014405953483,-110.0
15419.014468450696,164.0
15419.014530947908,476.0
15419.014593445121,561.0
15419.014655942334,290.0
15419.014718439546,-58.0
15419.014780936759,-267.0
15419.014843433972,-129.0
15419.014905931184,118.0
15419.014968428397,191.0
15419.015030925608,111.0
15419.01509342282,53.0
15419.015155920033,128.0
15419.015218417246,224.0
15419.015280914458,182.0
15419.015343411671,106.0
15419.015405908884,55.0
15419.015468406096,-30.0
15419.015530903309,-78.0
15419.01559340052,-34.0
15419.015655897732,74.0
15419.015718394945,211.0
15419.015780892158,292.0
15419.01584338937,277.0
15419.015905886583,46.0
15419.015968383796,-147.0
15419.016030881008,-119.0
15419.01609337822,14.0
15419.016155875433,274.0
15419.016218372646,561.0
15419.016280869859,697.0
15419.016343367071,463.0
15419.016405864282,55.0
15419.016468361495,-162.0
15419.016530858707,-6.0
15419.01659335592,389.0
15419.016655853133,470.0
15419.016718350345,206.0
15419.016780847558,-61.0
15419.01684334477,-180.0
15419.016905841983,-188.0
15419.016968339194,-32.0
15419.017030836407,124.0
15419.01709333362,64.0
15419.017155830832,-230.0
15419.017218328045,-547.0
15419.017280825257,-482.0
15419.01734332247,-151.0
15419.017405819683,-33.0
15419.017468316895,70.0
15419.017530814108,54.0
15419.01759331132,-243.0
15419.017655808533,-377.0
15419.017718305746,-384.0
15419.017780802957,-205.0
15419.01784330017,-17.0
15419.017905797382,-78.0
15419.017968294595,-81.0
15419.018030791807,-159.0
15419.01809328902,-344.0
15419.018155786232,-482.0
15419.018218283445,-579.0
15419.018280780658,-624.0
15419.018343277869,-496.0
15419.018405775081,-491.0
15419.018468272294,-585.0
15419.018530769506,-402.0
15419.01859326672,-235.0
15419.018655763932,-67.0
15419.018718261144,-30.0
15419.018780758357,-249.0
15419.01884325557,-402.0
15419.018905752782,-677.0
15419.018968249995,-779.0
15419.019030747208,-529.0
15419.01909324442,-239.0
15419.019155741631,-151.0
15419.019218238844,-220.0
15419.019280736056,-276.0
15419.019343233269,-443.0
15419.019405730482,-518.0
15419.019468227694,-603.0
15419.019530724907,-829.0
15419.01959322212,-882.0
15419.019655719332,-848.0
15419.019718216543,-752.0
15419.019780713756,-532.0
15419.019843210968,-422.0
15419.01990570818,-372.0
15419.019968205394,-266.0
15419.020030702606,-350.0
15419.020093199819,-478.0
15419.020155697031,-306.0
15419.020218194244,-175.0
15419.020280691457,-228.0
15419.02034318867,-238.0
15419.020405685882,-167.0
15419.020468183093,-90.0
15419.020530680305,-92.0
15419.020593177518,-110.0
15419.02065567473,-152.0
15419.020718171943,-210.0
15419.020780669156,-181.0
15419.020843166369,-155.0
15419.020905663581,-229.0
15419.020968160794,-268.0
15419.021030658007,-310.0
15419.021093155217,-408.0
15419.02115565243,-461.0
15419.021218149643,-451.0
15419.021280646855,-400.0
15419.021343144068,-381.0
15419.02140564128,-425.0
15419.021468138493,-397.0
15419.021530635706,-206.0
15419.021593132918,-37.0
15419.021655630131,-55.0
15419.021718127344,47.0
15419.021780624556,272.0
15419.021843121767,210.0
15419.02190561898,-22.0
15419.021968116193,-171.0
15419.022030613405,-259.0
15419.022093110618,-390.0
15419.02215560783,-368.0
15419.022218105043,-291.0
15419.022280602256,-212.0
15419.022343099468,-124.0
15419.022405596681,-149.0
15419.022468093892,-104.0
15419.022530591104,30.0
15419.022593088317,167.0
15419.02265558553,280.0
15419.022718082742,267.0
15419.022780579955,225.0
15419.022843077168,452.0
15419.02290557438,444.0
15419.022968071593,271.0
15419.023030568806,283.0
15419.023093066018,44.0
15419.02315556323,-209.0
15419.023218060442,-285.0
15419.023280557654,-329.0
15419.023343054867,-197.0
15419.02340555208,-127.0
15419.023468049292,-45.0
15419.023530546505,144.0
15419.023593043717,299.0
15419.02365554093,524.0
15419.023718038143,581.0
15419.023780535355,600.0
15419.023843032566,680.0
15419.023905529779,354.0
15419.023968026991,75.0
15419.024030524204,-2.0
15419.024093021417,-218.0
15419.02415551863,-312.0
15419.024218015842,-218.0
15419.024280513055,-34.0
15419.024343010267,50.0
15419.02440550748,214.0
15419.024468004693,489.0
15419.024530501905,515.0
15419.024592999116,593.0
15419.024655496329,688.0
15419.024717993541,680.0
15419.024780490754,705.0
15419.024842987967,753.0
15419.02490548518,859.0
15419.024967982392,831.0
15419.025030479605,731.0
15419.025092976817,391.0
15419.02515547403,-44.0
15419.02521797124,-197.0
15419.025280468453,-348.0
15419.025342965666,-369.0
15419.025405462879,-182.0
15419.025467960091,-86.0
15419.025530457304,-214.0
15419.025592954516,-278.0
15419.02565545173,-139.0
15419.025717948942,-111.0
15419.025780446154,-19.0
15419.025842943367,126.0
15419.02590544058,-11.0
15419.02596793779,-129.0
15419.026030435003,208.0
15419.026092932216,555.0
15419.026155429428,550.0
15419.026217926641,554.0
15419.026280423854,619.0
15419.026342921066,540.0
15419.026405418279,386.0
15419.026467915492,348.0
15419.026530412702,305.0
15419.026592909915,374.0
15419.026655407128,476.0
15419.02671790434,441.0
15419.026780401553,405.0
15419.026842898766,354.0
15419.026905395978,294.0
15419.02696789319,291.0
15419.027030390404,318.0
15419.027092887616,245.0
15419.027155384829,108.0
15419.027217882041,46.0
15419.027280379254,72.0
15419.027342876465,67.0
15419.027405373678,5.0
15419.02746787089,27.0
15419.027530368103,-79.0
15419.027592865315,-289.0
15419.027655362528,-312.0
15419.02771785974,-206.0
15419.027780356953,-85.0
15419.027842854166,-82.0
15419.027905351377,-196.0
15419.02796784859,-227.0
15419.028030345802,-126.0
15419.028092843015,102.0
15419.028155340227,294.0
15419.02821783744,456.0
15419.028280334653,326.0
15419.028342831865,-47.0
15419.028405329078,-37.0
15419.02846782629,-48.0
15419.028530323503,-165.0
15419.028592820716,-264.0
15419.028655317928,-366.0
15419.02871781514,-434.0
15419.028780312352,-467.0
15419.028842809565,-272.0
15419.028905306777,-134.0
15419.02896780399,10.0
15419.029030301203,137.0
15419.029092798415,89.0
15419.029155295628,20.0
15419.02921779284,-66.0
15419.029280290051,58.0
15419.029342787264,240.0
15419.029405284477,284.0
15419.02946778169,399.0
15419.029530278902,414.0
15419.029592776114,373.0
15419.029655273327,191.0
15419.02971777054,13.0
15419.029780267752,-11.0
15419.029842764965,-78.0
15419.029905262178,-107.0
15419.02996775939,50.0
15419.030030256603,251.0
15419.030092753814,252.0
15419.030155251026,210.0
15419.030217748239,202.0
15419.030280245452,218.0
15419.030342742664,436.0
15419.030405239877,422.0
15419.03046773709,249.0
15419.030530234302,360.0
15419.030592731515,363.0
15419.030655228726,-13.0
15419.030717725938,-227.0
15419.030780223151,-288.0
15419.030842720364,-281.0
15419.030905217576,88.0
15419.030967714789,631.0
15419.031030212001,894.0
15419.031092709214,777.0
15419.031155206427,603.0
15419.03121770364,574.0
15419.031280200852,779.0
15419.031342698065,869.0
15419.031405195276,792.0
15419.031467692488,652.0
15419.0315301897,422.0
15419.031592686913,518.0
15419.031655184126,700.0
15419.031717681339,484.0
15419.031780178551,186.0
15419.031842675764,51.0
15419.031905172977,23.0
15419.03196767019,45.0
15419.0320301674,110.0
15419.032092664613,244.0
15419.032155161825,335.0
15419.032217659038,526.0
15419.03228015625,635.0
15419.032342653463,363.0
15419.032405150676,156.0
15419.032467647889,153.0
15419.032530145101,153.0
15419.032592642314,140.0
15419.032655139526,-23.0
15419.03271763674,-411.0
15419.03278013395,-527.0
15419.032842631163,-393.0
15419.032905128375,-501.0
15419.032967625588,-528.0
15419.0330301228,-393.0
15419.033092620013,-287.0
15419.033155117226,13.0
15419.033217614438,319.0
15419.033280111651,402.0
15419.033342608864,596.0
15419.033405106074,871.0
15419.033467603287,917.0
15419.0335301005,743.0
15419.033592597712,529.0
15419.033655094925,268.0
15419.033717592138,102.0
15419.03378008935,215.0
15419.033842586563,420.0
15419.033905083776,533.0
15419.033967580988,402.0
15419.0340300782,136.0
15419.034092575414,-49.0
15419.034155072624,-280.0
15419.034217569837,-260.0
15419.03428006705,-117.0
15419.034342564262,21.0
15419.034405061475,193.0
15419.034467558688,317.0
15419.0345300559,427.0
15419.034592553113,576.0
15419.034655050325,652.0
15419.034717547538,462.0
15419.034780044749,303.0
15419.034842541962,206.0
15419.034905039174,-1.0
15419.034967536387,150.0
15419.0350300336,430.0
15419.035092530812,590.0
15419.035155028025,759.0
15419.035217525237,616.0
15419.03528002245,345.0
15419.035342519663,161.0
15419.035405016875,185.0
15419.035467514088,264.0
15419.035530011299,277.0
15419.035592508511,281.0
15419.035655005724,156.0
15419.035717502937,-57.0
15419.03578000015,-149.0
15419.035842497362,49.0
15419.035904994575,113.0
15419.035967491787,35.0
15419.036029989,148.0
15419.036092486213,58.0
15419.036154983423,-221.0
15419.036217480636,-116.0
15419.036279977849,152.0
15419.036342475061,282.0
15419.036404972274,334.0
15419.036467469487,182.0
15419.0365299667,-10.0
15419.036592463912,-63.0
15419.036654961124,-76.0
15419.036717458337,5.0
15419.03677995555,-5.0
15419.036842452762,-118.0
15419.036904949973,-210.0
15419.036967447186,-410.0
15419.037029944398,-633.0
15419.037092441611,-512.0
15419.037154938824,-219.0
15419.037217436036,-273.0
15419.037279933249,-335.0
15419.037342430462,-250.0
15419.037404927674,-138.0
15419.037467424885,106.0
15419.037529922098,187.0
15419.03759241931,247.0
15419.037654916523,299.0
15419.037717413736,63.0
15419.037779910948,-55.0
15419.037842408161,37.0
15419.037904905374,144.0
15419.037967402586,327.0
15419.038029899799,309.0
15419.038092397011,90.0
15419.038154894224,26.0
15419.038217391437,69.0
15419.038279888648,104.0
15419.03834238586,182.0
15419.038404883073,238.0
15419.038467380286,262.0
15419.038529877498,142.0
15419.03859237471,-80.0
15419.038654871923,-138.0
15419.038717369136,-91.0
15419.038779866349,69.0
15419.03884236356,256.0
15419.038904860772,343.0
15419.038967357985,455.0
15419.039029855197,641.0
15419.03909235241,831.0
15419.039154849623,896.0
15419.039217346835,741.0
15419.039279844048,477.0
15419.03934234126,311.0
15419.039404838473,278.0
15419.039467335686,163.0
15419.039529832899,167.0
15419.039592330111,341.0
15419.039654827322,310.0
15419.039717324535,229.0
15419.039779821747,61.0
15419.03984231896,-95.0
15419.039904816173,-245.0
15419.039967313385,-471.0
15419.040029810598,-467.0
15419.04009230781,-175.0
15419.040154805023,115.0
15419.040217302234,238.0
15419.040279799447,118.0
15419.04034229666,-4.0
15419.040404793872,145.0
15419.040467291084,214.0
15419.040529788297,266.0
15419.04059228551,324.0
15419.040654782722,4.0
15419.040717279935,-398.0
15419.040779777148,-548.0
15419.04084227436,-452.0
15419.040904771573,-303.0
15419.040967268786,-235.0
15419.041029765996,-277.0
15419.041092263209,-426.0
15419.041154760422,-501.0
15419.041217257634,-515.0
15419.041279754847,-378.0
15419.04134225206,15.0
15419.041404749272,194.0
15419.041467246485,269.0
15419.041529743698,481.0
15419.041592240908,400.0
15419.041654738121,256.0
15419.041717235334,233.0
15419.041779732546,181.0
15419.041842229759,199.0
15419.041904726972,65.0
15419.041967224184,-3.0
15419.042029721397,-11.0
15419.04209221861,-95.0
15419.042154715822,5.0
15419.042217213035,210.0
15419.042279710247,317.0
15419.042342207458,201.0
15419.04240470467,98.0
15419.042467201883,199.0
15419.042529699096,396.0
15419.042592196309,450.0
15419.042654693521,159.0
15419.042717190734,-187.0
15419.042779687947,-308.0
15419.04284218516,-211.0
15419.042904682372,-88.0
15419.042967179583,-38.0
15419.043029676795,-6.0
15419.043092174008,-1.0
15419.04315467122,108.0
15419.043217168433,342.0
15419.043279665646,476.0
15419.043342162859,553.0
15419.043404660071,476.0
15419.043467157284,299.0
15419.043529654497,246.0
15419.04359215171,72.0
15419.043654648922,14.0
15419.043717146133,163.0
15419.043779643345,160.0
15419.043842140558,84.0
15419.04390463777,-10.0
15419.043967134983,-12.0
15419.044029632196,-43.0
15419.044092129408,-51.0
15419.044154626621,-62.0
15419.044217123834,-174.0
15419.044279621046,-220.0
15419.044342118257,-341.0
15419.04440461547,-356.0
15419.044467112682,-416.0
15419.044529609895,-432.0
15419.044592107108,-101.0
15419.04465460432,-18.0
15419.044717101533,-84.0
15419.044779598746,59.0
15419.044842095958,51.0
15419.044904593171,-143.0
15419.044967090384,-253.0
15419.045029587596,-310.0
15419.045092084807,-266.0
15419.04515458202,-185.0
15419.045217079232,55.0
15419.045279576445,210.0
15419.045342073658,181.0
15419.04540457087,179.0
15419.045467068083,114.0
15419.045529565296,192.0
15419.045592062508,285.0
15419.04565455972,255.0
15419.045717056932,218.0
15419.045779554144,204.0
15419.045842051357,221.0
15419.04590454857,245.0
15419.045967045782,341.0
15419.046029542995,277.0
15419.046092040207,121.0
15419.04615453742,53.0
15419.046217034633,10.0
15419.046279531845,38.0
15419.046342029058,-30.0
15419.04640452627,-162.0
15419.046467023481,-278.0
15419.046529520694,-405.0
15419.046592017907,-448.0
15419.04665451512,-413.0
15419.046717012332,-393.0
15419.046779509545,-198.0
15419.046842006757,-211.0
15419.04690450397,-314.0
15419.046967001183,-32.0
15419.047029498395,123.0
15419.047091995606,237.0
15419.047154492819,260.0
15419.047216990031,135.0
15419.047279487244,46.0
15419.047341984457,43.0
15419.04740448167,99.0
15419.047466978882,141.0
15419.047529476094,250.0
15419.047591973307,353.0
15419.04765447052,425.0
15419.047716967732,308.0
15419.047779464945,-75.0
15419.047841962156,-368.0
15419.047904459369,-579.0
15419.047966956581,-559.0
15419.048029453794,-405.0
15419.048091951006,-370.0
15419.048154448219,-257.0
15419.048216945432,-314.0
15419.048279442644,-535.0
15419.048341939857,-607.0
15419.04840443707,-661.0
15419.04846693428,-710.0
15419.048529431493,-841.0
15419.048591928706,-996.0
15419.048654425918,-778.0
15419.048716923131,-506.0
15419.048779420344,-417.0
15419.048841917556,-370.0
15419.048904414769,-439.0
15419.048966911982,-452.0
15419.049029409194,-374.0
15419.049091906407,-267.0
15419.04915440362,-92.0
15419.04921690083,-66.0
15419.049279398043,-159.0
15419.049341895256,-219.0
15419.049404392468,-258.0
15419.04946688968,-274.0
15419.049529386893,-294.0
15419.049591884106,-256.0
15419.049654381319,-192.0
15419.049716878531,-219.0
15419.049779375742,-304.0
15419.049841872955,-339.0
15419.049904370167,-351.0
15419.04996686738,-428.0
15419.050029364593,-467.0
15419.050091861805,-422.0
15419.050154359018,-290.0
15419.05021685623,-54.0
15419.050279353443,249.0
15419.050341850656,474.0
15419.050404347869,505.0
15419.050466845081,377.0
15419.050529342294,92.0
15419.050591839505,8.0
15419.050654336717,28.0
15419.05071683393,-136.0
15419.050779331143,-119.0
15419.050841828355,-60.0
15419.050904325568,-66.0
15419.05096682278,41.0
15419.051029319993,116.0
15419.051091817206,161.0
15419.051154314417,226.0
15419.05121681163,298.0
15419.051279308842,265.0
15419.051341806055,94.0
15419.051404303267,-178.0
15419.05146680048,-339.0
15419.051529297692,-340.0
15419.051591794905,-466.0
15419.051654292118,-363.0
15419.05171678933,-124.0
15419.051779286543,-24.0
15419.051841783756,119.0
15419.051904280968,170.0
15419.05196677818,186.0
15419.052029275392,199.0
15419.052091772604,135.0
15419.052154269817,88.0
15419.05221676703,94.0
15419.052279264242,107.0
15419.052341761455,89.0
15419.052404258668,-60.0
15419.05246675588,46.0
15419.052529253091,407.0
15419.052591750304,543.0
15419.052654247516,493.0
15419.052716744729,326.0
15419.052779241942,159.0
15419.052841739154,-3.0
15419.052904236367,-111.0
15419.05296673358,-66.0
15419.053029230792,-52.0
15419.053091728005,-30.0
15419.053154225217,19.0
15419.05321672243,-37.0
15419.05327921964,-11.0
15419.053341716854,-72.0
15419.053404214066,-247.0
15419.053466711279,-153.0
15419.053529208491,-180.0
15419.053591705704,-366.0
15419.053654202917,-427.0
15419.05371670013,-545.0
15419.053779197342,-613.0
15419.053841694555,-558.0
15419.053904191765,-370.0
15419.053966688978,-79.0
15419.05402918619,142.0
15419.054091683403,248.0
15419.054154180616,249.0
15419.054216677829,212.0
15419.054279175041,271.0
15419.054341672254,355.0
15419.054404169467,345.0
15419.05446666668,440.0
15419.054529163892,314.0
15419.054591661104,-13.0
15419.054654158315,-228.0
15419.054716655528,-401.0
15419.05477915274,-393.0
15419.054841649953,-372.0
15419.054904147166,-581.0
15419.054966644379,-730.0
15419.055029141591,-809.0
15419.055091638804,-889.0
15419.055154136016,-785.0
15419.055216633229,-566.0
15419.05527913044,-469.0
15419.055341627653,-383.0
15419.055404124865,-55.0
15419.055466622078,8.0
15419.05552911929,-20.0
15419.055591616503,52.0
15419.055654113716,81.0
15419.055716610928,195.0
15419.055779108141,62.0
15419.055841605354,-93.0
15419.055904102566,-73.0
15419.055966599779,-57.0
15419.05602909699,75.0
15419.056091594202,239.0
15419.056154091415,148.0
15419.056216588628,-73.0
15419.05627908584,-56.0
15419.056341583053,126.0
15419.056404080266,217.0
15419.056466577478,220.0
15419.05652907469,97.0
15419.056591571903,19.0
15419.056654069114,-48.0
15419.056716566327,-324.0
15419.05677906354,-453.0
15419.056841560752,-273.0
15419.056904057965,-225.0
15419.056966555177,-250.0
15419.05702905239,-96.0
15419.057091549603,87.0
15419.057154046815,204.0
15419.057216544028,114.0
15419.05727904124,-69.0
15419.057341538453,-94.0
15419.057404035664,-126.0
15419.057466532877,-115.0
15419.05752903009,61.0
15419.057591527302,246.0
15419.057654024515,214.0
15419.057716521727,6.0
15419.05777901894,-231.0
15419.057841516153,-244.0
15419.057904013365,-231.0
15419.057966510578,-413.0
15419.058029007789,-498.0
15419.058091505001,-632.0
15419.058154002214,-669.0
15419.058216499427,-543.0
15419.05827899664,-500.0
15419.058341493852,-458.0
15419.058403991065,-331.0
15419.058466488277,-123.0
15419.05852898549,46.0
15419.058591482702,144.0
15419.058653979915,79.0
15419.058716477128,-55.0
15419.058778974339,16.0
15419.058841471551,188.0
15419.058903968764,272.0
15419.058966465976,274.0
15419.05902896319,77.0
15419.059091460402,-48.0
15419.059153957614,-81.0
15419.059216454827,-140.0
15419.05927895204,-155.0
15419.059341449252,-223.0
15419.059403946463,-317.0
15419.059466443676,-382.0
15419.059528940888,-330.0
15419.059591438101,-193.0
15419.059653935314,5.0
15419.059716432526,251.0
15419.059778929739,386.0
15419.059841426952,519.0
15419.059903924164,538.0
15419.059966421377,565.0
15419.06002891859,795.0
15419.060091415802,699.0
15419.060153913013,331.0
15419.060216410226,200.0
15419.060278907438,193.0
15419.06034140465,254.0
15419.060403901864,424.0
15419.060466399076,377.0
15419.060528896289,246.0
15419.060591393501,221.0
15419.060653890714,238.0
15419.060716387925,337.0
15419.060778885138,447.0
15419.06084138235,484.0
15419.060903879563,313.0
15419.060966376775,65.0
15419.061028873988,-77.0
15419.0610913712,26.0
15419.061153868413,164.0
15419.061216365626,138.0
15419.061278862839,180.0
15419.061341360051,81.0
15419.061403857264,-155.0
15419.061466354477,-290.0
15419.061528851687,-500.0
15419.0615913489,-778.0
15419.061653846113,-828.0
15419.061716343325,-817.0
15419.061778840538,-735.0
15419.06184133775,-502.0
15419.061903834963,-349.0
15419.061966332176,-265.0
15419.062028829389,-133.0
15419.0620913266,62.0
15419.062153823812,252.0
15419.062216321025,259.0
15419.062278818237,127.0
15419.06234131545,88.0
15419.062403812663,31.0
15419.062466309875,-43.0
15419.062528807088,-113.0
15419.0625913043,-183.0
15419.062653801513,-178.0
15419.062716298726,-249.0
15419.062778795938,-428.0
15419.062841293151,-493.0
15419.062903790362,-329.0
15419.062966287574,-154.0
15419.063028784787,6.0
15419.063091282,160.0
15419.063153779212,47.0
15419.063216276425,-102.0
15419.063278773638,-70.0
15419.06334127085,45.0
15419.063403768063,92.0
15419.063466265274,-32.0
15419.063528762486,-174.0
15419.063591259699,-349.0
15419.063653756912,-426.0
15419.063716254124,-431.0
15419.063778751337,-385.0
15419.06384124855,-359.0
15419.063903745762,-591.0
15419.063966242975,-673.0
15419.064028740187,-401.0
15419.0640912374,-174.0
15419.064153734613,42.0
15419.064216231824,168.0
15419.064278729036,189.0
15419.064341226249,198.0
15419.064403723462,47.0
15419.064466220674,-139.0
15419.064528717887,-173.0
15419.0645912151,-41.0
15419.064653712312,2.0
15419.064716209525,58.0
15419.064778706737,19.0
15419.064841203948,-174.0
15419.06490370116,-341.0
15419.064966198373,-480.0
15419.065028695586,-486.0
15419.065091192799,-385.0
15419.065153690011,-310.0
15419.065216187224,-239.0
15419.065278684437,-108.0
15419.06534118165,65.0
15419.065403678862,182.0
15419.065466176075,230.0
15419.065528673287,216.0
15419.065591170498,96.0
15419.06565366771,-113.0
15419.065716164923,-178.0
15419.065778662136,-112.0
15419.065841159349,-106.0
15419.065903656561,-87.0
15419.065966153774,-66.0
15419.066028650986,-118.0
15419.0660911482,-153.0
15419.066153645412,-209.0
15419.066216142623,-371.0
15419.066278639835,-411.0
15419.066341137048,-297.0
15419.06640363426,-237.0
15419.066466131473,-217.0
15419.066528628686,-298.0
15419.066591125898,-456.0
15419.066653623111,-518.0
15419.066716120324,-436.0
15419.066778617536,-241.0
15419.066841114749,-174.0
15419.066903611962,-222.0
15419.066966109172,-141.0
15419.067028606385,-179.0
15419.067091103598,-198.0
15419.06715360081,-81.0
15419.067216098023,-37.0
15419.067278595236,69.0
15419.067341092448,54.0
15419.06740358966,-90.0
15419.067466086874,-98.0
15419.067528584086,181.0
15419.067591081297,590.0
15419.06765357851,689.0
15419.067716075722,481.0
15419.067778572935,152.0
15419.067841070148,-93.0
15419.06790356736,-234.0
15419.067966064573,-236.0
15419.068028561785,-221.0
15419.068091058998,-318.0
15419.06815355621,-505.0
15419.068216053423,-592.0
15419.068278550636,-571.0
15419.068341047847,-419.0
15419.06840354506,-118.0
15419.068466042272,153.0
15419.068528539485,236.0
15419.068591036697,213.0
15419.06865353391,276.0
15419.068716031123,240.0
15419.068778528335,147.0
15419.068841025548,140.0
15419.06890352276,120.0
15419.068966019971,-36.0
15419.069028517184,-302.0
15419.069091014397,-321.0
15419.06915351161,-220.0
15419.069216008822,-238.0
15419.069278506035,-292.0
15419.069341003247,-360.0
15419.06940350046,-377.0
15419.069465997673,-304.0
15419.069528494885,-141.0
15419.069590992098,117.0
15419.06965348931,386.0
15419.069715986521,474.0
15419.069778483734,352.0
15419.069840980947,137.0
15419.06990347816,-110.0
15419.069965975372,-261.0
15419.070028472584,-271.0
15419.070090969797,-243.0
15419.07015346701,-283.0
15419.070215964222,-355.0
15419.070278461435,-307.0
15419.070340958646,-168.0
15419.070403455858,-100.0
15419.070465953071,-69.0
15419.070528450284,-29.0
15419.070590947496,107.0
15419.070653444709,265.0
15419.070715941922,337.0
15419.070778439134,413.0
15419.070840936347,356.0
15419.07090343356,123.0
15419.070965930772,40.0
15419.071028427985,214.0
15419.071090925196,393.0
15419.071153422408,357.0
15419.071215919621,244.0
15419.071278416834,119.0
15419.071340914046,-41.0
15419.071403411259,-263.0
15419.071465908472,-388.0
15419.071528405684,-335.0
15419.071590902897,-334.0
15419.071653400108,-311.0
15419.07171589732,-337.0
15419.071778394533,-235.0
15419.071840891746,69.0
15419.071903388958,108.0
15419.07196588617,82.0
15419.072028383383,44.0
15419.072090880596,-168.0
15419.072153377809,-310.0
15419.072215875021,-279.0
15419.072278372234,-161.0
15419.072340869447,-101.0
15419.07240336666,-108.0
15419.07246586387,-59.0
15419.072528361083,-5.0
15419.072590858295,27.0
15419.072653355508,66.0
15419.07271585272,2.0
15419.072778349933,-112.0
15419.072840847146,-247.0
15419.072903344359,-387.0
15419.072965841571,-353.0
15419.073028338782,-326.0
15419.073090835995,-370.0
15419.073153333207,-456.0
15419.07321583042,-511.0
15419.073278327633,-400.0
15419.073340824845,-178.0
15419.073403322058,68.0
15419.07346581927,168.0
15419.073528316483,232.0
15419.073590813696,258.0
15419.073653310908,195.0
15419.073715808121,68.0
15419.073778305334,-104.0
15419.073840802545,-123.0
15419.073903299757,-9.0
15419.07396579697,78.0
15419.074028294182,257.0
15419.074090791395,332.0
15419.074153288608,233.0
15419.07421578582,247.0
15419.074278283033,213.0
15419.074340780246,108.0
15419.074403277456,-17.0
15419.074465774669,29.0
15419.074528271882,151.0
15419.074590769094,185.0
15419.074653266307,135.0
15419.07471576352,-11.0
15419.074778260732,91.0
15419.074840757945,128.0
15419.074903255158,-86.0
15419.07496575237,-39.0
15419.075028249583,132.0
15419.075090746795,252.0
15419.075153244008,207.0
15419.075215741219,20.0
15419.075278238432,-19.0
15419.075340735644,22.0
15419.075403232857,177.0
15419.07546573007,299.0
15419.075528227282,176.0
15419.075590724495,57.0
15419.075653221707,8.0
15419.07571571892,-79.0
15419.07577821613,-115.0
15419.075840713343,58.0
15419.075903210556,198.0
15419.075965707769,139.0
15419.076028204981,133.0
15419.076090702194,-15.0
15419.076153199407,-290.0
15419.07621569662,-252.0
15419.076278193832,-182.0
15419.076340691045,-46.0
15419.076403188257,218.0
15419.07646568547,254.0
15419.07652818268,206.0
15419.076590679893,115.0
15419.076653177106,60.0
15419.076715674319,42.0
15419.076778171531,145.0
15419.076840668744,438.0
15419.076903165957,510.0
15419.07696566317,609.0
15419.077028160382,833.0
15419.077090657594,979.0
15419.077153154805,1072.0
15419.077215652018,901.0
15419.07727814923,690.0
15419.077340646443,463.0
15419.077403143656,314.0
15419.077465640868,436.0
15419.077528138081,277.0
15419.077590635294,-81.0
15419.077653132506,-397.0
15419.077715629719,-631.0
15419.077778126932,-723.0
15419.077840624144,-582.0
15419.077903121355,-342.0
15419.077965618568,-239.0
15419.07802811578,-234.0
15419.078090612993,-175.0
15419.078153110206,-152.0
15419.078215607418,-152.0
15419.078278104631,-44.0
15419.078340601844,157.0
15419.078403099056,310.0
15419.078465596269,253.0
15419.07852809348,140.0
15419.078590590692,106.0
15419.078653087905,304.0
15419.078715585118,342.0
15419.07877808233,117.0
15419.078840579543,46.0
15419.078903076756,-19.0
15419.078965573968,-150.0
15419.07902807118,-209.0
15419.079090568393,-86.0
15419.079153065606,42.0
15419.079215562819,-19.0
15419.07927806003,-207.0
15419.079340557242,-343.0
15419.079403054455,-441.0
15419.079465551667,-640.0
15419.07952804888,-546.0
15419.079590546093,-203.0
15419.079653043305,-46.0
15419.079715540518,-48.0
15419.07977803773,71.0
15419.079840534943,130.0
15419.079903032154,141.0
15419.079965529367,170.0
15419.08002802658,-37.0
15419.080090523792,-170.0
15419.080153021005,-60.0
15419.080215518217,38.0
15419.08027801543,134.0
15419.080340512643,308.0
15419.080403009855,457.0
15419.080465507068,532.0
15419.08052800428,443.0
15419.080590501493,213.0
15419.080652998704,26.0
15419.080715495917,-73.0
15419.08077799313,-118.0
15419.080840490342,20.0
15419.080902987555,258.0
15419.080965484767,482.0
15419.08102798198,534.0
15419.081090479192,461.0
15419.081152976405,388.0
15419.081215473618,307.0
15419.081277970829,402.0
15419.081340468041,532.0
15419.081402965254,516.0
15419.081465462466,362.0
15419.081527959679,119.0
15419.081590456892,53.0
15419.081652954104,166.0
15419.081715451317,130.0
15419.08177794853,128.0
15419.081840445742,312.0
15419.081902942955,228.0
15419.081965440168,52.0
15419.082027937378,-33.0
15419.082090434591,-64.0
15419.082152931804,8.0
15419.082215429016,-68.0
15419.082277926229,-220.0
15419.082340423442,-339.0
15419.082402920654,-444.0
15419.082465417867,-440.0
15419.08252791508,-244.0
15419.08259041229,-8.0
15419.082652909503,59.0
15419.082715406716,-30.0
15419.082777903928,-51.0
15419.08284040114,37.0
15419.082902898353,206.0
15419.082965395566,338.0
15419.083027892779,371.0
15419.083090389991,446.0
15419.083152887204,326.0
15419.083215384417,191.0
15419.08327788163,185.0
15419.083340378842,148.0
15419.083402876053,126.0
15419.083465373265,127.0
15419.083527870478,118.0
15419.08359036769,-2.0
15419.083652864903,8.0
15419.083715362116,7.0
15419.083777859329,-43.0
15419.083840356541,138.0
15419.083902853754,225.0
15419.083965350965,173.0
15419.084027848177,155.0
15419.08409034539,184.0
15419.084152842603,307.0
15419.084215339815,404.0
15419.084277837028,492.0
15419.08434033424,577.0
15419.084402831453,536.0
15419.084465328666,488.0
15419.084527825878,510.0
15419.084590323091,580.0
15419.084652820304,555.0
15419.084715317516,490.0
15419.084777814727,438.0
15419.08484031194,479.0
15419.084902809152,364.0
15419.084965306365,66.0
15419.085027803578,61.0
15419.08509030079,211.0
15419.085152798003,274.0
15419.085215295216,348.0
15419.085277792428,439.0
15419.08534028964,451.0
15419.085402786852,399.0
15419.085465284064,266.0
15419.085527781277,197.0
15419.08559027849,312.0
15419.085652775702,576.0
15419.085715272915,557.0
15419.085777770128,249.0
15419.08584026734,144.0
15419.085902764553,115.0
15419.085965261766,131.0
15419.086027758978,214.0
15419.08609025619,216.0
15419.086152753402,277.0
15419.086215250614,427.0
15419.086277747827,478.0
15419.08634024504,541.0
15419.086402742252,604.0
15419.086465239465,479.0
15419.086527736677,343.0
15419.08659023389,277.0
15419.086652731103,118.0
15419.086715228314,15.0
15419.086777725526,37.0
15419.086840222739,16.0
15419.086902719951,-91.0
15419.086965217164,-176.0
15419.087027714377,-176.0
15419.08709021159,-111.0
15419.087152708802,-88.0
15419.087215206015,62.0
15419.087277703227,260.0
15419.08734020044,235.0
15419.087402697653,144.0
15419.087465194863,102.0
15419.087527692076,119.0
15419.087590189289,284.0
15419.087652686501,521.0
15419.087715183714,526.0
15419.087777680927,317.0
15419.08784017814,204.0
15419.087902675352,195.0
15419.087965172565,182.0
15419.088027669777,223.0
15419.088090166988,310.0
15419.0881526642,426.0
15419.088215161413,380.0
15419.088277658626,200.0
15419.088340155839,269.0
15419.088402653051,478.0
15419.088465150264,495.0
15419.088527647476,344.0
15419.088590144689,214.0
15419.088652641902,243.0
15419.088715139114,228.0
15419.088777636327,133.0
15419.088840133538,238.0
15419.08890263075,328.0
15419.088965127963,200.0
15419.089027625176,116.0
15419.089090122388,196.0
15419.089152619601,248.0
15419.089215116814,396.0
15419.089277614026,620.0
15419.089340111239,641.0
15419.089402608452,384.0
15419.089465105662,7.0
15419.089527602875,-184.0
15419.089590100088,-183.0
15419.0896525973,-106.0
15419.089715094513,-103.0
15419.089777591726,-160.0
15419.089840088938,-45.0
15419.08990258615,29.0
15419.089965083363,-92.0
15419.090027580576,-184.0
15419.090090077789,-30.0
15419.090152575001,102.0
15419.090215072212,84.0
15419.090277569425,254.0
15419.090340066638,428.0
15419.09040256385,379.0
15419.090465061063,256.0
15419.090527558275,195.0
15419.090590055488,198.0
15419.0906525527,161.0
15419.090715049913,95.0
15419.090777547126,186.0
15419.090840044337,301.0
15419.09090254155,169.0
15419.090965038762,98.0
15419.091027535975,78.0
15419.091090033187,49.0
15419.0911525304,-10.0
15419.091215027613,-117.0
15419.091277524825,-5.0
15419.091340022038,105.0
15419.09140251925,165.0
15419.091465016463,85.0
15419.091527513676,-117.0
15419.091590010887,-254.0
15419.0916525081,-306.0
15419.091715005312,-126.0
15419.091777502525,42.0
15419.091839999737,145.0
15419.09190249695,187.0
15419.091964994162,139.0
15419.092027491375,217.0
15419.092089988588,304.0
15419.0921524858,246.0
15419.092214983011,33.0
15419.092277480224,-172.0
15419.092339977436,-121.0
15419.09240247465,-105.0
15419.092464971862,-66.0
15419.092527469074,52.0
15419.092589966287,87.0
15419.0926524635,251.0
15419.092714960712,238.0
15419.092777457925,158.0
15419.092839955138,299.0
15419.09290245235,295.0
15419.092964949561,270.0
15419.093027446774,370.0
15419.093089943986,420.0
15419.093152441199,274.0
15419.093214938412,145.0
15419.093277435624,288.0
15419.093339932837,394.0
15419.09340243005,339.0
15419.093464927262,375.0
15419.093527424475,510.0
15419.093589921686,508.0
15419.093652418898,389.0
15419.093714916111,267.0
15419.093777413324,171.0
15419.093839910536,207.0
15419.093902407749,120.0
15419.093964904961,-27.0
15419.094027402174,-121.0
15419.094089899387,-292.0
15419.0941523966,-363.0
15419.094214893812,-261.0
15419.094277391025,-22.0
15419.094339888235,212.0
15419.094402385448,281.0
15419.09446488266,231.0
15419.094527379873,103.0
15419.094589877086,126.0
15419.094652374299,328.0
15419.094714871511,439.0
15419.094777368724,581.0
15419.094839865937,699.0
15419.094902363147,618.0
15419.09496486036,623.0
15419.095027357573,664.0
15419.095089854785,585.0
15419.095152351998,349.0
15419.09521484921,149.0
15419.095277346423,168.0
15419.095339843636,94.0
15419.095402340849,-27.0
15419.095464838061,63.0
15419.095527335274,266.0
15419.095589832486,372.0
15419.095652329699,353.0
15419.09571482691,173.0
15419.095777324123,50.0
15419.095839821335,41.0
15419.095902318548,-109.0
15419.09596481576,-127.0
15419.096027312973,-137.0
15419.096089810186,-285.0
15419.096152307398,-452.0
15419.096214804611,-537.0
15419.096277301822,-421.0
15419.096339799034,-140.0
15419.096402296247,-40.0
15419.09646479346,-23.0
15419.096527290672,203.0
15419.096589787885,275.0
15419.096652285098,333.0
15419.09671478231,404.0
15419.096777279523,366.0
15419.096839776736,273.0
15419.096902273948,-76.0
15419.09696477116,-320.0
15419.097027268373,-378.0
15419.097089765584,-450.0
15419.097152262797,-541.0
15419.09721476001,-726.0
15419.097277257222,-739.0
15419.097339754435,-678.0
15419.097402251648,-520.0
15419.09746474886,-199.0
15419.097527246073,25.0
15419.097589743285,193.0
15419.097652240496,200.0
15419.097714737709,112.0
15419.097777234922,246.0
15419.097839732134,417.0
15419.097902229347,363.0
15419.09796472656,389.0
15419.098027223772,534.0
15419.098089720985,528.0
15419.098152218197,429.0
15419.09821471541,406.0
15419.098277212623,512.0
15419.098339709835,671.0
15419.098402207046,555.0
15419.098464704259,314.0
15419.098527201471,154.0
15419.098589698684,-77.0
15419.098652195897,-199.0
15419.09871469311,-254.0
15419.098777190322,-124.0
15419.098839687535,222.0
15419.098902184747,333.0
15419.09896468196,285.0
15419.09902717917,211.0
15419.099089676383,168.0
15419.099152173596,314.0
15419.099214670809,496.0
15419.099277168021,370.0
15419.099339665234,15.0
15419.099402162446,-119.0
15419.09946465966,-141.0
15419.099527156872,-286.0
15419.099589654084,-367.0
15419.099652151297,-414.0
15419.09971464851,-513.0
15419.09977714572,-514.0
15419.099839642933,-479.0
15419.099902140146,-481.0
15419.099964637358,-364.0
15419.100027134571,-324.0
15419.100089631784,-382.0
15419.100152128996,-500.0
15419.100214626209,-561.0
15419.100277123422,-540.0
15419.100339620634,-596.0
15419.100402117845,-577.0
15419.100464615058,-453.0
15419.10052711227,-224.0
15419.100589609483,-89.0
15419.100652106696,-61.0
15419.100714603908,-94.0
15419.100777101121,-230.0
15419.100839598334,-230.0
15419.100902095546,-167.0
15419.100964592759,-117.0
15419.101027089971,-96.0
15419.101089587184,-68.0
15419.101152084395,18.0
15419.101214581608,-22.0
15419.10127707882,-97.0
15419.101339576033,28.0
15419.101402073245,186.0
15419.101464570458,300.0
15419.10152706767,345.0
15419.101589564883,179.0
15419.101652062096,12.0
15419.101714559309,54.0
15419.10177705652,110.0
15419.101839553732,123.0
15419.101902050945,135.0
15419.101964548157,31.0
15419.10202704537,-175.0
15419.102089542583,-257.0
15419.102152039795,-253.0
15419.102214537008,-292.0
15419.10227703422,-360.0
15419.102339531433,-359.0
15419.102402028646,-149.0
15419.102464525859,56.0
15419.10252702307,97.0
15419.102589520282,181.0
15419.102652017495,278.0
15419.102714514707,269.0
15419.10277701192,403.0
15419.102839509133,493.0
15419.102902006345,223.0
15419.102964503558,-15.0
15419.10302700077,-57.0
15419.103089497983,-129.0
15419.103151995194,-234.0
15419.103214492407,-337.0
15419.10327698962,-461.0
15419.103339486832,-524.0
15419.103401984044,-498.0
15419.103464481257,-520.0
15419.10352697847,-438.0
15419.103589475682,-293.0
15419.103651972895,-161.0
15419.103714470108,-145.0
15419.10377696732,-159.0
15419.103839464533,-222.0
15419.103901961744,-357.0
15419.103964458956,-183.0
15419.104026956169,-20.0
15419.104089453382,-67.0
15419.104151950594,-92.0
15419.104214447807,-108.0
15419.10427694502,-280.0
15419.104339442232,-307.0
15419.104401939445,-81.0
15419.104464436658,16.0
15419.104526933868,10.0
15419.104589431081,-77.0
15419.104651928294,-284.0
15419.104714425506,-437.0
15419.104776922719,-478.0
15419.104839419932,-387.0
15419.104901917144,-255.0
15419.104964414357,-240.0
15419.10502691157,-275.0
15419.105089408782,-208.0
15419.105151905995,-119.0
15419.105214403207,-107.0
15419.105276900418,-210.0
15419.10533939763,-342.0
15419.105401894843,-497.0
15419.105464392056,-654.0
15419.105526889269,-589.0
15419.105589386481,-388.0
15419.105651883694,-317.0
15419.105714380907,-269.0
15419.10577687812,-147.0
15419.10583937533,-122.0
15419.105901872543,-265.0
15419.105964369755,-287.0
15419.106026866968,-186.0
15419.10608936418,-156.0
15419.106151861393,-256.0
15419.106214358606,-315.0
15419.106276855819,-255.0
15419.106339353031,-263.0
15419.106401850244,-262.0
15419.106464347456,-36.0
15419.10652684467,133.0
15419.106589341882,37.0
15419.106651839093,-126.0
15419.106714336305,-339.0
15419.106776833518,-428.0
15419.10683933073,-412.0
15419.106901827943,-475.0
15419.106964325156,-534.0
15419.107026822368,-591.0
15419.107089319581,-622.0
15419.107151816794,-613.0
15419.107214314005,-578.0
15419.107276811217,-496.0
15419.10733930843,-365.0
15419.107401805642,-262.0
15419.107464302855,-108.0
15419.107526800068,-84.0
15419.10758929728,-187.0
15419.107651794493,-218.0
15419.107714291706,-333.0
15419.107776788918,-441.0
15419.107839286131,-510.0
15419.107901783344,-519.0
15419.107964280556,-389.0
