time,X_NOSE,Y_NOSE,Z_NOSE,visibility_NOSE,X_LEFT_EYE_INNER,Y_LEFT_EYE_INNER,Z_LEFT_EYE_INNER,visibility_LEFT_EYE_INNER,X_LEFT_EYE,Y_LEFT_EYE,Z_LEFT_EYE,visibility_LEFT_EYE,X_LEFT_EYE_OUTER,Y_LEFT_EYE_OUTER,Z_LEFT_EYE_OUTER,visibility_LEFT_EYE_OUTER,X_RIGHT_EYE_OUTER,Y_RIGHT_EYE_OUTER,Z_RIGHT_EYE_OUTER,visibility_RIGHT_EYE_OUTER,X_RIGHT_EYE,Y_RIGHT_EYE,Z_RIGHT_EYE,visibility_RIGHT_EYE,X_RIGHT_EYE_OUTER,Y_RIGHT_EYE_OUTER,Z_RIGHT_EYE_OUTER,visibility_RIGHT_EYE_OUTER,X_LEFT_EAR,Y_LEFT_EAR,Z_LEFT_EAR,visibility_LEFT_EAR,X_RIGHT_EAR,Y_RIGHT_EAR,Z_RIGHT_EAR,visibility_RIGHT_EAR,X_MOUTH_LEFT,Y_MOUTH_LEFT,Z_MOUTH_LEFT,visibility_MOUTH_LEFT,X_MOUTH_RIGHT,Y_MOUTH_RIGHT,Z_MOUTH_RIGHT,visibility_MOUTH_RIGHT,X_LEFT_SHOULDER,Y_LEFT_SHOULDER,Z_LEFT_SHOULDER,visibility_LEFT_SHOULDER,X_RIGHT_SHOULDER,Y_RIGHT_SHOULDER,Z_RIGHT_SHOULDER,visibility_RIGHT_SHOULDER,X_LEFT_ELBOW,Y_LEFT_ELBOW,Z_LEFT_ELBOW,visibility_LEFT_ELBOW,X_RIGHT_ELBOW,Y_RIGHT_ELBOW,Z_RIGHT_ELBOW,visibility_RIGHT_ELBOW,X_LEFT_WRIST,Y_LEFT_WRIST,Z_LEFT_WRIST,visibility_LEFT_WRIST,X_RIGHT_WRIST,Y_RIGHT_WRIST,Z_RIGHT_WRIST,visibility_RIGHT_WRIST,X_LEFT_PINKY,Y_LEFT_PINKY,Z_LEFT_PINKY,visibility_LEFT_PINKY,X_RIGHT_PINKY,Y_RIGHT_PINKY,Z_RIGHT_PINKY,visibility_RIGHT_PINKY,X_LEFT_INDEX,Y_LEFT_INDEX,Z_LEFT_INDEX,visibility_LEFT_INDEX,X_RIGHT_INDEX,Y_RIGHT_INDEX,Z_RIGHT_INDEX,visibility_RIGHT_INDEX,X_LEFT_THUMB,Y_LEFT_THUMB,Z_LEFT_THUMB,visibility_LEFT_THUMB,X_RIGHT_THUMB,Y_RIGHT_THUMB,Z_RIGHT_THUMB,visibility_RIGHT_THUMB,X_LEFT_HIP,Y_LEFT_HIP,Z_LEFT_HIP,visibility_LEFT_HIP,X_RIGHT_HIP,Y_RIGHT_HIP,Z_RIGHT_HIP,visibility_RIGHT_HIP,X_LEFT_KNEE,Y_LEFT_KNEE,Z_LEFT_KNEE,visibility_LEFT_KNEE,X_RIGHT_KNEE,Y_RIGHT_KNEE,Z_RIGHT_KNEE,visibility_RIGHT_KNEE,X_LEFT_ANKLE,Y_LEFT_ANKLE,Z_LEFT_ANKLE,visibility_LEFT_ANKLE,X_RIGHT_ANKLE,Y_RIGHT_ANKLE,Z_RIGHT_ANKLE,visibility_RIGHT_ANKLE,X_LEFT_HEEL,Y_LEFT_HEEL,Z_LEFT_HEEL,visibility_LEFT_HEEL,X_RIGHT_HEEL,Y_RIGHT_HEEL,Z_RIGHT_HEEL,visibility_RIGHT_HEEL,X_LEFT_FOOT_INDEX,Y_LEFT_FOOT_INDEX,Z_LEFT_FOOT_INDEX,visibility_LEFT_FOOT_INDEX,X_RIGHT_FOOT_INDEX,Y_RIGHT_FOOT_INDEX,Z_RIGHT_FOOT_INDEX,visibility_RIGHT_FOOT_INDEX
14070.375308532097,0.46652951836586,0.2725801169872284,-0.704063355922699,0.9997797608375549,0.4772833585739136,0.25094249844551086,-0.6628803610801697,0.9995724558830261,0.48658493161201477,0.25048530101776123,-0.663119375705719,0.9995822310447693,0.49671411514282227,0.2501485049724579,-0.6633046865463257,0.9995492100715637,0.4454169273376465,0.2516249120235443,-0.6722888946533203,0.9993020296096802,0.4309733808040619,0.2520327568054199,-0.6724209189414978,0.9992848038673401,0.4179304838180542,0.25282958149909973,-0.6725744605064392,0.9991631507873535,0.5027115941047668,0.2573792636394501,-0.3613719642162323,0.9995998740196228,0.3922508955001831,0.26183822751045227,-0.41366225481033325,0.9987254738807678,0.479964017868042,0.2944534718990326,-0.5860804915428162,0.9998061060905457,0.44130057096481323,0.296947717666626,-0.6009766459465027,0.9996628761291504,0.5842491984367371,0.376970499753952,-0.16959664225578308,0.9998804330825806,0.3098123371601105,0.3810264468193054,-0.23005321621894836,0.998941957950592,0.6059801578521729,0.5309766530990601,-0.039602261036634445,0.963740885257721,0.29985302686691284,0.5527848601341248,-0.5176916122436523,0.941345751285553,0.6471514105796814,0.6626970767974854,-0.2697962820529938,0.9681020379066467,0.3091888427734375,0.4611533582210541,-1.155290961265564,0.980693519115448,0.6587622165679932,0.7073609232902527,-0.3288615345954895,0.9423530101776123,0.31285423040390015,0.4352644085884094,-1.266300082206726,0.9702932238578796,0.6496630907058716,0.7095117568969727,-0.4032653272151947,0.9472658038139343,0.30875614285469055,0.4126006066799164,-1.2913082838058472,0.9700741171836853,0.6395226716995239,0.6997346878051758,-0.30007418990135193,0.9478257894515991,0.3121163249015808,0.416098952293396,-1.1772890090942383,0.9612695574760437,0.5559357404708862,0.6538835167884827,0.03262747824192047,0.9968597888946533,0.40059444308280945,0.6637109518051147,-0.03259759023785591,0.9940647482872009,0.5437740683555603,0.8753163814544678,-0.09535849094390869,0.6236431002616882,0.41770273447036743,0.8715525269508362,-0.09165830910205841,0.5548429489135742,0.523520290851593,1.0556033849716187,0.48839271068573,0.28040072321891785,0.432784765958786,1.056052803993225,0.3949028551578522,0.2701822817325592,0.5087686777114868,1.0745234489440918,0.5279476046562195,0.2345169633626938,0.4392566978931427,1.0733797550201416,0.43031951785087585,0.13580448925495148,0.5471129417419434,1.1283360719680786,0.2322220653295517,0.21295073628425598,0.44624024629592896,1.1338783502578735,0.0837424024939537,0.20340493321418762
14087.041975198763,0.4687870442867279,0.27638810873031616,-0.6665433645248413,0.9996333122253418,0.47946587204933167,0.2549174427986145,-0.6275942325592041,0.9992812275886536,0.4886351227760315,0.2543981373310089,-0.6278740763664246,0.999298095703125,0.49819415807724,0.25390076637268066,-0.6280887126922607,0.9992351531982422,0.4475543200969696,0.2557219862937927,-0.6357805728912354,0.9988539218902588,0.43254554271698,0.2560412883758545,-0.6359071731567383,0.9988260865211487,0.41907232999801636,0.2565191686153412,-0.6360821723937988,0.9986353516578674,0.5028870701789856,0.25979968905448914,-0.3345286548137665,0.9993345141410828,0.39224353432655334,0.26453492045402527,-0.3798907697200775,0.9980437755584717,0.48151451349258423,0.29761016368865967,-0.5511977672576904,0.9996912479400635,0.4423491656780243,0.30049842596054077,-0.564069390296936,0.9994717240333557,0.5816125869750977,0.37663719058036804,-0.14525724947452545,0.9998527765274048,0.31065988540649414,0.3836453855037689,-0.201471745967865,0.9988873600959778,0.6050816178321838,0.52994704246521,-0.011644499376416206,0.9557819962501526,0.291774719953537,0.5571975708007812,-0.48204439878463745,0.947526752948761,0.6477829813957214,0.6603507995605469,-0.23196956515312195,0.9600957632064819,0.30767321586608887,0.45429474115371704,-1.1064453125,0.9854915142059326,0.660089373588562,0.7057979106903076,-0.2883272171020508,0.9311460256576538,0.3098752498626709,0.428098201751709,-1.2162442207336426,0.9769951105117798,0.6506018042564392,0.7084519863128662,-0.3623698055744171,0.9375280141830444,0.3048722743988037,0.40886640548706055,-1.241087555885315,0.9768896698951721,0.640290379524231,0.6987354159355164,-0.2622234523296356,0.9396879076957703,0.3093964159488678,0.41338488459587097,-1.1282908916473389,0.9696030616760254,0.551773190498352,0.6577165126800537,0.03159964457154274,0.9965546131134033,0.39674168825149536,0.6689127087593079,-0.03149956464767456,0.9929927587509155,0.5416455268859863,0.878568172454834,-0.10964809358119965,0.5796025395393372,0.40984296798706055,0.8736413717269897,-0.08266304433345795,0.5122004151344299,0.5307971239089966,1.0638630390167236,0.43755051493644714,0.23578691482543945,0.4257486164569855,1.0598111152648926,0.39539748430252075,0.21966929733753204,0.5165581107139587,1.0842041969299316,0.4741905927658081,0.21663135290145874,0.43203505873680115,1.0774415731430054,0.4308547079563141,0.1196051687002182,0.5572057962417603,1.1338708400726318,0.1814577728509903,0.17660006880760193,0.43946871161460876,1.1360020637512207,0.0923292338848114,0.162922665476799
14103.708641865429,0.4659509062767029,0.27266839146614075,-0.7040186524391174,0.9998040795326233,0.47745785117149353,0.25108835101127625,-0.6631050705909729,0.9996399879455566,0.4860442280769348,0.2506294250488281,-0.6633579730987549,0.9996562004089355,0.4962478578090668,0.25032779574394226,-0.6635650396347046,0.9996250867843628,0.44430649280548096,0.25216442346572876,-0.6722322702407837,0.9994193315505981,0.42985013127326965,0.25275179743766785,-0.6723549365997314,0.9994058609008789,0.41685959696769714,0.25346577167510986,-0.6725215911865234,0.9992771744728088,0.5031786561012268,0.257811963558197,-0.36165425181388855,0.999680757522583,0.3926659822463989,0.2622984051704407,-0.41217902302742004,0.9989965558052063,0.4803864657878876,0.29493051767349243,-0.5859181880950928,0.9998492002487183,0.4407200813293457,0.2978568375110626,-0.6003055572509766,0.9997323155403137,0.5844398736953735,0.3783800005912781,-0.16702573001384735,0.9999029636383057,0.31107306480407715,0.38111579418182373,-0.2310263067483902,0.9990435242652893,0.6058836579322815,0.5309683680534363,-0.032925285398960114,0.9666175842285156,0.29975268244743347,0.5531302094459534,-0.5239826440811157,0.9443514943122864,0.64603590965271,0.6607771515846252,-0.266165167093277,0.9705370664596558,0.31342923641204834,0.46470320224761963,-1.1652756929397583,0.9818885922431946,0.6589425802230835,0.7057037353515625,-0.3260285556316376,0.9470053911209106,0.3175485134124756,0.4400302767753601,-1.2773634195327759,0.9714168310165405,0.6497259736061096,0.7078602313995361,-0.40101927518844604,0.9522378444671631,0.31268584728240967,0.4173807203769684,-1.3028218746185303,0.9712001085281372,0.6392204761505127,0.6983151435852051,-0.29667550325393677,0.9520714282989502,0.3162236213684082,0.42087656259536743,-1.1874477863311768,0.9627230167388916,0.5561932325363159,0.6550838351249695,0.03360757231712341,0.9968928098678589,0.3999957740306854,0.664074718952179,-0.03351813182234764,0.9934086799621582,0.5428814888000488,0.8771753311157227,-0.11650478839874268,0.63346928358078,0.4163152575492859,0.8685250878334045,-0.07916837185621262,0.5406061410903931,0.5255243182182312,1.0643376111984253,0.4413972496986389,0.2745051085948944,0.4308333992958069,1.0568240880966187,0.4129347503185272,0.24024787545204163,0.5103237628936768,1.084599494934082,0.4778158962726593,0.23378922045230865,0.4373568594455719,1.0746352672576904,0.44875526428222656,0.12621985375881195,0.5492395162582397,1.136061429977417,0.17464320361614227,0.19685499370098114,0.44272711873054504,1.1329201459884644,0.10351387411355972,0.17650221288204193
14120.375308532095,0.4688650667667389,0.27267006039619446,-0.7005336880683899,0.9997023940086365,0.4795915484428406,0.2512378692626953,-0.6584379076957703,0.9994617104530334,0.4885662794113159,0.2507922053337097,-0.6586917042732239,0.9994798302650452,0.4984496235847473,0.25050681829452515,-0.6588832139968872,0.9994282126426697,0.447769433259964,0.25214818120002747,-0.6691899299621582,0.9991452693939209,0.43338075280189514,0.25260454416275024,-0.6693167090415955,0.9991356730461121,0.420149564743042,0.2533370554447174,-0.6695019602775574,0.9989629983901978,0.5041657090187073,0.2580714821815491,-0.3505251705646515,0.999512791633606,0.39405569434165955,0.2620234787464142,-0.4087229371070862,0.9985805749893188,0.4822707176208496,0.2950710356235504,-0.5800355076789856,0.9997631907463074,0.4433843493461609,0.29766765236854553,-0.5965936779975891,0.999607503414154,0.5829294323921204,0.37839895486831665,-0.1510227620601654,0.9998635053634644,0.3104940950870514,0.38174372911453247,-0.22999894618988037,0.9987390637397766,0.604151725769043,0.5313858985900879,-0.018943119794130325,0.9605847597122192,0.2967301607131958,0.5566864609718323,-0.5342140197753906,0.9372215270996094,0.6460314989089966,0.6614629626274109,-0.25681272149086,0.9655748009681702,0.31302720308303833,0.46500182151794434,-1.1790423393249512,0.9749770760536194,0.658466100692749,0.7053830623626709,-0.3170076012611389,0.9384545683860779,0.3185332417488098,0.4394263029098511,-1.2914336919784546,0.9621925354003906,0.6503615379333496,0.7078883051872253,-0.3915371894836426,0.9441161751747131,0.31209564208984375,0.4166554808616638,-1.316864013671875,0.9620425701141357,0.6400985717773438,0.6981315016746521,-0.28741535544395447,0.943889856338501,0.31510114669799805,0.4205525815486908,-1.2012081146240234,0.9511188864707947,0.5553379058837891,0.6570265889167786,0.039677299559116364,0.9964750409126282,0.39860963821411133,0.6659271717071533,-0.039574507623910904,0.9932641983032227,0.5422484874725342,0.8779675960540771,-0.08714277297258377,0.6226239204406738,0.4167758822441101,0.8700035214424133,-0.09668657183647156,0.5480676293373108,0.5235708951950073,1.0624115467071533,0.48590853810310364,0.2916634678840637,0.42946285009384155,1.0594604015350342,0.3883495032787323,0.2651350796222687,0.5073307156562805,1.0824825763702393,0.523775577545166,0.25607621669769287,0.4348887503147125,1.0773142576217651,0.42305824160575867,0.13522017002105713,0.5506169199943542,1.1339582204818726,0.22159932553768158,0.21688708662986755,0.4433601498603821,1.1358866691589355,0.07042042165994644,0.1979294866323471
14137.041975198761,0.46841001510620117,0.2733250856399536,-0.6930028200149536,0.9997133612632751,0.4794178307056427,0.2521151304244995,-0.6517913341522217,0.9994727969169617,0.4881577491760254,0.2516379952430725,-0.6520594358444214,0.9994989633560181,0.4981347918510437,0.2512916624546051,-0.6522756218910217,0.9994445443153381,0.44718408584594727,0.253038227558136,-0.6609723567962646,0.999169111251831,0.4326631426811218,0.25350406765937805,-0.6610980033874512,0.9991652965545654,0.4194756746292114,0.2541731894016266,-0.6612768769264221,0.9989879727363586,0.5042808055877686,0.25870513916015625,-0.3484887480735779,0.9995439648628235,0.3938773572444916,0.2626296579837799,-0.39869847893714905,0.9986569881439209,0.4820444881916046,0.2954327464103699,-0.5741201639175415,0.9997770190238953,0.44270896911621094,0.2981297969818115,-0.5884184241294861,0.9996190071105957,0.5847986340522766,0.3784882426261902,-0.15173830091953278,0.9998624324798584,0.31127411127090454,0.3828541934490204,-0.21509578824043274,0.9987647533416748,0.604820191860199,0.5318820476531982,-0.011796238832175732,0.9588941335678101,0.29668816924095154,0.5570160150527954,-0.5099024772644043,0.937343418598175,0.6472718119621277,0.6627641320228577,-0.23667055368423462,0.9614661931991577,0.3115137815475464,0.4635363817214966,-1.1525635719299316,0.977510929107666,0.6603349447250366,0.7086197137832642,-0.2939750552177429,0.9328525066375732,0.31598585844039917,0.4371489882469177,-1.264143466949463,0.9653586745262146,0.6517031192779541,0.7110520601272583,-0.36976897716522217,0.9393714666366577,0.30995678901672363,0.41484951972961426,-1.2894829511642456,0.9651574492454529,0.6406313180923462,0.7012849450111389,-0.26744747161865234,0.9398177266120911,0.3143835961818695,0.4192332327365875,-1.17481529712677,0.9550999999046326,0.5570914149284363,0.6578502058982849,0.03377687558531761,0.9965233206748962,0.3991742730140686,0.666807234287262,-0.033657778054475784,0.9928789734840393,0.5436202883720398,0.8809688687324524,-0.1129755899310112,0.6452196836471558,0.4148866534233093,0.8728567957878113,-0.07811092585325241,0.5539445877075195,0.524258017539978,1.0694737434387207,0.4496888816356659,0.28944772481918335,0.42927122116088867,1.0617249011993408,0.41408348083496094,0.2578596770763397,0.5085887312889099,1.0900574922561646,0.4863484799861908,0.2489003837108612,0.4360697567462921,1.0799753665924072,0.4496411085128784,0.1367226243019104,0.5487114787101746,1.1410346031188965,0.18087726831436157,0.2071293145418167,0.43943095207214355,1.1375646591186523,0.10144729912281036,0.18952801823616028
14153.708641865427,0.470223993062973,0.27409055829048157,-0.6545757055282593,0.9996013045310974,0.4803786277770996,0.25303828716278076,-0.6141811609268188,0.9992122650146484,0.48914921283721924,0.25258737802505493,-0.6144626140594482,0.9992234706878662,0.4988379180431366,0.2522299289703369,-0.6146762371063232,0.9991581439971924,0.4489932954311371,0.2537032961845398,-0.6236101984977722,0.9987857937812805,0.4342750608921051,0.253997802734375,-0.6237438321113586,0.9987577199935913,0.42082494497299194,0.2545892894268036,-0.6239241361618042,0.9985448122024536,0.5030925869941711,0.25907254219055176,-0.32143932580947876,0.9992545247077942,0.39356529712677,0.2628837823867798,-0.3728545606136322,0.9979987740516663,0.48231714963912964,0.2957782745361328,-0.5401400327682495,0.9996728897094727,0.4438871741294861,0.29828864336013794,-0.5547218918800354,0.9994587302207947,0.5818724036216736,0.3777872920036316,-0.1350703239440918,0.9998297691345215,0.30977171659469604,0.38306012749671936,-0.20448364317417145,0.998843789100647,0.6037352681159973,0.5321118831634521,0.0031663738191127777,0.9534496068954468,0.2929350733757019,0.5557222962379456,-0.4926757514476776,0.9463106989860535,0.6471876502037048,0.6629600524902344,-0.20539037883281708,0.9587268829345703,0.3054658770561218,0.4525005519390106,-1.112877368927002,0.9845798015594482,0.6591683030128479,0.7074680924415588,-0.25904184579849243,0.9299456477165222,0.30852246284484863,0.42774826288223267,-1.221369743347168,0.9759075045585632,0.6503446698188782,0.7097993493080139,-0.3320898711681366,0.9363198280334473,0.30446285009384155,0.40822574496269226,-1.2467331886291504,0.9758071303367615,0.6405396461486816,0.7003579139709473,-0.23494520783424377,0.9386493563652039,0.3078308701515198,0.41250741481781006,-1.1348836421966553,0.9685331583023071,0.5522027015686035,0.6590961813926697,0.03661537915468216,0.9967942833900452,0.39705851674079895,0.6696564555168152,-0.03652874752879143,0.9936023354530334,0.5431051254272461,0.8790160417556763,-0.09828449040651321,0.5960146188735962,0.41501182317733765,0.8744440078735352,-0.07242439687252045,0.5108420252799988,0.5214810371398926,1.0302207469940186,0.4422471225261688,0.24233445525169373,0.42832151055336,1.058823823928833,0.4173913598060608,0.2149530053138733,0.5169532895088196,1.0847065448760986,0.47811320424079895,0.22287015616893768,0.43470299243927,1.0765376091003418,0.45401445031166077,0.11743571609258652,0.5610954761505127,1.1334922313690186,0.18818706274032593,0.17817829549312592,0.44002002477645874,1.1345032453536987,0.11875663697719574,0.1601826250553131
14170.375308532093,0.4691215455532074,0.2769511938095093,-0.7143389582633972,0.9997856020927429,0.4800863564014435,0.2547633945941925,-0.6789475679397583,0.9995724558830261,0.48883819580078125,0.25420060753822327,-0.6792163848876953,0.9995834231376648,0.498686820268631,0.25388020277023315,-0.6794465780258179,0.9995318651199341,0.4480670392513275,0.2555977702140808,-0.6862502694129944,0.9993489384651184,0.43341508507728577,0.2558780610561371,-0.6863746643066406,0.9993329644203186,0.4199807345867157,0.2564904987812042,-0.6865226030349731,0.9992331266403198,0.5045478940010071,0.26013511419296265,-0.390961229801178,0.9995908141136169,0.3945694863796234,0.2631763219833374,-0.4317692220211029,0.9989153146743774,0.4814174771308899,0.2985013723373413,-0.599387526512146,0.9998144507408142,0.4417537748813629,0.3011426031589508,-0.6109952926635742,0.9997069239616394,0.5830689072608948,0.3769882023334503,-0.19000892341136932,0.9998838901519775,0.31018996238708496,0.38264650106430054,-0.22498877346515656,0.9992233514785767,0.6016013622283936,0.5324310660362244,-0.039029840379953384,0.957365870475769,0.290322482585907,0.5591408610343933,-0.46726691722869873,0.9450299143791199,0.6470459699630737,0.6641095280647278,-0.2598945200443268,0.9570974707603455,0.30599045753479004,0.4624021351337433,-1.0844427347183228,0.9874118566513062,0.6587316393852234,0.7077925801277161,-0.3170476257801056,0.9261695146560669,0.3083118796348572,0.43265241384506226,-1.190976619720459,0.9798882603645325,0.6508916616439819,0.7109780311584473,-0.3932761251926422,0.9335214495658875,0.302163302898407,0.41167160868644714,-1.2178062200546265,0.9797422289848328,0.6412845849990845,0.7005913257598877,-0.29087579250335693,0.9362739324569702,0.30611252784729004,0.41641825437545776,-1.1057981252670288,0.9728050827980042,0.5509135127067566,0.6512859463691711,0.02691066265106201,0.9964928030967712,0.39797067642211914,0.6622539758682251,-0.026902055367827415,0.9930258989334106,0.5462521314620972,0.8722640872001648,-0.10499674826860428,0.6208127737045288,0.41254568099975586,0.8675797581672668,-0.06606816500425339,0.5552521347999573,0.5330881476402283,1.0619006156921387,0.4382772743701935,0.2679331600666046,0.4266946613788605,1.054151177406311,0.4085155427455902,0.25023242831230164,0.5195254683494568,1.0821952819824219,0.47389283776283264,0.21994760632514954,0.43285560607910156,1.0719945430755615,0.4435104727745056,0.1315464824438095,0.5566444396972656,1.1323251724243164,0.17658092081546783,0.187946155667305,0.4377889335155487,1.1299233436584473,0.10730214416980743,0.17562487721443176
14187.04197519876,0.47118499875068665,0.2740510404109955,-0.6597787737846375,0.9995920062065125,0.48153117299079895,0.2530747652053833,-0.6204215884208679,0.9992092847824097,0.49004244804382324,0.25271761417388916,-0.6206991076469421,0.9992251396179199,0.4994843304157257,0.2525085508823395,-0.6209128499031067,0.9991497993469238,0.45026475191116333,0.25339582562446594,-0.6299831867218018,0.9987930059432983,0.4358556866645813,0.2535111904144287,-0.6301290392875671,0.9987710118293762,0.422492653131485,0.2539808452129364,-0.6303086876869202,0.9985846281051636,0.5035260915756226,0.25938209891319275,-0.32867753505706787,0.9992421865463257,0.395659476518631,0.2625017464160919,-0.37907928228378296,0.998019814491272,0.48310935497283936,0.29533982276916504,-0.5451794862747192,0.9996775388717651,0.44407933950424194,0.2977541387081146,-0.559441328048706,0.9994914531707764,0.5825600028038025,0.376316100358963,-0.134208083152771,0.999847412109375,0.31093794107437134,0.3821306526660919,-0.20374302566051483,0.9989194869995117,0.60164874792099,0.530187726020813,0.002173631452023983,0.9560248851776123,0.29359161853790283,0.5604774355888367,-0.47232577204704285,0.9479478001594543,0.6472718715667725,0.6620731949806213,-0.21894119679927826,0.9596201777458191,0.30811721086502075,0.4577738046646118,-1.0819891691207886,0.9868979454040527,0.6603670120239258,0.7057963609695435,-0.27691543102264404,0.9291686415672302,0.3116302788257599,0.43124040961265564,-1.1897512674331665,0.9788451790809631,0.6494648456573486,0.7086348533630371,-0.3491543233394623,0.9361146092414856,0.3053853511810303,0.4089333415031433,-1.2158091068267822,0.9787597060203552,0.6389352083206177,0.6986404061317444,-0.24874186515808105,0.9381964802742004,0.3083617389202118,0.4131743013858795,-1.1033082008361816,0.9716179370880127,0.5498733520507812,0.65263831615448,0.042540717869997025,0.9968854784965515,0.3960919678211212,0.662007749080658,-0.04250166565179825,0.9936550855636597,0.5458656549453735,0.8699628710746765,-0.11066610366106033,0.6236816048622131,0.41178053617477417,0.8667879700660706,-0.08386296778917313,0.5364059209823608,0.5311673879623413,1.060699224472046,0.44145894050598145,0.2720955014228821,0.41952377557754517,1.0533379316329956,0.4172719717025757,0.23880259692668915,0.5149379968643188,1.0808753967285156,0.4782131314277649,0.22863203287124634,0.424352765083313,1.0708163976669312,0.4544195830821991,0.11574231833219528,0.560757040977478,1.1307125091552734,0.17780588567256927,0.19503259658813477,0.4348759055137634,1.1287827491760254,0.11055848747491837,0.1738085299730301
14203.708641865425,0.47069984674453735,0.27889150381088257,-0.5860322117805481,0.9995817542076111,0.47990882396698,0.2575523555278778,-0.5483167171478271,0.9992389678955078,0.4878484904766083,0.2570236921310425,-0.5486002564430237,0.9992433786392212,0.49742037057876587,0.25664222240448,-0.5488442182540894,0.9992102384567261,0.4500907361507416,0.25794243812561035,-0.5586630702018738,0.9988328814506531,0.436187744140625,0.25798043608665466,-0.5587823390960693,0.9987789988517761,0.42291781306266785,0.25842323899269104,-0.5589117407798767,0.9986207485198975,0.501610517501831,0.2620112895965576,-0.2608843743801117,0.9993175268173218,0.39537039399147034,0.2664888799190521,-0.3140195608139038,0.9982576966285706,0.48289939761161804,0.29890120029449463,-0.47205832600593567,0.9996622800827026,0.4443073570728302,0.301784873008728,-0.4869837462902069,0.9994556307792664,0.5793868899345398,0.3744575083255768,-0.06885704398155212,0.9998670816421509,0.3150519132614136,0.382682740688324,-0.14799202978610992,0.9991230368614197,0.5992254018783569,0.5270213484764099,0.06156488507986069,0.9417493939399719,0.29408881068229675,0.5522863864898682,-0.4168287515640259,0.9425143003463745,0.6426007151603699,0.6603060960769653,-0.15205328166484833,0.9399994015693665,0.310767263174057,0.4513252377510071,-1.0087764263153076,0.9829797744750977,0.655579149723053,0.702851414680481,-0.2089882493019104,0.9016526341438293,0.31319934129714966,0.4227621555328369,-1.1150270700454712,0.9724000096321106,0.6477388143539429,0.7071962356567383,-0.28066393733024597,0.911560595035553,0.3089526891708374,0.4043784737586975,-1.1415835618972778,0.9723372459411621,0.6380902528762817,0.695820152759552,-0.18243823945522308,0.9152901768684387,0.31348559260368347,0.4097523093223572,-1.0307886600494385,0.9644249677658081,0.5487725734710693,0.6500735282897949,0.042701903730630875,0.9968840479850769,0.3980787396430969,0.6582213640213013,-0.042536552995443344,0.993850827217102,0.5434694290161133,0.8687036633491516,-0.12221687287092209,0.6301789283752441,0.4134956896305084,0.8665168285369873,-0.09920266270637512,0.536540150642395,0.5319821238517761,1.0655900239944458,0.3672138750553131,0.285650372505188,0.42490604519844055,1.0563509464263916,0.3504432737827301,0.2419259399175644,0.5158374309539795,1.0866740942001343,0.39780834317207336,0.23364222049713135,0.4311191439628601,1.0747709274291992,0.3822358548641205,0.1180119439959526,0.5631241798400879,1.133586049079895,0.09854590892791748,0.1943512111902237,0.43770265579223633,1.1309340000152588,0.0457887127995491,0.17380094528198242
14220.375308532091,0.47198015451431274,0.2763979136943817,-0.653393566608429,0.9995197057723999,0.48186546564102173,0.2546457350254059,-0.6126224994659424,0.9991312623023987,0.4910399615764618,0.25415974855422974,-0.6129263043403625,0.9991474151611328,0.5005515217781067,0.2538067102432251,-0.6131879687309265,0.9990682005882263,0.4515620470046997,0.2554115653038025,-0.624327540397644,0.998668909072876,0.43696266412734985,0.2559325695037842,-0.6244724988937378,0.9986609220504761,0.4235866963863373,0.2567236125469208,-0.6246444582939148,0.99845290184021,0.5045739412307739,0.25994130969047546,-0.3075709939002991,0.999244213104248,0.3955603837966919,0.2663086950778961,-0.36777064204216003,0.9981208443641663,0.4847228527069092,0.2967838943004608,-0.5326348543167114,0.9996278285980225,0.4462299644947052,0.29994410276412964,-0.5498296618461609,0.9994127750396729,0.5787692070007324,0.37593889236450195,-0.10303067415952682,0.9998279809951782,0.31175675988197327,0.383323609828949,-0.1852102130651474,0.9987329840660095,0.6008715629577637,0.5272389054298401,0.04390163719654083,0.9377795457839966,0.2929959297180176,0.5592318177223206,-0.46532848477363586,0.9371964931488037,0.644221305847168,0.6596953272819519,-0.17007161676883698,0.9405044913291931,0.3118904232978821,0.4572545289993286,-1.081804633140564,0.9816053509712219,0.6573897004127502,0.7009204030036926,-0.22605784237384796,0.9045462608337402,0.3155900835990906,0.4314468204975128,-1.1919437646865845,0.9710893630981445,0.6486049294471741,0.7042474150657654,-0.3007224500179291,0.9142078757286072,0.3124098777770996,0.4103473126888275,-1.217031478881836,0.9710302352905273,0.6387965083122253,0.6943747997283936,-0.20101028680801392,0.9167941808700562,0.3157505393028259,0.41470086574554443,-1.1031670570373535,0.9620359539985657,0.5510530471801758,0.6576860547065735,0.03800840675830841,0.9963359832763672,0.3964768648147583,0.6664832234382629,-0.03786008059978485,0.9924410581588745,0.5422254204750061,0.8767289519309998,-0.11330379545688629,0.632394552230835,0.409090518951416,0.8737101554870605,-0.08435909450054169,0.524345338344574,0.5295503735542297,1.0685797929763794,0.44889453053474426,0.26083844900131226,0.41844144463539124,1.0312424898147583,0.4108651876449585,0.23085927963256836,0.515555739402771,1.088958740234375,0.48660680651664734,0.222612664103508,0.427966445684433,1.0803608894348145,0.44732508063316345,0.11824417859315872,0.5542524456977844,1.1375031471252441,0.1852104812860489,0.17935356497764587,0.43496593832969666,1.1367906332015991,0.1009100079536438,0.16457174718379974
14237.041975198757,0.47332239151000977,0.2775128483772278,-0.6305022239685059,0.9997088313102722,0.4822896420955658,0.2564311921596527,-0.5913909673690796,0.9994588494300842,0.49174267053604126,0.25576162338256836,-0.591662585735321,0.9994611144065857,0.5010021924972534,0.25517937541007996,-0.5918971300125122,0.9994288086891174,0.45325610041618347,0.25742292404174805,-0.6040446162223816,0.9991612434387207,0.43912607431411743,0.25762051343917847,-0.6041706204414368,0.9991242289543152,0.42572832107543945,0.2581305503845215,-0.604285478591919,0.9989843964576721,0.5052461624145508,0.2603982090950012,-0.2968136966228485,0.9995009899139404,0.39764320850372314,0.2665344774723053,-0.3624245822429657,0.9987315535545349,0.4860336184501648,0.29772186279296875,-0.5139439105987549,0.9997596144676208,0.44826650619506836,0.30067238211631775,-0.5324695110321045,0.9996137022972107,0.5788202285766602,0.37406376004219055,-0.10053902864456177,0.9998983144760132,0.31410345435142517,0.38142040371894836,-0.19254061579704285,0.9991734623908997,0.5993180871009827,0.5261237621307373,0.04443485662341118,0.9529651403427124,0.29450953006744385,0.5539840459823608,-0.46332982182502747,0.9501500725746155,0.643679141998291,0.659303605556488,-0.16292285919189453,0.9579793810844421,0.31304898858070374,0.45429134368896484,-1.054917335510254,0.984643816947937,0.6567654609680176,0.7013928294181824,-0.21851857006549835,0.9282844662666321,0.3173711895942688,0.42876869440078735,-1.1613996028900146,0.9749056696891785,0.6486415863037109,0.7052202224731445,-0.29103782773017883,0.9354333281517029,0.3133036196231842,0.4085150361061096,-1.1866545677185059,0.9747816324234009,0.6393228769302368,0.6938981413841248,-0.1929321140050888,0.9372897148132324,0.3169676959514618,0.41347554326057434,-1.0760316848754883,0.9674538969993591,0.5489128828048706,0.6495735049247742,0.04500351846218109,0.9974222183227539,0.39742472767829895,0.6593329310417175,-0.04487741366028786,0.994592010974884,0.5454718470573425,0.8694371581077576,-0.10349339246749878,0.634148359298706,0.4151018261909485,0.8682863116264343,-0.0849832072854042,0.5325279235839844,0.5332435369491577,1.0598443746566772,0.41283419728279114,0.27411985397338867,0.4275582730770111,1.0521985292434692,0.39359763264656067,0.2303754836320877,0.517081081867218,1.0802074670791626,0.44675853848457336,0.2340906411409378,0.4334999918937683,1.069529414176941,0.42895880341529846,0.11371297389268875,0.5656707286834717,1.128703236579895,0.1537502259016037,0.1910085678100586,0.44206541776657104,1.1280717849731445,0.09317657351493835,0.16604872047901154
14253.708641865423,0.46969902515411377,0.27768024802207947,-0.6863125562667847,0.9994913339614868,0.4808622896671295,0.25583818554878235,-0.6491876244544983,0.9990687966346741,0.4899771809577942,0.2554783225059509,-0.6494796872138977,0.9990895986557007,0.4992809593677521,0.25524404644966125,-0.649723470211029,0.9989967942237854,0.4499487280845642,0.25564324855804443,-0.6591144800186157,0.9985902905464172,0.435699462890625,0.2555071711540222,-0.6592603921890259,0.9985723495483398,0.4231158494949341,0.2555936276912689,-0.6594808101654053,0.9983797073364258,0.5034292340278625,0.26117873191833496,-0.35127952694892883,0.9991311430931091,0.39698082208633423,0.26380324363708496,-0.40346479415893555,0.9978298544883728,0.482013076543808,0.29764649271965027,-0.5672782063484192,0.9995960593223572,0.4424569010734558,0.2994627058506012,-0.5822579860687256,0.9993884563446045,0.5806730389595032,0.376842737197876,-0.14507341384887695,0.9998040795326233,0.3109903037548065,0.38049250841140747,-0.21429017186164856,0.9987226128578186,0.6006216406822205,0.5296911001205444,-0.01044093444943428,0.9481520056724548,0.2936674654483795,0.5557640790939331,-0.4895554482936859,0.9367675185203552,0.6456974744796753,0.6620180606842041,-0.2410375326871872,0.9513404369354248,0.3100436329841614,0.46379321813583374,-1.10785973072052,0.982684314250946,0.6592027544975281,0.7034555077552795,-0.29983389377593994,0.9171507954597473,0.3157673478126526,0.43790990114212036,-1.2152684926986694,0.9730221629142761,0.648730993270874,0.7067923545837402,-0.3739646077156067,0.9254505634307861,0.3110794425010681,0.41681528091430664,-1.240116834640503,0.9728829264640808,0.638634979724884,0.6957767009735107,-0.2714318335056305,0.9269736409187317,0.3145778477191925,0.4205821752548218,-1.1281334161758423,0.9636979699134827,0.5472053289413452,0.6559247374534607,0.03939273580908775,0.9950538873672485,0.3925395905971527,0.6639469861984253,-0.03934363275766373,0.9908588528633118,0.5413731932640076,0.878188967704773,-0.1056893989443779,0.5885007381439209,0.40832626819610596,0.874272346496582,-0.10329274833202362,0.5281171798706055,0.5279037952423096,1.0654691457748413,0.4471173584461212,0.2461727112531662,0.4204668402671814,1.0364071130752563,0.36521056294441223,0.23025141656398773,0.5132338404655457,1.0859346389770508,0.483464777469635,0.21687398850917816,0.4237046539783478,1.0774588584899902,0.3987473249435425,0.11333116888999939,0.5543332099914551,1.1345258951187134,0.18287041783332825,0.17253001034259796,0.4352736473083496,1.1339980363845825,0.05007567256689072,0.1613757610321045
14270.37530853209,0.475517600774765,0.2804255783557892,-0.7052507400512695,0.9997333884239197,0.48583683371543884,0.25803089141845703,-0.6689155101776123,0.9994717240333557,0.4949948489665985,0.25766465067863464,-0.6691654324531555,0.9994766116142273,0.5035409331321716,0.25739601254463196,-0.6693865060806274,0.9994327425956726,0.4562487006187439,0.25794658064842224,-0.6806153655052185,0.9991764426231384,0.441668838262558,0.25783848762512207,-0.6807488799095154,0.9991497993469238,0.4280720055103302,0.258006751537323,-0.6808883547782898,0.999018669128418,0.5054036974906921,0.26258960366249084,-0.37490224838256836,0.9994970560073853,0.3977566063404083,0.26553967595100403,-0.43726029992103577,0.9986170530319214,0.48655080795288086,0.30101272463798523,-0.5875300765037537,0.9997597336769104,0.44812095165252686,0.30256277322769165,-0.6053078174591064,0.9996059536933899,0.5787737369537354,0.37586280703544617,-0.1712612807750702,0.9998902082443237,0.31016790866851807,0.3804011344909668,-0.2450326681137085,0.9991187453269958,0.6014577150344849,0.5284428596496582,-0.006564732175320387,0.9581642150878906,0.2948450446128845,0.5569002628326416,-0.5035234093666077,0.9464269280433655,0.6464955806732178,0.6593611240386963,-0.2067587673664093,0.9638620615005493,0.31099605560302734,0.46064671874046326,-1.1074126958847046,0.9853907823562622,0.6596085429191589,0.700074315071106,-0.2575168013572693,0.9374597072601318,0.31526246666908264,0.43420225381851196,-1.2122021913528442,0.9768831729888916,0.651067852973938,0.702572762966156,-0.33370983600616455,0.9433118104934692,0.31035563349723816,0.41356632113456726,-1.2385514974594116,0.9767512083053589,0.6412227153778076,0.693384051322937,-0.23699256777763367,0.9451392292976379,0.3140162527561188,0.41765207052230835,-1.1286669969558716,0.9695037603378296,0.5499272346496582,0.6502876877784729,0.03599533811211586,0.996903121471405,0.3972195088863373,0.6586567163467407,-0.035958826541900635,0.9937799572944641,0.5384689569473267,0.870355486869812,-0.09768050163984299,0.6386969685554504,0.41244328022003174,0.8636424541473389,-0.08088789135217667,0.5570843815803528,0.5234960317611694,1.0488908290863037,0.45612436532974243,0.2735750377178192,0.4147098660469055,1.0178277492523193,0.40401703119277954,0.25253918766975403,0.5086033344268799,1.0676709413528442,0.49391427636146545,0.23433338105678558,0.43511489033699036,1.0616941452026367,0.4406701326370239,0.12923668324947357,0.5505819916725159,1.1204973459243774,0.20883122086524963,0.2004483938217163,0.4426586627960205,1.1227195262908936,0.10802627354860306,0.18345476686954498
14287.041975198756,0.47527948021888733,0.2817193269729614,-0.7080273628234863,0.9997034668922424,0.4855958819389343,0.2595313787460327,-0.67269366979599,0.999396562576294,0.49462637305259705,0.25917014479637146,-0.6729387044906616,0.9994044303894043,0.5031529068946838,0.25887954235076904,-0.6731473803520203,0.9993502497673035,0.4558284878730774,0.25929856300354004,-0.684226930141449,0.9990733861923218,0.44119131565093994,0.2590404450893402,-0.6843647956848145,0.9990515112876892,0.4276238679885864,0.2591119408607483,-0.6845147013664246,0.9989076852798462,0.5051906704902649,0.2636827826499939,-0.3809337913990021,0.9994087219238281,0.39779117703437805,0.2663390338420868,-0.44288507103919983,0.9984239339828491,0.4866292178630829,0.3021790087223053,-0.590944766998291,0.9997231364250183,0.44801458716392517,0.3038118779659271,-0.6085843443870544,0.9995560050010681,0.5792202949523926,0.37636950612068176,-0.17708413302898407,0.9998775720596313,0.31015557050704956,0.38107362389564514,-0.24882428348064423,0.9991078972816467,0.6016191840171814,0.5279111862182617,-0.016995767131447792,0.9569100141525269,0.29432666301727295,0.5566141605377197,-0.5052392482757568,0.9455747604370117,0.6468682289123535,0.6595516800880432,-0.22456350922584534,0.9626203775405884,0.3094536066055298,0.46148136258125305,-1.1102406978607178,0.9848435521125793,0.6597668528556824,0.7001380324363708,-0.2761833071708679,0.9353828430175781,0.3130820095539093,0.43567222356796265,-1.2145150899887085,0.9762816429138184,0.6510474681854248,0.7027471661567688,-0.3524234890937805,0.9414860010147095,0.30839860439300537,0.4143696129322052,-1.241288661956787,0.9762037992477417,0.6411221027374268,0.6937045454978943,-0.25508952140808105,0.9434869885444641,0.3123204708099365,0.4183950424194336,-1.1316949129104614,0.9688462615013123,0.5505043864250183,0.649272620677948,0.03628818318247795,0.9965698719024658,0.3979640007019043,0.6574812531471252,-0.03626653179526329,0.9934706687927246,0.5372179746627808,0.8709056973457336,-0.09004031121730804,0.6235592365264893,0.41246849298477173,0.8637557029724121,-0.08649986237287521,0.5633124709129333,0.5226557850837708,1.0469433069229126,0.4614330232143402,0.27348122000694275,0.4149748384952545,1.0191020965576172,0.38864579796791077,0.2600952982902527,0.5074788331985474,1.0656410455703735,0.49907687306404114,0.24021385610103607,0.43350520730018616,1.0603587627410889,0.42432481050491333,0.13340230286121368,0.5510008335113525,1.11818265914917,0.21589607000350952,0.2040237933397293,0.4426330029964447,1.1216579675674438,0.09186140447854996,0.18921080231666565
14303.708641865422,0.47574567794799805,0.27962255477905273,-0.6668723225593567,0.9996845722198486,0.4862275719642639,0.25720712542533875,-0.6295333504676819,0.9994038343429565,0.4955521821975708,0.25689560174942017,-0.6298043131828308,0.9994082450866699,0.5040523409843445,0.2567211389541626,-0.6300482153892517,0.9993614554405212,0.4567035138607025,0.25698524713516235,-0.6417537331581116,0.9990687966346741,0.44201016426086426,0.25690600275993347,-0.6418725848197937,0.9990301132202148,0.4283548891544342,0.2570863664150238,-0.642009973526001,0.9988862872123718,0.5058814883232117,0.2622261643409729,-0.33331456780433655,0.9994470477104187,0.3979399502277374,0.2648625373840332,-0.3977918326854706,0.9985259175300598,0.48680275678634644,0.3003181517124176,-0.5483911037445068,0.999733030796051,0.44812315702438354,0.3017194867134094,-0.5667681097984314,0.99957674741745,0.5779227614402771,0.3762362599372864,-0.13397377729415894,0.9998798370361328,0.30954408645629883,0.38062843680381775,-0.20664958655834198,0.999041736125946,0.6002079844474792,0.528136670589447,0.021884804591536522,0.9532976150512695,0.2942155599594116,0.5559285879135132,-0.46491700410842896,0.9385262727737427,0.6464173793792725,0.6604903340339661,-0.1868446320295334,0.9581815004348755,0.31047362089157104,0.46251219511032104,-1.0693340301513672,0.9832806587219238,0.6599748134613037,0.7016916275024414,-0.24120354652404785,0.9292673468589783,0.31388622522354126,0.4371819794178009,-1.1748439073562622,0.9740361571311951,0.6506741046905518,0.7043985724449158,-0.3170258402824402,0.9361328482627869,0.3090277910232544,0.41556280851364136,-1.2023341655731201,0.9739635586738586,0.6408615708351135,0.6951301693916321,-0.21761111915111542,0.938407301902771,0.3128962516784668,0.4191567003726959,-1.0910826921463013,0.9660496115684509,0.5492361187934875,0.652205228805542,0.03731440380215645,0.9967373013496399,0.39647194743156433,0.6605631113052368,-0.03723253682255745,0.9931440353393555,0.5380598306655884,0.875557541847229,-0.1118922308087349,0.6492451429367065,0.4095255434513092,0.8685851693153381,-0.08401040732860565,0.5515978932380676,0.523024320602417,1.0579549074172974,0.43729761242866516,0.2746903598308563,0.4316086769104004,1.0510770082473755,0.40350669622421265,0.24744321405887604,0.5075837969779968,1.077594518661499,0.4741881191730499,0.2344513088464737,0.43839457631111145,1.068232536315918,0.43985921144485474,0.12584713101387024,0.5508136749267578,1.1289644241333008,0.18423643708229065,0.19571562111377716,0.44546186923980713,1.1276923418045044,0.10481855273246765,0.17856153845787048
14320.375308532088,0.47425130009651184,0.2777262032032013,-0.7119593024253845,0.999725878238678,0.4842745065689087,0.2558274269104004,-0.6753332018852234,0.9994547963142395,0.49344122409820557,0.2554953396320343,-0.6756044626235962,0.9994716048240662,0.5025048851966858,0.2552683353424072,-0.6758520007133484,0.9994053840637207,0.45460212230682373,0.255774587392807,-0.6875572800636292,0.9992080330848694,0.44010692834854126,0.2558893859386444,-0.6877063512802124,0.9992026686668396,0.42659419775009155,0.2561638653278351,-0.6878629326820374,0.9990634322166443,0.5048301219940186,0.2610965967178345,-0.37696006894111633,0.9994823932647705,0.39747917652130127,0.2640482485294342,-0.44119134545326233,0.9987838864326477,0.4852868914604187,0.29825448989868164,-0.5920212864875793,0.999764621257782,0.4464176893234253,0.300275981426239,-0.6104404926300049,0.9996460676193237,0.5775156021118164,0.3757867217063904,-0.16321289539337158,0.9998745918273926,0.3087072968482971,0.3813241124153137,-0.23863089084625244,0.9991205334663391,0.6023422479629517,0.528704047203064,0.008615626022219658,0.9546591639518738,0.29456645250320435,0.5580824613571167,-0.48317083716392517,0.9387821555137634,0.645584762096405,0.6595788598060608,-0.19930894672870636,0.9548155069351196,0.31295979022979736,0.46938401460647583,-1.0925922393798828,0.9825063943862915,0.6591951847076416,0.7007990479469299,-0.2521960735321045,0.924041748046875,0.3197537660598755,0.44283896684646606,-1.1977248191833496,0.9730241894721985,0.6491977572441101,0.703430712223053,-0.3294212520122528,0.9317794442176819,0.313355028629303,0.42132920026779175,-1.2260996103286743,0.9729740023612976,0.639147162437439,0.6940944194793701,-0.2300911843776703,0.9336759448051453,0.3170253038406372,0.42590028047561646,-1.11398446559906,0.9641639590263367,0.5502006411552429,0.6505738496780396,0.037451066076755524,0.996537446975708,0.39663442969322205,0.6596115231513977,-0.03741874918341637,0.9928186535835266,0.542400062084198,0.8727051019668579,-0.11690903455018997,0.6547630429267883,0.41058191657066345,0.865658700466156,-0.07874932140111923,0.5528755187988281,0.5274984836578369,1.0600969791412354,0.4338528513908386,0.27906930446624756,0.42434751987457275,1.0524665117263794,0.4176104962825775,0.2524570822715759,0.5121321678161621,1.0801721811294556,0.4704558551311493,0.23630142211914062,0.43017375469207764,1.0700305700302124,0.4544081687927246,0.1262580156326294,0.5552898645401001,1.1309419870376587,0.17468176782131195,0.1969803124666214,0.43640610575675964,1.1285734176635742,0.11368147283792496,0.1790795624256134
14337.041975198754,0.4745612144470215,0.27412745356559753,-0.6408747434616089,0.9996024966239929,0.48439300060272217,0.2535160481929779,-0.6001553535461426,0.9992817044258118,0.493975967168808,0.25326037406921387,-0.6004529595375061,0.9992901086807251,0.5030277371406555,0.2531294822692871,-0.6006986498832703,0.999228835105896,0.45497041940689087,0.25345513224601746,-0.6130232810974121,0.9989191293716431,0.4408595561981201,0.25364822149276733,-0.6131643056869507,0.9989056587219238,0.42795515060424805,0.2540300786495209,-0.6133403182029724,0.9987305998802185,0.5058045387268066,0.2597227394580841,-0.2980079650878906,0.999326229095459,0.399188369512558,0.26316508650779724,-0.36494436860084534,0.9984074234962463,0.48661571741104126,0.2952969968318939,-0.5214592814445496,0.999687910079956,0.4484580457210541,0.29676324129104614,-0.5405397415161133,0.9995259046554565,0.5779039859771729,0.37651145458221436,-0.09811187535524368,0.9998546838760376,0.31146013736724854,0.3815445601940155,-0.18684598803520203,0.9988580942153931,0.6004689931869507,0.5277596712112427,0.04300260543823242,0.9488446116447449,0.2930596172809601,0.5580087900161743,-0.46847566962242126,0.9405416250228882,0.6457771062850952,0.6598701477050781,-0.18205589056015015,0.9563296437263489,0.31223735213279724,0.4635612368583679,-1.082712173461914,0.9820591807365417,0.6598762273788452,0.7021615505218506,-0.239678293466568,0.9266393184661865,0.31799715757369995,0.43736881017684937,-1.190912127494812,0.971479058265686,0.6490916609764099,0.7054049968719482,-0.3137909770011902,0.9345110058784485,0.3128169775009155,0.4167829751968384,-1.2163809537887573,0.9714533090591431,0.6392049789428711,0.6953562498092651,-0.2127944678068161,0.9351547360420227,0.31614768505096436,0.4212373197078705,-1.1036113500595093,0.9626395106315613,0.550310492515564,0.6527867317199707,0.043700579553842545,0.996467113494873,0.39783990383148193,0.6632565259933472,-0.043608348816633224,0.9928197264671326,0.5441160798072815,0.8741257786750793,-0.11917518079280853,0.6260088682174683,0.41223427653312683,0.8721616268157959,-0.10248252749443054,0.5261378288269043,0.5292096138000488,1.066115379333496,0.43437764048576355,0.26023879647254944,0.4255847632884979,1.0587425231933594,0.38196471333503723,0.23285187780857086,0.5130006670951843,1.0866106748580933,0.47117742896080017,0.22922639548778534,0.4305742383003235,1.0766133069992065,0.41720879077911377,0.11391886323690414,0.5595526099205017,1.1352462768554688,0.1731194257736206,0.18170440196990967,0.44135040044784546,1.1337125301361084,0.07265952974557877,0.16608938574790955
14353.70864186542,0.4744279682636261,0.27441057562828064,-0.6758764982223511,0.9995444416999817,0.4861014187335968,0.25309517979621887,-0.6364813446998596,0.9991815686225891,0.49645674228668213,0.25283145904541016,-0.6367741227149963,0.999201238155365,0.5053501725196838,0.25278040766716003,-0.6370245814323425,0.99915611743927,0.45515885949134827,0.253198504447937,-0.6494423747062683,0.9987278580665588,0.4406784176826477,0.2534296214580536,-0.6495813131332397,0.9986876845359802,0.4277810752391815,0.2539554536342621,-0.6497601866722107,0.998451828956604,0.508611261844635,0.2597905099391937,-0.33769384026527405,0.9992462396621704,0.39848801493644714,0.26356661319732666,-0.4052901864051819,0.9979342222213745,0.4871689975261688,0.2961297035217285,-0.5574554800987244,0.999627947807312,0.447428822517395,0.2975788414478302,-0.576770544052124,0.9993791580200195,0.5777019262313843,0.37625905871391296,-0.14022307097911835,0.9998384714126587,0.31131985783576965,0.3827255964279175,-0.22343197464942932,0.9984985589981079,0.5977464914321899,0.5287354588508606,0.0037677516229450703,0.950550377368927,0.29469332098960876,0.5570371150970459,-0.5036618113517761,0.9269039630889893,0.6436759233474731,0.6598193645477295,-0.21185508370399475,0.9568967819213867,0.31380385160446167,0.4595690965652466,-1.1109123229980469,0.975983202457428,0.6582295894622803,0.7022796869277954,-0.26661238074302673,0.927567720413208,0.3191269338130951,0.43417099118232727,-1.2167246341705322,0.9636817574501038,0.6479796767234802,0.7059709429740906,-0.34145376086235046,0.9350365996360779,0.3153689503669739,0.4139918088912964,-1.2419979572296143,0.9634285569190979,0.6379308104515076,0.6953175663948059,-0.24217811226844788,0.9358881711959839,0.3189302682876587,0.4179615378379822,-1.1318196058273315,0.9528533220291138,0.5489735007286072,0.6538716554641724,0.04052000120282173,0.9957939386367798,0.3942885398864746,0.6624992489814758,-0.040412794798612595,0.991430938243866,0.5410915017127991,0.875763475894928,-0.10290087759494781,0.6086208820343018,0.407945454120636,0.8721675276756287,-0.09109967201948166,0.5229871273040771,0.5270112156867981,1.0654879808425903,0.4217136800289154,0.25424256920814514,0.4219572842121124,1.0579181909561157,0.37313348054885864,0.22402746975421906,0.5116877555847168,1.0863451957702637,0.45550286769866943,0.22324919700622559,0.42759355902671814,1.0757601261138916,0.40648388862609863,0.11267337203025818,0.5570528507232666,1.1346831321716309,0.1598769575357437,0.17644457519054413,0.43560701608657837,1.133757472038269,0.06490901857614517,0.15768025815486908
14370.375308532086,0.4783889651298523,0.2753276228904724,-0.6365851759910583,0.9996392726898193,0.48962515592575073,0.25411954522132874,-0.5957229733467102,0.9993531107902527,0.49860525131225586,0.25378549098968506,-0.5959686040878296,0.9993225336074829,0.5059571862220764,0.2536005675792694,-0.5961670875549316,0.9993079900741577,0.4607003629207611,0.25385382771492004,-0.6117346882820129,0.9989758729934692,0.44634029269218445,0.2537626326084137,-0.6118530631065369,0.9988993406295776,0.43193402886390686,0.2537463307380676,-0.6119970083236694,0.9987649917602539,0.5058873891830444,0.2592947483062744,-0.29863759875297546,0.9993508458137512,0.3998205065727234,0.26138120889663696,-0.3803332448005676,0.9982708692550659,0.48882174491882324,0.295735239982605,-0.5198176503181458,0.9997015595436096,0.4518738090991974,0.2974013388156891,-0.5430811047554016,0.9995094537734985,0.5775589346885681,0.3766363561153412,-0.10575594007968903,0.9998656511306763,0.3083958029747009,0.3829161822795868,-0.22113963961601257,0.9988522529602051,0.5993496179580688,0.5278763771057129,0.03218318894505501,0.9456972479820251,0.2971307635307312,0.5517399311065674,-0.5024751424789429,0.923578143119812,0.6459508538246155,0.6618612408638,-0.17163631319999695,0.9549476504325867,0.3102878928184509,0.45341867208480835,-1.0836403369903564,0.9766852259635925,0.6598246693611145,0.7043268084526062,-0.22569507360458374,0.92343670129776,0.3127020299434662,0.4275350570678711,-1.1869443655014038,0.966489315032959,0.6490597724914551,0.7087427973747253,-0.29499074816703796,0.9298211932182312,0.30788561701774597,0.40765124559402466,-1.2150754928588867,0.9662252068519592,0.6391489505767822,0.6969727873802185,-0.2001694142818451,0.9320747256278992,0.3111092448234558,0.41257643699645996,-1.1053546667099,0.9566939473152161,0.5484011173248291,0.6511388421058655,0.05439770594239235,0.9973503351211548,0.39702796936035156,0.6603648662567139,-0.0543428435921669,0.9947775602340698,0.5441044569015503,0.8699133396148682,-0.07620079070329666,0.5998943448066711,0.4158291816711426,0.8668246865272522,-0.09822539985179901,0.5129750370979309,0.5292472839355469,1.0510363578796387,0.4424542188644409,0.2709541320800781,0.4258365333080292,1.020375370979309,0.37602779269218445,0.23544339835643768,0.5125953555107117,1.070863962173462,0.4760732054710388,0.2265436053276062,0.43611764907836914,1.0656397342681885,0.4103037416934967,0.11353761702775955,0.5645452737808228,1.1205178499221802,0.18785367906093597,0.20147724449634552,0.45062947273254395,1.1248289346694946,0.07488984614610672,0.17662650346755981
14387.041975198752,0.4769103527069092,0.27600806951522827,-0.6349920034408569,0.9996078610420227,0.4881441295146942,0.2545975148677826,-0.5949246883392334,0.999292254447937,0.49771741032600403,0.2543391287326813,-0.5951884388923645,0.9992620348930359,0.5055868029594421,0.2542445957660675,-0.5954144597053528,0.999237060546875,0.4587938189506531,0.254242867231369,-0.6088603138923645,0.9988964796066284,0.4442048668861389,0.2540689706802368,-0.6089814305305481,0.9988254904747009,0.43038541078567505,0.25408023595809937,-0.609129786491394,0.9986829161643982,0.5071250796318054,0.2598561644554138,-0.29682376980781555,0.9993064403533936,0.39904946088790894,0.26167961955070496,-0.3688531517982483,0.9982324242591858,0.4877689480781555,0.2970132529735565,-0.517289400100708,0.9996806383132935,0.449679434299469,0.2985265851020813,-0.5378393530845642,0.9994853734970093,0.577324390411377,0.3762442469596863,-0.10102427005767822,0.9998612403869629,0.3089051842689514,0.3816237449645996,-0.20050857961177826,0.9988824725151062,0.6001572608947754,0.5275840163230896,0.044949304312467575,0.9460601806640625,0.2963460683822632,0.5525931715965271,-0.47801920771598816,0.9270102977752686,0.645250141620636,0.6602345108985901,-0.15226931869983673,0.9563225507736206,0.30905309319496155,0.45113661885261536,-1.06685209274292,0.9806919097900391,0.6594375967979431,0.7031179070472717,-0.20538730919361115,0.9261257648468018,0.3115364909172058,0.42648088932037354,-1.171392798423767,0.9711998701095581,0.6492969989776611,0.7074694633483887,-0.27720338106155396,0.9329919219017029,0.3077945113182068,0.4061129093170166,-1.1988317966461182,0.9710266590118408,0.6395331621170044,0.6958125829696655,-0.1815154254436493,0.934698224067688,0.31115037202835083,0.4111132323741913,-1.0882840156555176,0.962329089641571,0.5496724247932434,0.6515597105026245,0.047844432294368744,0.9970568418502808,0.3978178799152374,0.6622322797775269,-0.04778264835476875,0.9940529465675354,0.5461990833282471,0.8706241846084595,-0.09539331495761871,0.6228488683700562,0.41404369473457336,0.8685859441757202,-0.08744245022535324,0.5159238576889038,0.5307633876800537,1.0585969686508179,0.4207186698913574,0.2583020329475403,0.4252997040748596,1.0256587266921997,0.3843919634819031,0.22286733984947205,0.5147426724433899,1.0788236856460571,0.4540705382823944,0.21317550539970398,0.4359821379184723,1.0703871250152588,0.4184943437576294,0.10625019669532776,0.5616161823272705,1.1281299591064453,0.16006800532341003,0.18392646312713623,0.4447231590747833,1.128548264503479,0.0820143073797226,0.16238565742969513
14403.708641865418,0.4777393639087677,0.2786403000354767,-0.6430773138999939,0.9995744824409485,0.4895002543926239,0.25657835602760315,-0.6037428379058838,0.999257504940033,0.4983597993850708,0.2563008964061737,-0.6039994955062866,0.9992257356643677,0.5058974027633667,0.25624069571495056,-0.6042238473892212,0.9992101192474365,0.4610314667224884,0.2559352219104767,-0.6211726069450378,0.9988381266593933,0.44678816199302673,0.25556525588035583,-0.6212966442108154,0.9987378716468811,0.4325714409351349,0.2554186284542084,-0.6214398741722107,0.9985768795013428,0.5057097673416138,0.26158881187438965,-0.3051166236400604,0.9992745518684387,0.4002302885055542,0.26223793625831604,-0.3934803307056427,0.998075008392334,0.48745208978652954,0.2988359332084656,-0.524330198764801,0.9996602535247803,0.45088183879852295,0.3002319037914276,-0.5495425462722778,0.9994431138038635,0.5760931968688965,0.37619614601135254,-0.10687233507633209,0.9998681545257568,0.30576491355895996,0.38230204582214355,-0.2230474203824997,0.9988393187522888,0.6003173589706421,0.5276126265525818,0.03432013466954231,0.9469829797744751,0.2981525659561157,0.5545122623443604,-0.49243050813674927,0.9175939559936523,0.6444262266159058,0.6615575551986694,-0.17768090963363647,0.954096257686615,0.3117420971393585,0.4577333927154541,-1.067822813987732,0.9752560257911682,0.659966766834259,0.7029695510864258,-0.2338598668575287,0.9215835332870483,0.3148454427719116,0.43035489320755005,-1.1694717407226562,0.964136004447937,0.6499145030975342,0.7072474360466003,-0.30454549193382263,0.9288919568061829,0.3092435598373413,0.4099903106689453,-1.1987119913101196,0.963860273361206,0.6392108201980591,0.6957447528839111,-0.20697371661663055,0.9306755661964417,0.3118598461151123,0.415035605430603,-1.089432716369629,0.9535698294639587,0.549429178237915,0.6493647694587708,0.054743845015764236,0.9969136714935303,0.3968827426433563,0.6583287715911865,-0.05466076359152794,0.9938940405845642,0.5445942878723145,0.8709214925765991,-0.09255839139223099,0.6060848236083984,0.4152485430240631,0.8657584190368652,-0.10906016826629639,0.507621705532074,0.5260182619094849,1.0523120164871216,0.4351605772972107,0.2605978548526764,0.43338531255722046,1.0475211143493652,0.37239745259284973,0.2244090586900711,0.5089357495307922,1.0723037719726562,0.46961817145347595,0.22564032673835754,0.4379481077194214,1.0648188591003418,0.4071337878704071,0.10907447338104248,0.5623137950897217,1.1213784217834473,0.1806037425994873,0.18845391273498535,0.4508388638496399,1.1234939098358154,0.06953643262386322,0.16380898654460907
14420.375308532084,0.47796890139579773,0.2830038070678711,-0.7200899124145508,0.9996719360351562,0.490400493144989,0.2609344720840454,-0.6851811408996582,0.9993676543235779,0.49917852878570557,0.2606850862503052,-0.6854158043861389,0.9993295669555664,0.5066757798194885,0.2606201469898224,-0.6856083869934082,0.9992534518241882,0.4624336361885071,0.2597557306289673,-0.701625406742096,0.9991487264633179,0.4485723376274109,0.258730411529541,-0.7017859220504761,0.999110758304596,0.4342716932296753,0.25825974345207214,-0.701946496963501,0.9990009665489197,0.5068857669830322,0.26523730158805847,-0.38853564858436584,0.9993096590042114,0.4009192883968353,0.2633907198905945,-0.47382134199142456,0.9986961483955383,0.4870651960372925,0.30277907848358154,-0.6002275347709656,0.9996895790100098,0.45031386613845825,0.30386611819267273,-0.6246368288993835,0.9995803236961365,0.5740612745285034,0.37601515650749207,-0.1713745892047882,0.9998264908790588,0.3057181239128113,0.38318613171577454,-0.2759021818637848,0.9991740584373474,0.6000599265098572,0.5263231992721558,-0.00012811471242457628,0.9313870072364807,0.29440921545028687,0.556840181350708,-0.5238805413246155,0.9320139288902283,0.6448805332183838,0.6585773825645447,-0.2012244611978531,0.9341901540756226,0.3099428117275238,0.4669913351535797,-1.1065716743469238,0.9763059020042419,0.6588874459266663,0.7019663453102112,-0.2506793439388275,0.894597053527832,0.31545090675354004,0.4394838809967041,-1.2070822715759277,0.965726912021637,0.6492459774017334,0.7063015699386597,-0.3241036534309387,0.9033958911895752,0.30835872888565063,0.4172443449497223,-1.2348226308822632,0.9654589295387268,0.6388719081878662,0.6950981020927429,-0.230712428689003,0.9072983860969543,0.3115372657775879,0.4216765761375427,-1.1270219087600708,0.9549192786216736,0.5507815480232239,0.6508507132530212,0.04618019983172417,0.9962563514709473,0.39954468607902527,0.6618708372116089,-0.04613951966166496,0.9935386776924133,0.5421152710914612,0.8715331554412842,-0.05804559215903282,0.6014438271522522,0.4121616780757904,0.8685770034790039,-0.08123990148305893,0.5615745782852173,0.5291834473609924,1.0555126667022705,0.4609374701976776,0.2745201587677002,0.4239685535430908,1.0520721673965454,0.38262447714805603,0.27492767572402954,0.5111212730407715,1.0764727592468262,0.4948703646659851,0.2579980492591858,0.4286726713180542,1.0697053670883179,0.4162883758544922,0.14616388082504272,0.5684422254562378,1.1251707077026367,0.21233271062374115,0.21117202937602997,0.4377883970737457,1.128404140472412,0.08246728032827377,0.19770000874996185
14437.04197519875,0.4798213243484497,0.2822078466415405,-0.674712061882019,0.9996808767318726,0.4918762743473053,0.26020535826683044,-0.6373170614242554,0.9994118213653564,0.500314474105835,0.2598411440849304,-0.6375822424888611,0.9993921518325806,0.5075825452804565,0.25970080494880676,-0.6377858519554138,0.9993211030960083,0.46434512734413147,0.2594553232192993,-0.6560846567153931,0.9991869330406189,0.4505528211593628,0.2585815191268921,-0.6562530994415283,0.9991600513458252,0.43596941232681274,0.25827133655548096,-0.6564348936080933,0.9990220069885254,0.5066295862197876,0.264522522687912,-0.33687201142311096,0.99940025806427,0.40247687697410583,0.2640129029750824,-0.4321722388267517,0.9988366961479187,0.4889477491378784,0.30147311091423035,-0.5540634989738464,0.9997428059577942,0.45352715253829956,0.30302301049232483,-0.5813466906547546,0.9996446371078491,0.5740123987197876,0.3766924738883972,-0.12124189734458923,0.9998685121536255,0.3078775107860565,0.3820793330669403,-0.25296059250831604,0.9992321729660034,0.6006545424461365,0.5280022621154785,0.04985888674855232,0.943989098072052,0.2947765290737152,0.5556368231773376,-0.5128236413002014,0.9463189244270325,0.6455867886543274,0.6601792573928833,-0.15914711356163025,0.9517242312431335,0.30959540605545044,0.4680998921394348,-1.0959161520004272,0.9831650257110596,0.6601714491844177,0.701956570148468,-0.2104102075099945,0.9200820326805115,0.3149333596229553,0.44024237990379333,-1.1977936029434204,0.9741690754890442,0.6499469876289368,0.7049062252044678,-0.28308284282684326,0.9280128479003906,0.30793166160583496,0.4185333251953125,-1.2277802228927612,0.9742053747177124,0.639350175857544,0.6947389245033264,-0.18871720135211945,0.929620087146759,0.31145650148391724,0.4229370951652527,-1.11723792552948,0.966156005859375,0.5500079393386841,0.651922881603241,0.056085553020238876,0.996658444404602,0.3989582359790802,0.6637398600578308,-0.05602800473570824,0.9935192465782166,0.5459620952606201,0.8679819107055664,-0.08516889065504074,0.609018862247467,0.41861259937286377,0.8688333034515381,-0.08852554112672806,0.5144525766372681,0.5335210561752319,1.057960867881775,0.4471611976623535,0.2501240670681,0.4297075867652893,1.053208351135254,0.4013988971710205,0.23085038363933563,0.5150220990180969,1.0786246061325073,0.482666552066803,0.24403728544712067,0.4331572651863098,1.0707963705062866,0.4376637041568756,0.12212391942739487,0.5728781223297119,1.1279184818267822,0.1987876296043396,0.19087757170200348,0.4487389326095581,1.128079891204834,0.10165023058652878,0.16942864656448364
14453.708641865416,0.47961097955703735,0.2765424847602844,-0.6195117831230164,0.9997878670692444,0.49170196056365967,0.25506722927093506,-0.5787755846977234,0.9996009469032288,0.5008514523506165,0.25504711270332336,-0.5790585279464722,0.999584972858429,0.508307158946991,0.2551037669181824,-0.5792661905288696,0.9995336532592773,0.4631423056125641,0.2540375292301178,-0.5957777500152588,0.9994416832923889,0.44894731044769287,0.25380373001098633,-0.5959233045578003,0.9994282126426697,0.4345288574695587,0.2536614239215851,-0.5960692167282104,0.9993453621864319,0.5077629685401917,0.26153644919395447,-0.28284743428230286,0.9995808005332947,0.4005427956581116,0.261677622795105,-0.37073516845703125,0.9992044568061829,0.4885106086730957,0.2984031140804291,-0.5028046369552612,0.9998155236244202,0.45172804594039917,0.299078106880188,-0.5278214812278748,0.9997547268867493,0.574100136756897,0.3796725571155548,-0.09025837481021881,0.9998856782913208,0.3061580955982208,0.384360134601593,-0.20028644800186157,0.9992743134498596,0.6019226312637329,0.5325249433517456,0.06792356818914413,0.9517988562583923,0.2926378548145294,0.565960168838501,-0.4746303856372833,0.9581547975540161,0.6462258100509644,0.6618499755859375,-0.14136797189712524,0.9648692607879639,0.3034374713897705,0.46771305799484253,-1.0751006603240967,0.9895259141921997,0.6610085964202881,0.7041924595832825,-0.19424273073673248,0.9405047297477722,0.30955269932746887,0.4400560259819031,-1.1807949542999268,0.9829385280609131,0.6513082981109619,0.7064393758773804,-0.26627930998802185,0.946183443069458,0.3031209409236908,0.41630011796951294,-1.206909418106079,0.9828809499740601,0.6408823728561401,0.6971238255500793,-0.17072582244873047,0.9471824765205383,0.30612215399742126,0.42112115025520325,-1.0954883098602295,0.9771950840950012,0.5542343258857727,0.6582863926887512,0.047859057784080505,0.9974201917648315,0.40034863352775574,0.6699889302253723,-0.04779400676488876,0.9948334693908691,0.5484148859977722,0.8807265162467957,-0.09042330086231232,0.6474543809890747,0.41941916942596436,0.8799565434455872,-0.08274634927511215,0.539730966091156,0.5269173383712769,1.0304371118545532,0.44979143142700195,0.26147884130477905,0.43484002351760864,1.060318946838379,0.4070203900337219,0.235920250415802,0.5184279680252075,1.08555006980896,0.4861822724342346,0.24596962332725525,0.43979698419570923,1.077486276626587,0.4437219798564911,0.12201748043298721,0.5714521408081055,1.1357194185256958,0.20529742538928986,0.19200728833675385,0.4501141905784607,1.1365233659744263,0.1114829033613205,0.16853810846805573
14470.375308532082,0.4786932170391083,0.2804644703865051,-0.6403559446334839,0.9997681975364685,0.49093183875083923,0.2590373456478119,-0.5997992753982544,0.9995706677436829,0.5000268816947937,0.25914764404296875,-0.6000787615776062,0.999545156955719,0.5075046420097351,0.2593364715576172,-0.6003116965293884,0.9994974136352539,0.46295249462127686,0.25740745663642883,-0.6179066896438599,0.9993913173675537,0.4490039348602295,0.2566296458244324,-0.6180493831634521,0.9993590712547302,0.43467721343040466,0.2559188902378082,-0.6181944012641907,0.9992781281471252,0.5074223875999451,0.2649749219417572,-0.300269216299057,0.999545156955719,0.40076589584350586,0.2617618143558502,-0.39293500781059265,0.9991225600242615,0.4871816039085388,0.30210113525390625,-0.5214949250221252,0.9998045563697815,0.4497677981853485,0.30210229754447937,-0.5480368733406067,0.9997308850288391,0.5756403207778931,0.3799452781677246,-0.10127468407154083,0.9998846054077148,0.30387991666793823,0.3844512403011322,-0.21874792873859406,0.9992656111717224,0.6008638143539429,0.5316983461380005,0.06611276417970657,0.9425126910209656,0.29340556263923645,0.5650359988212585,-0.48498156666755676,0.9495790600776672,0.6448960304260254,0.6590651273727417,-0.1332099735736847,0.9543034434318542,0.30615490674972534,0.4667108356952667,-1.0720957517623901,0.9869723916053772,0.6613272428512573,0.6994006037712097,-0.18408101797103882,0.9255840182304382,0.31397706270217896,0.44345998764038086,-1.1764869689941406,0.9792894124984741,0.6519249677658081,0.7019205689430237,-0.2561795711517334,0.932661235332489,0.3089085817337036,0.41921481490135193,-1.2011879682540894,0.9791081547737122,0.6406123638153076,0.6932384967803955,-0.1624804586172104,0.9342988729476929,0.3105059266090393,0.4225170910358429,-1.091630458831787,0.9723343849182129,0.5526816844940186,0.6558393239974976,0.04737366735935211,0.9975476861000061,0.3984636664390564,0.6668024063110352,-0.04730802774429321,0.9948994517326355,0.5437321066856384,0.877116322517395,-0.0931146964430809,0.6428846120834351,0.4151087999343872,0.8737510442733765,-0.06990161538124084,0.5092324614524841,0.5326301455497742,1.0566272735595703,0.46706438064575195,0.24608464539051056,0.4345443844795227,1.051760196685791,0.4578224718570709,0.21497398614883423,0.5175292491912842,1.0760602951049805,0.5058644413948059,0.22064794600009918,0.4400389492511749,1.0683038234710693,0.4986516237258911,0.1139611080288887,0.5633991956710815,1.1275708675384521,0.22432366013526917,0.17954210937023163,0.44798409938812256,1.1279332637786865,0.16744965314865112,0.15511584281921387
14487.041975198748,0.4772902727127075,0.2823181450366974,-0.6537667512893677,0.9996002316474915,0.48976272344589233,0.2609870731830597,-0.6146214604377747,0.9992935657501221,0.4986421763896942,0.26082584261894226,-0.6148926615715027,0.9992551207542419,0.5063867568969727,0.2607973515987396,-0.6151115894317627,0.9991878867149353,0.461540549993515,0.25962549448013306,-0.6329514980316162,0.9989750385284424,0.4472716748714447,0.2585661709308624,-0.6330979466438293,0.9989365935325623,0.4332318902015686,0.2580680251121521,-0.6332736015319824,0.9987745881080627,0.5070478916168213,0.2658296227455139,-0.31047526001930237,0.9993182420730591,0.40004974603652954,0.26400917768478394,-0.4037106931209564,0.9985709190368652,0.48624101281166077,0.3028927445411682,-0.5322011113166809,0.9996856451034546,0.4486381411552429,0.30363041162490845,-0.5589203834533691,0.9995388984680176,0.5726957321166992,0.37646469473838806,-0.09925555437803268,0.99983811378479,0.3042868971824646,0.3836539685726166,-0.23138536512851715,0.9990053772926331,0.5998718738555908,0.526919960975647,0.06612984091043472,0.9277249574661255,0.2965461015701294,0.5560978651046753,-0.5095288753509521,0.9257408380508423,0.6459119319915771,0.6588435173034668,-0.1326330602169037,0.9383254647254944,0.3098148703575134,0.46556687355041504,-1.097379446029663,0.9752085208892822,0.660927414894104,0.7007519602775574,-0.1829383224248886,0.9028183221817017,0.31440994143486023,0.4414251446723938,-1.2011009454727173,0.9644210934638977,0.6509755849838257,0.703985333442688,-0.2553494870662689,0.9120472073554993,0.3083517551422119,0.41891708970069885,-1.2305318117141724,0.9644811749458313,0.6401048302650452,0.6941899061203003,-0.1622523069381714,0.9144590497016907,0.3121720850467682,0.4224618673324585,-1.1193989515304565,0.9546710848808289,0.5527376532554626,0.6561498641967773,0.0539659820497036,0.9968066215515137,0.3987582325935364,0.6660083532333374,-0.05386434495449066,0.9940474033355713,0.5449767708778381,0.8806905746459961,-0.06865046918392181,0.6192890405654907,0.41598668694496155,0.8753315210342407,-0.09480612725019455,0.5322595238685608,0.5320053696632385,1.0592836141586304,0.4857121706008911,0.2676922082901001,0.43179693818092346,1.056811809539795,0.3922058641910553,0.2524212598800659,0.515113115310669,1.079697608947754,0.5233774781227112,0.2523730397224426,0.4357413053512573,1.0744067430496216,0.4280032813549042,0.1337292194366455,0.5692183375358582,1.1288000345230103,0.23870128393173218,0.19945594668388367,0.4501130282878876,1.1323575973510742,0.088642418384552,0.18242070078849792
14503.708641865414,0.4724123775959015,0.2818913757801056,-0.6766762137413025,0.9995866417884827,0.4855382740497589,0.26076334714889526,-0.6349495649337769,0.9992499947547913,0.4951491057872772,0.2608654201030731,-0.6352428197860718,0.9992353916168213,0.5038901567459106,0.2610682547092438,-0.6354928016662598,0.9991452693939209,0.45443716645240784,0.2590864598751068,-0.6504046320915222,0.9989320635795593,0.43931663036346436,0.25826841592788696,-0.6505599617958069,0.9989151954650879,0.42591696977615356,0.257803738117218,-0.6507605314254761,0.9987310767173767,0.5075833797454834,0.26649659872055054,-0.31973540782928467,0.9992941617965698,0.3972975015640259,0.26405489444732666,-0.39910927414894104,0.9985443353652954,0.4835716784000397,0.3026573657989502,-0.5513904094696045,0.9996836185455322,0.4423898160457611,0.30313247442245483,-0.5741937160491943,0.9995445609092712,0.5737036466598511,0.37898972630500793,-0.10251490026712418,0.9998244643211365,0.3026260733604431,0.38448119163513184,-0.21636858582496643,0.9989199638366699,0.598888635635376,0.5299063920974731,0.06330740451812744,0.9336711764335632,0.29588937759399414,0.5636539459228516,-0.5057668089866638,0.9267791509628296,0.6453194618225098,0.6599842309951782,-0.14896279573440552,0.9400425553321838,0.31203675270080566,0.469404011964798,-1.131955862045288,0.9778011441230774,0.6596387624740601,0.7010595798492432,-0.20314110815525055,0.9055280089378357,0.3182542622089386,0.44463980197906494,-1.24196195602417,0.9665879607200623,0.6501857042312622,0.703838586807251,-0.27814143896102905,0.9152448177337646,0.31193453073501587,0.42279309034347534,-1.2697981595993042,0.9664579033851624,0.6398724317550659,0.6942827701568604,-0.17956653237342834,0.915979266166687,0.3147379755973816,0.4272477626800537,-1.1536625623703003,0.9561625123023987,0.5532166361808777,0.6590021848678589,0.04793200641870499,0.9964140057563782,0.39861103892326355,0.668587863445282,-0.0478057898581028,0.9930577278137207,0.5452123880386353,0.8813953399658203,-0.09506400674581528,0.6227918267250061,0.414917916059494,0.8790607452392578,-0.07914024591445923,0.490255206823349,0.5268096923828125,1.0696300268173218,0.4729141294956207,0.24884799122810364,0.4283035397529602,1.0637918710708618,0.4397754371166229,0.21579940617084503,0.5113833546638489,1.0903103351593018,0.5107700228691101,0.2311336100101471,0.4334166347980499,1.0820622444152832,0.47777634859085083,0.11605063825845718,0.5546352863311768,1.1394634246826172,0.20847542583942413,0.17439144849777222,0.43985283374786377,1.138508677482605,0.12544019520282745,0.1536407321691513
14520.37530853208,0.4721197485923767,0.2816237509250641,-0.7025262117385864,0.999518632888794,0.4850693643093109,0.2606137692928314,-0.661517858505249,0.999131977558136,0.4946044385433197,0.26059797406196594,-0.661787748336792,0.9991077780723572,0.5033159255981445,0.26069942116737366,-0.6620153784751892,0.9990150928497314,0.45492851734161377,0.2590240240097046,-0.6779271364212036,0.9987527132034302,0.44011253118515015,0.25817519426345825,-0.6780896782875061,0.9987353682518005,0.42691338062286377,0.2576582133769989,-0.6782931089401245,0.998531699180603,0.5064839720726013,0.2661507725715637,-0.3460333049297333,0.9991527795791626,0.39760321378707886,0.26390576362609863,-0.430327832698822,0.9981899857521057,0.4829709827899933,0.30247336626052856,-0.5769408941268921,0.9996065497398376,0.44285911321640015,0.3026367425918579,-0.6011369824409485,0.9994198083877563,0.5723085403442383,0.3777143955230713,-0.12374341487884521,0.9997919201850891,0.3022308349609375,0.385143518447876,-0.24441346526145935,0.9986695051193237,0.5995336771011353,0.5289555788040161,0.04854767024517059,0.9290621280670166,0.2963876724243164,0.5644893646240234,-0.5293855667114258,0.9163006544113159,0.6446026563644409,0.6591417193412781,-0.15700222551822662,0.9345450401306152,0.3127080798149109,0.4679301977157593,-1.1453276872634888,0.9710680246353149,0.659095823764801,0.698845624923706,-0.20874932408332825,0.8962379693984985,0.31819063425064087,0.44368499517440796,-1.2526390552520752,0.958265483379364,0.6487382650375366,0.7020540833473206,-0.28302595019340515,0.9060900807380676,0.3121495842933655,0.422160804271698,-1.2806464433670044,0.9579851031303406,0.6386396884918213,0.692984402179718,-0.18701733648777008,0.9074614644050598,0.31441622972488403,0.42566895484924316,-1.1668174266815186,0.9455332159996033,0.5537264347076416,0.6575220227241516,0.050284676253795624,0.9961442947387695,0.3989366888999939,0.6670571565628052,-0.05017637088894844,0.9926444292068481,0.5439841151237488,0.8799462914466858,-0.08599232137203217,0.6002480983734131,0.4152093231678009,0.8765734434127808,-0.08944420516490936,0.4907178580760956,0.5147896409034729,1.0408155918121338,0.48043182492256165,0.25946691632270813,0.42703086137771606,1.037336826324463,0.41903236508369446,0.2322654277086258,0.5068316459655762,1.0869641304016113,0.5181057453155518,0.24462208151817322,0.43061283230781555,1.0800803899765015,0.45591774582862854,0.12406418472528458,0.5545673966407776,1.1366946697235107,0.218421071767807,0.19032007455825806,0.4401549994945526,1.137718677520752,0.10289134830236435,0.1692488044500351
14537.041975198747,0.47127941250801086,0.2786957621574402,-0.6791664361953735,0.9996970891952515,0.4836225211620331,0.2570260763168335,-0.6407104730606079,0.9994173049926758,0.49294009804725647,0.2569511830806732,-0.6409672498703003,0.9994076490402222,0.5019720196723938,0.2570324242115021,-0.6411781311035156,0.9993488192558289,0.4543512165546417,0.25595059990882874,-0.6543919444084167,0.9991596937179565,0.4400034546852112,0.25547003746032715,-0.6545278429985046,0.9991391897201538,0.427339643239975,0.25531622767448425,-0.6546802520751953,0.9990014433860779,0.504828929901123,0.2630685269832611,-0.3412211835384369,0.9994235038757324,0.39765068888664246,0.2622309923171997,-0.41381216049194336,0.9986829161643982,0.48205554485321045,0.29987961053848267,-0.5598265528678894,0.99973064661026,0.4416970908641815,0.30046990513801575,-0.5805680155754089,0.9995943903923035,0.5727525949478149,0.3770279586315155,-0.13714487850666046,0.9998487234115601,0.3046482801437378,0.38137954473495483,-0.22113247215747833,0.9990066885948181,0.6014906764030457,0.5291770100593567,0.022454185411334038,0.9458277821540833,0.29906564950942993,0.5559694170951843,-0.48791074752807617,0.9241377115249634,0.647247314453125,0.6593629121780396,-0.1882677972316742,0.9495670199394226,0.3059086799621582,0.4671202301979065,-1.1060187816619873,0.9756574630737305,0.6602208614349365,0.7016027569770813,-0.24131447076797485,0.9173632264137268,0.3116326928138733,0.44537410140037537,-1.2127455472946167,0.9649430513381958,0.6502249836921692,0.7048310041427612,-0.3170631229877472,0.9246556162834167,0.3052840232849121,0.42326635122299194,-1.2420434951782227,0.9647822380065918,0.640505850315094,0.6946278810501099,-0.2187274992465973,0.9260766506195068,0.30858486890792847,0.42655038833618164,-1.1287217140197754,0.9545572400093079,0.5559569001197815,0.6512714624404907,0.037839729338884354,0.9969377517700195,0.40120965242385864,0.6595204472541809,-0.037771545350551605,0.9942662119865417,0.5447873473167419,0.8775375485420227,-0.08182111382484436,0.6606676578521729,0.4147924780845642,0.8720670938491821,-0.07472364604473114,0.5715229511260986,0.5271851420402527,1.0603561401367188,0.45139139890670776,0.31010451912879944,0.43329140543937683,1.0546698570251465,0.4013097584247589,0.2874172329902649,0.5108082890510559,1.0809667110443115,0.4859302043914795,0.2719767093658447,0.4403570294380188,1.0724314451217651,0.43551674485206604,0.1506900191307068,0.5585277676582336,1.1311681270599365,0.19289050996303558,0.22868074476718903,0.4417446255683899,1.13126802444458,0.09628685563802719,0.2101426124572754
14553.708641865413,0.4709234833717346,0.28065481781959534,-0.6597550511360168,0.9996956586837769,0.4834980070590973,0.2591294050216675,-0.6205059289932251,0.999417781829834,0.49288129806518555,0.25913235545158386,-0.6207844614982605,0.9994075298309326,0.5017920136451721,0.2592293620109558,-0.6210294365882874,0.9993552565574646,0.4545172452926636,0.25756675004959106,-0.634275496006012,0.9991206526756287,0.4402013123035431,0.25684481859207153,-0.6344090104103088,0.9990882873535156,0.4276455044746399,0.2564336061477661,-0.6345557570457458,0.9989424347877502,0.5041120052337646,0.26468732953071594,-0.317203551530838,0.9994613528251648,0.397283673286438,0.2626306116580963,-0.38955157995224,0.998630940914154,0.48088136315345764,0.30199673771858215,-0.538689136505127,0.9997395873069763,0.44079166650772095,0.30230095982551575,-0.5594825744628906,0.9995867609977722,0.5717949867248535,0.3768351376056671,-0.11459767073392868,0.9998698234558105,0.3036733865737915,0.3819623589515686,-0.19809232652187347,0.9989705085754395,0.6009207963943481,0.5282554030418396,0.05077124014496803,0.9470488429069519,0.29775312542915344,0.5570319294929504,-0.4695410132408142,0.9289076328277588,0.6460840106010437,0.6588126420974731,-0.14714136719703674,0.9552612900733948,0.3064555525779724,0.4635719954967499,-1.0874906778335571,0.9820063710212708,0.6600357294082642,0.7001994848251343,-0.19865940511226654,0.9270115494728088,0.31022724509239197,0.4402950406074524,-1.196138858795166,0.9728822112083435,0.650246262550354,0.7027546763420105,-0.27475225925445557,0.9338445663452148,0.304801881313324,0.41785380244255066,-1.224470853805542,0.9727319478988647,0.6404517292976379,0.6932409405708313,-0.17741504311561584,0.9347577691078186,0.3080158233642578,0.4213358759880066,-1.1099015474319458,0.9644401669502258,0.5534314513206482,0.6545628905296326,0.036221764981746674,0.9970108270645142,0.39956051111221313,0.664124071598053,-0.036129288375377655,0.9937998652458191,0.5442718267440796,0.8795670866966248,-0.09922059625387192,0.6780030131340027,0.41338691115379333,0.8770294189453125,-0.06991523504257202,0.5525994300842285,0.5248332023620605,1.0642390251159668,0.45585930347442627,0.28105178475379944,0.4295482635498047,1.0591967105865479,0.42840492725372314,0.258362740278244,0.5094660520553589,1.0843195915222168,0.49303990602493286,0.23811574280261993,0.43665385246276855,1.077362060546875,0.4651932716369629,0.13548773527145386,0.5506019592285156,1.136191964149475,0.20008745789527893,0.19968950748443604,0.4382408857345581,1.135148048400879,0.1253742277622223,0.18484771251678467
14570.375308532079,0.4683164954185486,0.2785341143608093,-0.723583996295929,0.9997698664665222,0.4812527596950531,0.25854557752609253,-0.6861279606819153,0.9995290040969849,0.4910741150379181,0.25884321331977844,-0.6863561272621155,0.9995183944702148,0.5002730488777161,0.2591271996498108,-0.6865467429161072,0.9994551539421082,0.45155829191207886,0.2559901773929596,-0.6998253464698792,0.9993441700935364,0.4371464252471924,0.25500765442848206,-0.6999709606170654,0.9993380904197693,0.4245111346244812,0.25441649556159973,-0.7001268863677979,0.9992462396621704,0.5052847862243652,0.2650691270828247,-0.38478562235832214,0.9994957447052002,0.39569714665412903,0.26124900579452515,-0.45771315693855286,0.9989709854125977,0.47947534918785095,0.2997998893260956,-0.6027405261993408,0.9997795224189758,0.437765896320343,0.2995782792568207,-0.6236677765846252,0.9996961355209351,0.5736653804779053,0.37590956687927246,-0.17144441604614258,0.999858021736145,0.30352792143821716,0.3805309236049652,-0.2535577714443207,0.9992071986198425,0.6012454032897949,0.5274467468261719,-0.005983912851661444,0.9515272378921509,0.29819434881210327,0.5550723075866699,-0.49921464920043945,0.9357860684394836,0.6454120874404907,0.658213198184967,-0.2265690267086029,0.9551379680633545,0.3057539165019989,0.4748232662677765,-1.1139262914657593,0.979446530342102,0.6602599024772644,0.7004896998405457,-0.2814798355102539,0.9246943593025208,0.3147616684436798,0.45056939125061035,-1.220957636833191,0.9706365466117859,0.650752604007721,0.7037680149078369,-0.35831278562545776,0.9309493899345398,0.30716240406036377,0.4263576865196228,-1.251861333847046,0.9707491993904114,0.640114426612854,0.6936696171760559,-0.25738245248794556,0.9318780899047852,0.30999866127967834,0.429460346698761,-1.1364665031433105,0.9612272381782532,0.5561046004295349,0.6494017243385315,0.035558611154556274,0.9968225955963135,0.40054160356521606,0.6580238938331604,-0.03556643798947334,0.9943752288818359,0.5452874302864075,0.8760596513748169,-0.07036943733692169,0.6699711084365845,0.41510894894599915,0.8716728687286377,-0.07467961311340332,0.5931901335716248,0.528092086315155,1.055328607559204,0.48491913080215454,0.3206291198730469,0.43348968029022217,1.0531024932861328,0.4065574109554291,0.3152087926864624,0.5121296048164368,1.0752314329147339,0.5219974517822266,0.27079835534095764,0.44023042917251587,1.070587396621704,0.4414437711238861,0.15994641184806824,0.557144045829773,1.1279033422470093,0.22875434160232544,0.24513986706733704,0.4446914792060852,1.1307415962219238,0.09796297550201416,0.231126606464386
14587.041975198745,0.46818089485168457,0.27984926104545593,-0.650195837020874,0.999717652797699,0.4819134473800659,0.25927242636680603,-0.6092965006828308,0.9994720816612244,0.4917629361152649,0.2594188153743744,-0.6095549464225769,0.9994561076164246,0.5005782842636108,0.2595501244068146,-0.6097904443740845,0.999413013458252,0.4522659182548523,0.2571340799331665,-0.6238570809364319,0.9992104768753052,0.4376557767391205,0.2561524510383606,-0.6239920258522034,0.9991924166679382,0.424911230802536,0.25564220547676086,-0.6241202354431152,0.9990600943565369,0.5049967765808105,0.26534584164619446,-0.30586859583854675,0.9995206594467163,0.39482295513153076,0.26237207651138306,-0.38213109970092773,0.9988033771514893,0.4791448712348938,0.30083736777305603,-0.5297251343727112,0.9997572302818298,0.4379550516605377,0.3008355498313904,-0.5516020655632019,0.9996110796928406,0.5729072690010071,0.37630146741867065,-0.10618181526660919,0.9998694658279419,0.30244380235671997,0.38329049944877625,-0.2016078531742096,0.9989782571792603,0.6000595688819885,0.5283172130584717,0.05978536978363991,0.9440970420837402,0.2991040349006653,0.5582699179649353,-0.481963187456131,0.9236510396003723,0.6467219591140747,0.6579744219779968,-0.12420772016048431,0.9510759711265564,0.3096836805343628,0.4664250910282135,-1.090922474861145,0.977141261100769,0.66234290599823,0.6999301314353943,-0.1731390357017517,0.9213377833366394,0.3162577748298645,0.4428669810295105,-1.1997753381729126,0.9663872718811035,0.6515685319900513,0.7030690908432007,-0.2477937489748001,0.9282304644584656,0.3104664087295532,0.4209861159324646,-1.2262119054794312,0.9662169814109802,0.6406809091567993,0.6935411691665649,-0.15378998219966888,0.9294061660766602,0.3129199743270874,0.4241226315498352,-1.1130436658859253,0.956759512424469,0.5572072863578796,0.6528424024581909,0.037092261016368866,0.9978068470954895,0.4000801146030426,0.6605489253997803,-0.03697570040822029,0.995596706867218,0.5443400740623474,0.8790444731712341,-0.08505549281835556,0.7034525871276855,0.416043758392334,0.8746131062507629,-0.06798092275857925,0.5851849317550659,0.5271997451782227,1.0557879209518433,0.4989752173423767,0.314482182264328,0.43445929884910583,1.0526059865951538,0.445607453584671,0.3009399473667145,0.5115644931793213,1.0749881267547607,0.5396431088447571,0.26128047704696655,0.44211113452911377,1.0700763463974,0.4844317138195038,0.1562042236328125,0.5545799732208252,1.1286243200302124,0.25247257947921753,0.22797727584838867,0.4411792755126953,1.129713535308838,0.1479567587375641,0.21968211233615875
14603.70864186541,0.47459936141967773,0.27722808718681335,-0.6736130714416504,0.9997140765190125,0.4879625141620636,0.25587189197540283,-0.6333932280540466,0.9994692206382751,0.49673059582710266,0.2558819055557251,-0.6336565613746643,0.9994562268257141,0.5043410658836365,0.25590914487838745,-0.633857250213623,0.9994065761566162,0.45845481753349304,0.2547905445098877,-0.6510035395622253,0.999220609664917,0.4450235664844513,0.25427475571632385,-0.6511547565460205,0.9991897940635681,0.43047094345092773,0.2537931799888611,-0.6513175964355469,0.9990630745887756,0.5049136281013489,0.2618679106235504,-0.32947853207588196,0.9994686245918274,0.3973107933998108,0.26077571511268616,-0.4201450049877167,0.9987496137619019,0.48357218503952026,0.2981874346733093,-0.5527564883232117,0.9997530579566956,0.4478057324886322,0.2983361482620239,-0.5787766575813293,0.9996228218078613,0.5708518028259277,0.37538930773735046,-0.12800438702106476,0.9998703002929688,0.3021966218948364,0.3832213580608368,-0.23211580514907837,0.998988926410675,0.6006392240524292,0.5279684662818909,0.027000563219189644,0.9525898098945618,0.2977830171585083,0.5605321526527405,-0.4974907338619232,0.9386534690856934,0.6469677686691284,0.6573190093040466,-0.18966412544250488,0.9622666835784912,0.3115786910057068,0.46998196840286255,-1.1005016565322876,0.9815857410430908,0.6611121892929077,0.6978448033332825,-0.24542704224586487,0.9346684217453003,0.3176838755607605,0.44345152378082275,-1.2064571380615234,0.9723997712135315,0.6503240466117859,0.7001274824142456,-0.319881796836853,0.9405888915061951,0.30942678451538086,0.42117840051651,-1.2360786199569702,0.9722962975502014,0.6398553848266602,0.6917170286178589,-0.21985356509685516,0.940772294998169,0.31212955713272095,0.42552751302719116,-1.122412919998169,0.9632486701011658,0.5551252961158752,0.6504087448120117,0.042358316481113434,0.9971254467964172,0.4020567238330841,0.6608113646507263,-0.04230577126145363,0.9945001602172852,0.5446125268936157,0.8773077130317688,-0.07630562782287598,0.6278407573699951,0.4156624376773834,0.8703159093856812,-0.08996207267045975,0.5445688962936401,0.5250019431114197,1.0590486526489258,0.482724130153656,0.2774543762207031,0.4310801923274994,1.054580569267273,0.394869327545166,0.26979202032089233,0.5073139667510986,1.0793790817260742,0.5199658870697021,0.2578693926334381,0.4372275769710541,1.072253942489624,0.4299337565898895,0.14047010242938995,0.5588622093200684,1.1299656629562378,0.22952939569950104,0.21374715864658356,0.4426615536212921,1.1306440830230713,0.0878121629357338,0.20200639963150024
14620.375308532077,0.4708152711391449,0.28117799758911133,-0.6212539672851562,0.9996885061264038,0.4840846061706543,0.26087915897369385,-0.5805807709693909,0.9994410872459412,0.49334749579429626,0.26096099615097046,-0.5808433294296265,0.9994182586669922,0.501357913017273,0.260962575674057,-0.5810878276824951,0.9993807077407837,0.45471200346946716,0.2590051293373108,-0.59847491979599,0.9991699457168579,0.4407215416431427,0.25778165459632874,-0.5986135601997375,0.9991412162780762,0.42700278759002686,0.2573452293872833,-0.5987460017204285,0.9990047812461853,0.5048038363456726,0.2656877338886261,-0.27865836024284363,0.999502420425415,0.39413610100746155,0.26334789395332336,-0.3696691393852234,0.998829185962677,0.48142099380493164,0.3025076985359192,-0.5009046196937561,0.9997498393058777,0.4425419569015503,0.3024550974369049,-0.5270352363586426,0.9996022582054138,0.5703848600387573,0.37557631731033325,-0.08113789558410645,0.9998786449432373,0.3026576340198517,0.3828794062137604,-0.1998729556798935,0.999014139175415,0.5992366671562195,0.5264875292778015,0.0906490832567215,0.9416422843933105,0.2954990565776825,0.5610862970352173,-0.4846172630786896,0.9305918216705322,0.6464504599571228,0.656620979309082,-0.08293376863002777,0.9521188735961914,0.309099406003952,0.4620579779148102,-1.0760557651519775,0.9807892441749573,0.6618070006370544,0.6979091167449951,-0.12927070260047913,0.9240682125091553,0.3147263526916504,0.4394501745700836,-1.182055950164795,0.9711479544639587,0.650619387626648,0.7006601691246033,-0.20210576057434082,0.9312416315078735,0.31100109219551086,0.4166334867477417,-1.209289312362671,0.9710615277290344,0.6398245096206665,0.6916462182998657,-0.11181386560201645,0.9326795935630798,0.313467800617218,0.4193026125431061,-1.0977848768234253,0.9628332853317261,0.554848849773407,0.6553293466567993,0.04265739023685455,0.9975972771644592,0.3988760709762573,0.664746105670929,-0.042519837617874146,0.994785487651825,0.5453569293022156,0.8808044195175171,-0.10194426774978638,0.7254049181938171,0.41465237736701965,0.8773072361946106,-0.07488740980625153,0.5748194456100464,0.5284707546234131,1.0634223222732544,0.4588565528392792,0.3164035975933075,0.4306623339653015,1.0580453872680664,0.43098020553588867,0.2769428789615631,0.5130967497825623,1.083012580871582,0.4971581697463989,0.2533087432384491,0.43809542059898376,1.0755980014801025,0.4689866006374359,0.13870634138584137,0.5554053783416748,1.1363327503204346,0.2102903574705124,0.21934722363948822,0.43994253873825073,1.1350864171981812,0.13504405319690704,0.1973375827074051
14637.041975198743,0.4734167456626892,0.28280583024024963,-0.6703445911407471,0.9996628761291504,0.486247181892395,0.26188337802886963,-0.6321191787719727,0.9993846416473389,0.4947367012500763,0.26150721311569214,-0.632381021976471,0.9993738532066345,0.5024651885032654,0.2612454295158386,-0.6326048970222473,0.9993280172348022,0.4572785198688507,0.2609390318393707,-0.6500979065895081,0.9990803003311157,0.4437035918235779,0.2599432170391083,-0.6502425074577332,0.9990399479866028,0.42912977933883667,0.25962918996810913,-0.6503889560699463,0.9988829493522644,0.5026058554649353,0.26543912291526794,-0.33217424154281616,0.999421238899231,0.3957486152648926,0.2651882469654083,-0.42380043864250183,0.9985346794128418,0.48297885060310364,0.30240654945373535,-0.5500881671905518,0.9997133612632751,0.44585877656936646,0.30352655053138733,-0.5763422250747681,0.9995393753051758,0.5697183012962341,0.37461379170417786,-0.12952066957950592,0.9998729228973389,0.3043438792228699,0.3852156698703766,-0.2371414750814438,0.9989094734191895,0.600222647190094,0.527438223361969,0.03396119177341461,0.9498786330223083,0.29792070388793945,0.5629849433898926,-0.5031710267066956,0.9299694299697876,0.6489651203155518,0.6593887209892273,-0.1669410765171051,0.9580206274986267,0.30914247035980225,0.46610209345817566,-1.099108338356018,0.9804917573928833,0.6635116338729858,0.7021550536155701,-0.21849171817302704,0.9290228486061096,0.3139570951461792,0.44082027673721313,-1.203353762626648,0.9710348844528198,0.6516308784484863,0.7048192620277405,-0.2924627959728241,0.9356511235237122,0.3077070415019989,0.4191729724407196,-1.2330045700073242,0.9709341526031494,0.6410991549491882,0.695426881313324,-0.1966293603181839,0.9371324181556702,0.31207001209259033,0.42287805676460266,-1.1212106943130493,0.9622052311897278,0.5519273281097412,0.6543986797332764,0.04360232502222061,0.9968438148498535,0.39806419610977173,0.6648406982421875,-0.043524887412786484,0.9936487078666687,0.5425631999969482,0.8812878727912903,-0.08536337316036224,0.6632953882217407,0.41475433111190796,0.8751164078712463,-0.0874306708574295,0.5636263489723206,0.5260022878646851,1.0637364387512207,0.4626867175102234,0.2958631217479706,0.43266746401786804,1.0582027435302734,0.3931424021720886,0.2747305929660797,0.5083266496658325,1.0838543176651,0.4991501569747925,0.25770649313926697,0.4393518269062042,1.075680136680603,0.4282067120075226,0.1392400562763214,0.5594494938850403,1.1359078884124756,0.21223925054073334,0.21577082574367523,0.44500303268432617,1.1352429389953613,0.09211504459381104,0.1988147795200348
14653.708641865409,0.46838507056236267,0.2818521559238434,-0.6451977491378784,0.9997689127922058,0.48073962330818176,0.260034441947937,-0.607988715171814,0.9995566010475159,0.4903569221496582,0.25977909564971924,-0.6082472205162048,0.9995393753051758,0.49873214960098267,0.2595309615135193,-0.6084759831428528,0.999515175819397,0.45269039273262024,0.25870269536972046,-0.6228886246681213,0.9993244409561157,0.4382373094558716,0.2576146721839905,-0.6230119466781616,0.9992874264717102,0.425051748752594,0.2571900188922882,-0.6231263875961304,0.9991845488548279,0.5020757913589478,0.26400110125541687,-0.3146263659000397,0.9995576739311218,0.39236563444137573,0.2628217041492462,-0.39277270436286926,0.9988958835601807,0.4784541726112366,0.3026428818702698,-0.5274431109428406,0.9997925162315369,0.4395501911640167,0.30325382947921753,-0.549841582775116,0.999665379524231,0.5690728425979614,0.3750944435596466,-0.12077618390321732,0.9999051094055176,0.30354422330856323,0.3809784948825836,-0.21189509332180023,0.9992432594299316,0.600662350654602,0.5271478295326233,0.03357943892478943,0.9554193615913391,0.2972221374511719,0.5572748780250549,-0.47903820872306824,0.9410715103149414,0.6491270065307617,0.6598140001296997,-0.16538190841674805,0.9621413946151733,0.3060021996498108,0.4619993269443512,-1.0753586292266846,0.9850327968597412,0.6628576517105103,0.7030878663063049,-0.21698293089866638,0.9356928467750549,0.3103311061859131,0.441409170627594,-1.1805312633514404,0.9768522381782532,0.650833010673523,0.7055724859237671,-0.2899734377861023,0.9416438937187195,0.3070099949836731,0.4189259707927704,-1.2078536748886108,0.9767318964004517,0.6404537558555603,0.6959185004234314,-0.19453901052474976,0.943125307559967,0.3106737732887268,0.42122501134872437,-1.0967915058135986,0.9697722792625427,0.5517148375511169,0.6514070630073547,0.03804483264684677,0.9975680708885193,0.3980790972709656,0.6619855165481567,-0.03801923245191574,0.9947856068611145,0.5434800982475281,0.8801955580711365,-0.09909502416849136,0.6613403558731079,0.4125820994377136,0.871684730052948,-0.07965686917304993,0.556934118270874,0.5303596258163452,1.0637873411178589,0.43312665820121765,0.2831224203109741,0.4311526417732239,1.0561035871505737,0.39493438601493835,0.2611903250217438,0.5144755840301514,1.083875298500061,0.46891912817955017,0.23742793500423431,0.4380031228065491,1.0733962059020996,0.4303807020187378,0.13100209832191467,0.5608641505241394,1.135982871055603,0.18654708564281464,0.20402193069458008,0.4437597990036011,1.1335508823394775,0.10341900587081909,0.1881110817193985
14670.375308532075,0.46613389253616333,0.28352683782577515,-0.6886862516403198,0.9996845722198486,0.47981399297714233,0.26242154836654663,-0.6500549912452698,0.9993902444839478,0.4891028106212616,0.2622072994709015,-0.6503244638442993,0.9993817806243896,0.497691810131073,0.2620214521884918,-0.6505512595176697,0.9993177652359009,0.45026838779449463,0.26094797253608704,-0.6636284589767456,0.9990911483764648,0.4353688955307007,0.2599199116230011,-0.6637822389602661,0.9990770816802979,0.42249059677124023,0.25935736298561096,-0.6639544367790222,0.9989238381385803,0.5021388530731201,0.26639479398727417,-0.3443191945552826,0.9994204044342041,0.3928768038749695,0.2649293839931488,-0.41559481620788574,0.9986065030097961,0.4770651161670685,0.3040575683116913,-0.5663521885871887,0.9997488856315613,0.43666064739227295,0.3049566447734833,-0.5868164300918579,0.9996008276939392,0.5732617378234863,0.3775314688682556,-0.13359975814819336,0.9998704195022583,0.3043128252029419,0.38415390253067017,-0.22546115517616272,0.9990843534469604,0.6018840074539185,0.5288747549057007,0.02913997881114483,0.9509633183479309,0.2951131761074066,0.5578745603561401,-0.5020484328269958,0.9398408532142639,0.6496695280075073,0.6584942936897278,-0.1862008273601532,0.95763099193573,0.30742913484573364,0.4669096767902374,-1.133402943611145,0.9849755167961121,0.6646064519882202,0.7011451721191406,-0.24005195498466492,0.9298645853996277,0.31063494086265564,0.43972501158714294,-1.2441645860671997,0.9769917130470276,0.6522514224052429,0.7033810019493103,-0.31621015071868896,0.9368370175361633,0.30358484387397766,0.41869017481803894,-1.2730423212051392,0.9769899845123291,0.6418771743774414,0.6943458318710327,-0.2169211208820343,0.9376880526542664,0.3079126477241516,0.42249318957328796,-1.1563206911087036,0.9697560667991638,0.5557393431663513,0.6578435897827148,0.03978607803583145,0.9970412850379944,0.39966315031051636,0.6683335900306702,-0.039719801396131516,0.9938539266586304,0.5460160970687866,0.8855850696563721,-0.10377875715494156,0.6686441898345947,0.41434812545776367,0.8795085549354553,-0.07499824464321136,0.551789402961731,0.5288834571838379,1.06819486618042,0.47200220823287964,0.28175073862075806,0.42811256647109985,1.0610648393630981,0.4430198669433594,0.2551741302013397,0.5131065845489502,1.0878974199295044,0.5113996863365173,0.2454218715429306,0.4341866672039032,1.078425645828247,0.48201805353164673,0.1328384429216385,0.5551362633705139,1.140796184539795,0.21615208685398102,0.20407085120677948,0.4407866597175598,1.1377711296081543,0.13921771943569183,0.18445004522800446
14687.041975198741,0.4693363308906555,0.2788170576095581,-0.678676962852478,0.9997720122337341,0.48119762539863586,0.25770047307014465,-0.6417384743690491,0.999562680721283,0.49063408374786377,0.2574068605899811,-0.6419993042945862,0.9995521903038025,0.4988950490951538,0.25724783539772034,-0.6422274112701416,0.9995216131210327,0.4529963731765747,0.25693053007125854,-0.6556403636932373,0.9993582367897034,0.4390105903148651,0.25621822476387024,-0.6557675004005432,0.9993368983268738,0.4256354570388794,0.25600147247314453,-0.655876874923706,0.9992515444755554,0.501824140548706,0.2627529203891754,-0.3462672829627991,0.9995527863502502,0.3940165340900421,0.26213768124580383,-0.41996657848358154,0.9989301562309265,0.4793892204761505,0.2996223568916321,-0.5600835084915161,0.9997767806053162,0.4419596493244171,0.3003178834915161,-0.5812020301818848,0.9996641874313354,0.5732741951942444,0.375613272190094,-0.14908349514007568,0.9998866319656372,0.30508771538734436,0.38190382719039917,-0.22231093049049377,0.9992130994796753,0.6033576726913452,0.527114748954773,-0.0001555979688419029,0.9547032713890076,0.29719623923301697,0.5545336008071899,-0.48117539286613464,0.9413343667984009,0.6500880718231201,0.659341037273407,-0.219956636428833,0.9546151161193848,0.30531182885169983,0.46415743231773376,-1.0942918062210083,0.9833950996398926,0.6647601127624512,0.7012795805931091,-0.27506449818611145,0.9229140877723694,0.30933207273483276,0.4416234493255615,-1.2008237838745117,0.9740613698959351,0.6527935266494751,0.7036469578742981,-0.34941738843917847,0.9302692413330078,0.30471038818359375,0.42001593112945557,-1.227453589439392,0.9739556312561035,0.6421149969100952,0.6946654319763184,-0.2502951920032501,0.9325075745582581,0.30897098779678345,0.42282164096832275,-1.115625023841858,0.9659823179244995,0.5538227558135986,0.6492066979408264,0.0327453576028347,0.9966819882392883,0.3981679677963257,0.6597169637680054,-0.032726600766181946,0.9933872818946838,0.54582279920578,0.8777097463607788,-0.09570971876382828,0.6326539516448975,0.4125862419605255,0.8688695430755615,-0.08778679370880127,0.5658021569252014,0.5315145254135132,1.0620017051696777,0.42965489625930786,0.26964184641838074,0.4296474754810333,1.0550543069839478,0.3604187071323395,0.2649870812892914,0.515866219997406,1.0822221040725708,0.4642409384250641,0.2275734394788742,0.4358898103237152,1.0727720260620117,0.39280590415000916,0.1333579272031784,0.5604105591773987,1.1337953805923462,0.17830979824066162,0.19579128921031952,0.44183558225631714,1.1317311525344849,0.06112239509820938,0.18828143179416656
14703.708641865407,0.46231842041015625,0.2792937457561493,-0.6407966017723083,0.9996378421783447,0.47548142075538635,0.2584841251373291,-0.6008606553077698,0.9993332028388977,0.4853232800960541,0.2583906352519989,-0.60114586353302,0.9993388056755066,0.4949127733707428,0.2582641541957855,-0.6013922095298767,0.9992827773094177,0.44453176856040955,0.25677791237831116,-0.6119719743728638,0.9989681243896484,0.42978787422180176,0.2559528052806854,-0.612097978591919,0.9989678859710693,0.41693419218063354,0.2555846869945526,-0.6122461557388306,0.9987871050834656,0.5017597079277039,0.2634342312812805,-0.3016696274280548,0.9993981122970581,0.3900771737098694,0.2628505527973175,-0.3615420162677765,0.9984201192855835,0.47490182518959045,0.30017372965812683,-0.5223574042320251,0.999697208404541,0.43229544162750244,0.3017333745956421,-0.5394118428230286,0.9995094537734985,0.5724172592163086,0.37604597210884094,-0.1066148653626442,0.9998503923416138,0.3043036460876465,0.3831180930137634,-0.18251219391822815,0.9987396597862244,0.5995625257492065,0.5267069339752197,0.048358142375946045,0.9491152763366699,0.29337552189826965,0.556656539440155,-0.46904224157333374,0.930670440196991,0.6486449837684631,0.6573942303657532,-0.14801864326000214,0.9543408155441284,0.3066655993461609,0.4632899761199951,-1.0921281576156616,0.9801520705223083,0.6633210778236389,0.7002220749855042,-0.19954532384872437,0.9248246550559998,0.31063753366470337,0.43709516525268555,-1.201950192451477,0.9697462916374207,0.652964174747467,0.7030228972434998,-0.27375978231430054,0.9321987628936768,0.3059222102165222,0.417820006608963,-1.227268934249878,0.9697120189666748,0.6426073312759399,0.6933408975601196,-0.17775055766105652,0.9339244961738586,0.31068530678749084,0.42094823718070984,-1.1141057014465332,0.9612299799919128,0.5536773204803467,0.654974102973938,0.034576207399368286,0.9968661665916443,0.3970794975757599,0.6660889387130737,-0.034439463168382645,0.9932037591934204,0.5429491400718689,0.8812985420227051,-0.10742950439453125,0.650634765625,0.41249656677246094,0.872480034828186,-0.07806550711393356,0.5370243191719055,0.5289939641952515,1.0650417804718018,0.45163866877555847,0.26827824115753174,0.43108314275741577,1.0579512119293213,0.40990737080574036,0.2417631298303604,0.5143464207649231,1.0849888324737549,0.4897572100162506,0.23320318758487701,0.43728429079055786,1.0754915475845337,0.4464353024959564,0.12676407396793365,0.5536190271377563,1.1363941431045532,0.2004876434803009,0.18714837729930878,0.4443477988243103,1.1338958740234375,0.11048664152622223,0.17141960561275482
14720.375308532073,0.4633902609348297,0.27924418449401855,-0.6852121353149414,0.9996535778045654,0.4756038188934326,0.25813329219818115,-0.6463192105293274,0.9993131160736084,0.48566845059394836,0.2579940855503082,-0.6465682983398438,0.9993213415145874,0.4949412941932678,0.25780627131462097,-0.6467941999435425,0.9992572665214539,0.4450203776359558,0.2567260265350342,-0.6573095321655273,0.998954176902771,0.4300716817378998,0.2561028301715851,-0.6574425101280212,0.9989629983901978,0.41722816228866577,0.256018728017807,-0.6575847864151001,0.9987927675247192,0.5010774731636047,0.2629038989543915,-0.3488684892654419,0.9993858337402344,0.3901507556438446,0.26384252309799194,-0.40768706798553467,0.9983044862747192,0.4757365882396698,0.30022063851356506,-0.567105233669281,0.9996857643127441,0.43423590064048767,0.3021831512451172,-0.5839129090309143,0.9994707703590393,0.5728286504745483,0.3754979968070984,-0.14898067712783813,0.9998345375061035,0.30433547496795654,0.3833356201648712,-0.2195591777563095,0.9987186193466187,0.5998210310935974,0.5267986059188843,0.01822451315820217,0.9487928748130798,0.2959440350532532,0.559104859828949,-0.49406763911247253,0.9274657964706421,0.6489796042442322,0.6571919918060303,-0.1653723567724228,0.9514656066894531,0.3068259060382843,0.4654449224472046,-1.1173081398010254,0.9799398183822632,0.6628689169883728,0.6997825503349304,-0.21269632875919342,0.9203396439552307,0.3096354603767395,0.43905067443847656,-1.2267428636550903,0.9704022407531738,0.6532101631164551,0.702315628528595,-0.2882622182369232,0.927124559879303,0.30396679043769836,0.41851961612701416,-1.2532963752746582,0.9703022241592407,0.6429495811462402,0.6928414106369019,-0.19496384263038635,0.9299156069755554,0.3090214729309082,0.42199358344078064,-1.139981985092163,0.9615333080291748,0.5535613298416138,0.6544947624206543,0.029637495055794716,0.9970917701721191,0.39804786443710327,0.6639084815979004,-0.02954852394759655,0.9939457774162292,0.5416985154151917,0.8820773959159851,-0.09564638882875443,0.6977083683013916,0.4124714434146881,0.875284731388092,-0.06581838428974152,0.6013244390487671,0.5236468315124512,1.06173837184906,0.46830832958221436,0.3278941512107849,0.42815297842025757,1.056746006011963,0.4257773160934448,0.30849024653434753,0.5088433623313904,1.0812171697616577,0.506604790687561,0.2655152380466461,0.4359748959541321,1.0743041038513184,0.46252140402793884,0.15942370891571045,0.5475172996520996,1.1350078582763672,0.21602679789066315,0.2376122623682022,0.4375583529472351,1.1343951225280762,0.12620364129543304,0.22514989972114563
14737.04197519874,0.4661228060722351,0.2788717448711395,-0.5973230600357056,0.999735414981842,0.47803419828414917,0.2584715485572815,-0.5569027066230774,0.9995181560516357,0.4879516661167145,0.25835850834846497,-0.5572126507759094,0.9995206594467163,0.49682268500328064,0.2581668496131897,-0.5574958920478821,0.9994856119155884,0.4485839307308197,0.2567766308784485,-0.5692209005355835,0.9992609620094299,0.43374505639076233,0.25583067536354065,-0.5693427324295044,0.9992499947547913,0.4207077920436859,0.2554848790168762,-0.5694528818130493,0.9991282820701599,0.5018265843391418,0.2630373239517212,-0.2598106861114502,0.9995787739753723,0.3910346031188965,0.26273223757743835,-0.324507474899292,0.9989179372787476,0.4773590862751007,0.29976141452789307,-0.4793833792209625,0.9997716546058655,0.43645837903022766,0.30106616020202637,-0.49790242314338684,0.9996346235275269,0.570974588394165,0.3755592703819275,-0.07357732951641083,0.9998866319656372,0.30328768491744995,0.38211390376091003,-0.14182189106941223,0.9990195035934448,0.599540114402771,0.5261650681495667,0.07340440154075623,0.9474728107452393,0.2931406497955322,0.5578425526618958,-0.4135608971118927,0.931258499622345,0.6489834189414978,0.6556163430213928,-0.1310947984457016,0.9523062705993652,0.3054094612598419,0.4617348611354828,-1.0286140441894531,0.9837982058525085,0.6645605564117432,0.697199285030365,-0.18474459648132324,0.924015998840332,0.30946964025497437,0.43733274936676025,-1.1381213665008545,0.974651038646698,0.6538242101669312,0.6998922824859619,-0.2597356140613556,0.9321630597114563,0.3050447404384613,0.41603127121925354,-1.1644657850265503,0.974726676940918,0.6433740258216858,0.6907040476799011,-0.16176003217697144,0.933798611164093,0.3093481659889221,0.419180691242218,-1.050780177116394,0.967366635799408,0.5538684129714966,0.6525195240974426,0.030037803575396538,0.9971098303794861,0.398357093334198,0.6647362112998962,-0.029900699853897095,0.9932118654251099,0.546629786491394,0.8821525573730469,-0.14097021520137787,0.6933149695396423,0.41233307123184204,0.8783534169197083,-0.07917319983243942,0.5587031245231628,0.5334790349006653,1.0740342140197754,0.39719322323799133,0.27770280838012695,0.4318839907646179,1.0640654563903809,0.3956765830516815,0.2530249059200287,0.5193102955818176,1.0949833393096924,0.4331168830394745,0.22012171149253845,0.4393518567085266,1.0829150676727295,0.43056079745292664,0.12842033803462982,0.5581595301628113,1.1443016529083252,0.14236292243003845,0.18527115881443024,0.4415629506111145,1.1385406255722046,0.0996665507555008,0.17496609687805176
14753.708641865405,0.4671749174594879,0.2812824547290802,-0.6323997378349304,0.9997121691703796,0.47896066308021545,0.26065871119499207,-0.593571126461029,0.9994811415672302,0.4883294701576233,0.2602599263191223,-0.5938659310340881,0.9994879961013794,0.49674493074417114,0.2598298490047455,-0.5941605567932129,0.999458372592926,0.45017844438552856,0.25964805483818054,-0.6071630716323853,0.999196469783783,0.4353577196598053,0.2586931884288788,-0.6072933077812195,0.9991744160652161,0.4222838878631592,0.25829988718032837,-0.607408344745636,0.9990319013595581,0.5009651184082031,0.26385465264320374,-0.29246407747268677,0.9995850920677185,0.3920610249042511,0.26436272263526917,-0.36220642924308777,0.9988138675689697,0.47884035110473633,0.3010614514350891,-0.5115095973014832,0.9997764229774475,0.4397575259208679,0.3025747537612915,-0.5315787196159363,0.9996131062507629,0.572571873664856,0.37508442997932434,-0.09454217553138733,0.9999011754989624,0.3035861849784851,0.38192951679229736,-0.16967986524105072,0.9990221261978149,0.5992094874382019,0.5251196622848511,0.06459492444992065,0.9494014382362366,0.29621192812919617,0.5575746893882751,-0.43832898139953613,0.9195345044136047,0.6485555768013,0.6552112102508545,-0.13546964526176453,0.9523437023162842,0.30553001165390015,0.46221548318862915,-1.0562232732772827,0.9808720350265503,0.6634949445724487,0.6973263621330261,-0.1881912499666214,0.9243193864822388,0.3090200424194336,0.4398219585418701,-1.1659064292907715,0.9705833196640015,0.6529155969619751,0.7003769278526306,-0.26522207260131836,0.9327388405799866,0.30506816506385803,0.4178527593612671,-1.1948883533477783,0.970586895942688,0.6423511505126953,0.6907510161399841,-0.1665264070034027,0.9336280822753906,0.3095026910305023,0.42042267322540283,-1.0795390605926514,0.9623193740844727,0.555988609790802,0.6511804461479187,0.032447800040245056,0.9970654845237732,0.39887869358062744,0.6615504026412964,-0.032327137887477875,0.9931761622428894,0.5459401607513428,0.8836067914962769,-0.13987256586551666,0.7393143177032471,0.4126315116882324,0.8786007761955261,-0.07960052788257599,0.5957523584365845,0.5303066968917847,1.0743794441223145,0.41243571043014526,0.3231917917728424,0.42871999740600586,1.0649093389511108,0.41046932339668274,0.2846561670303345,0.5162376165390015,1.0945378541946411,0.4491673707962036,0.23234765231609344,0.43671679496765137,1.0836381912231445,0.4461303651332855,0.13679639995098114,0.5524170994758606,1.1467366218566895,0.14942514896392822,0.21136711537837982,0.4371848702430725,1.1406713724136353,0.1071922704577446,0.19564400613307953
14770.375308532071,0.4676211178302765,0.27958276867866516,-0.6713752746582031,0.999758780002594,0.4797604978084564,0.25831493735313416,-0.631334662437439,0.9995390176773071,0.4895644187927246,0.25814083218574524,-0.6315999031066895,0.9995248317718506,0.49790433049201965,0.2580835819244385,-0.6318599581718445,0.9994890689849854,0.4511268734931946,0.25716084241867065,-0.6454071402549744,0.9993274211883545,0.43704402446746826,0.25634443759918213,-0.645540714263916,0.9993046522140503,0.4234641492366791,0.2560533583164215,-0.645664393901825,0.9992055296897888,0.5020357966423035,0.2631961405277252,-0.3270566463470459,0.9995827078819275,0.39162448048591614,0.2621595561504364,-0.3997383415699005,0.9989926218986511,0.4783909320831299,0.30054259300231934,-0.5498613119125366,0.9997885823249817,0.4390716552734375,0.301083505153656,-0.5708139538764954,0.9996626377105713,0.5699465274810791,0.37539246678352356,-0.12155383080244064,0.9998770952224731,0.30238163471221924,0.381978839635849,-0.20835666358470917,0.9991238713264465,0.5993848443031311,0.5254754424095154,0.052334606647491455,0.9428427815437317,0.29516512155532837,0.5602553486824036,-0.4774331748485565,0.9294822812080383,0.6493933796882629,0.6553859710693359,-0.13242653012275696,0.9487031698226929,0.30667543411254883,0.4659390449523926,-1.0905307531356812,0.9830980896949768,0.6639347076416016,0.6973204016685486,-0.18048255145549774,0.9194799661636353,0.30831921100616455,0.4427599310874939,-1.1999188661575317,0.9741823077201843,0.6531212329864502,0.7003695368766785,-0.2577449083328247,0.9268945455551147,0.3032745122909546,0.4186854660511017,-1.2282555103302002,0.9740057587623596,0.6426555514335632,0.6908751726150513,-0.16295970976352692,0.9281783103942871,0.30722811818122864,0.4210405945777893,-1.1131482124328613,0.9660521745681763,0.554394543170929,0.6524473428726196,0.03277429938316345,0.9975780844688416,0.3985799252986908,0.662199854850769,-0.03270496055483818,0.9949017763137817,0.5471961498260498,0.8811668157577515,-0.10754578560590744,0.732376217842102,0.4154016375541687,0.8778013586997986,-0.056032974272966385,0.5946757793426514,0.5300258994102478,1.06803560256958,0.447837233543396,0.32519757747650146,0.43569356203079224,1.0619738101959229,0.4488319456577301,0.29684996604919434,0.5154238343238831,1.0881540775299072,0.4848152697086334,0.23965443670749664,0.4450362026691437,1.0808366537094116,0.4861229658126831,0.15123380720615387,0.5547856688499451,1.1407984495162964,0.18798814713954926,0.22927820682525635,0.439339280128479,1.138113260269165,0.14851684868335724,0.2149227410554886
14787.041975198737,0.46371734142303467,0.27924486994743347,-0.6552624702453613,0.9997356534004211,0.47708413004875183,0.25883835554122925,-0.6154553294181824,0.9994915723800659,0.4875498116016388,0.25893858075141907,-0.6157345771789551,0.9994957447052002,0.496720552444458,0.25901150703430176,-0.615999698638916,0.9994396567344666,0.44661834836006165,0.25682100653648376,-0.6260725259780884,0.9992130994796753,0.43202537298202515,0.25596949458122253,-0.6261820793151855,0.9992085099220276,0.41927194595336914,0.2556406557559967,-0.6262887716293335,0.9990720748901367,0.5037115812301636,0.2646785080432892,-0.3137337267398834,0.9995790123939514,0.3913806080818176,0.2630593180656433,-0.3707309663295746,0.9988732933998108,0.47555631399154663,0.30065271258354187,-0.5351049900054932,0.9997720122337341,0.4340374767780304,0.3017803132534027,-0.5515010356903076,0.9996165037155151,0.5721637010574341,0.37547555565834045,-0.11420561373233795,0.9998559951782227,0.3061618208885193,0.38053497672080994,-0.17720648646354675,0.9989198446273804,0.5981952548027039,0.5269194841384888,0.052866172045469284,0.939781904220581,0.30035853385925293,0.5517229437828064,-0.4423768222332001,0.9061012864112854,0.6489986777305603,0.6561981439590454,-0.12835869193077087,0.935985267162323,0.31116971373558044,0.4652565121650696,-1.0576244592666626,0.9737212061882019,0.6628576517105103,0.6979299187660217,-0.17558793723583221,0.901039183139801,0.31381893157958984,0.43962928652763367,-1.1662962436676025,0.9627292156219482,0.6550248861312866,0.7024746537208557,-0.25417521595954895,0.9097782969474792,0.3096275329589844,0.4165218770503998,-1.1925688982009888,0.962568461894989,0.6443686485290527,0.6916368007659912,-0.15952526032924652,0.9134889245033264,0.3141637444496155,0.420566201210022,-1.080120325088501,0.9519615173339844,0.5523384213447571,0.6489715576171875,0.024343639612197876,0.9977664947509766,0.39541125297546387,0.6585054993629456,-0.02421458624303341,0.9951854348182678,0.5434491038322449,0.8784582614898682,-0.11020968854427338,0.7269264459609985,0.4105866849422455,0.875062108039856,-0.05560307577252388,0.6171948909759521,0.5264763832092285,1.0614312887191772,0.4542100727558136,0.3487529158592224,0.4343635141849518,1.0541980266571045,0.4426722526550293,0.337399959564209,0.513239860534668,1.081845998764038,0.49234437942504883,0.268505334854126,0.4445268511772156,1.0728840827941895,0.47971296310424805,0.18264229595661163,0.5515334606170654,1.1325793266296387,0.20068535208702087,0.25132548809051514,0.4359319508075714,1.1299188137054443,0.14752794802188873,0.24871987104415894
14803.708641865403,0.4660296142101288,0.2829429805278778,-0.6894431114196777,0.9997532963752747,0.48105087876319885,0.26118767261505127,-0.6528756618499756,0.9995160102844238,0.4915916323661804,0.26082661747932434,-0.6531441807746887,0.9995030164718628,0.49993035197257996,0.26070883870124817,-0.6534000635147095,0.999446451663971,0.44900473952293396,0.26047343015670776,-0.6637574434280396,0.9993047714233398,0.43307000398635864,0.2599393427371979,-0.6639006733894348,0.9992973804473877,0.4184707701206207,0.2596331536769867,-0.6640117168426514,0.9992062449455261,0.5066636800765991,0.2657299339771271,-0.35460713505744934,0.9995121955871582,0.3898771405220032,0.26573967933654785,-0.41448619961738586,0.9989655017852783,0.4782651364803314,0.3034321367740631,-0.5696061849594116,0.9997721314430237,0.4357062578201294,0.3043399751186371,-0.5866894125938416,0.9996805191040039,0.5723272562026978,0.37547534704208374,-0.14413069188594818,0.9998561143875122,0.3029208779335022,0.38223952054977417,-0.20403118431568146,0.999228835105896,0.6005392670631409,0.5259720087051392,0.03513509780168533,0.937912106513977,0.29242077469825745,0.5577349066734314,-0.4499589800834656,0.9359385967254639,0.6492146253585815,0.6580117344856262,-0.15891844034194946,0.9399878978729248,0.3016899526119232,0.4619252681732178,-1.0728148221969604,0.9851970672607422,0.6621351838111877,0.7011886835098267,-0.20912808179855347,0.9062674045562744,0.30440932512283325,0.4376736879348755,-1.1809790134429932,0.976693868637085,0.6537306308746338,0.705852210521698,-0.2862328588962555,0.9156585335731506,0.2999405562877655,0.4148416221141815,-1.2071058750152588,0.9766687750816345,0.6431124210357666,0.6945425271987915,-0.1896159052848816,0.918746829032898,0.3046095371246338,0.41877877712249756,-1.0942057371139526,0.9696318507194519,0.5547580122947693,0.6515018343925476,0.03357782959938049,0.996776282787323,0.39874130487442017,0.662179172039032,-0.03355944901704788,0.9933439493179321,0.5461425185203552,0.8786201477050781,-0.10855621844530106,0.6841439008712769,0.41300472617149353,0.8741768598556519,-0.07051035761833191,0.5850967168807983,0.5306938886642456,1.0651402473449707,0.462140828371048,0.27670547366142273,0.42587709426879883,1.057308554649353,0.43321606516838074,0.254621684551239,0.5157394409179688,1.0847970247268677,0.5017451643943787,0.22067801654338837,0.43150824308395386,1.0745534896850586,0.47139978408813477,0.12382016330957413,0.5562796592712402,1.1371283531188965,0.20947033166885376,0.18748463690280914,0.4402426481246948,1.1344304084777832,0.13237032294273376,0.17219474911689758
