time,X_NOSE,Y_NOSE,Z_NOSE,visibility_NOSE,X_LEFT_EYE_INNER,Y_LEFT_EYE_INNER,Z_LEFT_EYE_INNER,visibility_LEFT_EYE_INNER,X_LEFT_EYE,Y_LEFT_EYE,Z_LEFT_EYE,visibility_LEFT_EYE,X_LEFT_EYE_OUTER,Y_LEFT_EYE_OUTER,Z_LEFT_EYE_OUTER,visibility_LEFT_EYE_OUTER,X_RIGHT_EYE_OUTER,Y_RIGHT_EYE_OUTER,Z_RIGHT_EYE_OUTER,visibility_RIGHT_EYE_OUTER,X_RIGHT_EYE,Y_RIGHT_EYE,Z_RIGHT_EYE,visibility_RIGHT_EYE,X_RIGHT_EYE_OUTER,Y_RIGHT_EYE_OUTER,Z_RIGHT_EYE_OUTER,visibility_RIGHT_EYE_OUTER,X_LEFT_EAR,Y_LEFT_EAR,Z_LEFT_EAR,visibility_LEFT_EAR,X_RIGHT_EAR,Y_RIGHT_EAR,Z_RIGHT_EAR,visibility_RIGHT_EAR,X_MOUTH_LEFT,Y_MOUTH_LEFT,Z_MOUTH_LEFT,visibility_MOUTH_LEFT,X_MOUTH_RIGHT,Y_MOUTH_RIGHT,Z_MOUTH_RIGHT,visibility_MOUTH_RIGHT,X_LEFT_SHOULDER,Y_LEFT_SHOULDER,Z_LEFT_SHOULDER,visibility_LEFT_SHOULDER,X_RIGHT_SHOULDER,Y_RIGHT_SHOULDER,Z_RIGHT_SHOULDER,visibility_RIGHT_SHOULDER,X_LEFT_ELBOW,Y_LEFT_ELBOW,Z_LEFT_ELBOW,visibility_LEFT_ELBOW,X_RIGHT_ELBOW,Y_RIGHT_ELBOW,Z_RIGHT_ELBOW,visibility_RIGHT_ELBOW,X_LEFT_WRIST,Y_LEFT_WRIST,Z_LEFT_WRIST,visibility_LEFT_WRIST,X_RIGHT_WRIST,Y_RIGHT_WRIST,Z_RIGHT_WRIST,visibility_RIGHT_WRIST,X_LEFT_PINKY,Y_LEFT_PINKY,Z_LEFT_PINKY,visibility_LEFT_PINKY,X_RIGHT_PINKY,Y_RIGHT_PINKY,Z_RIGHT_PINKY,visibility_RIGHT_PINKY,X_LEFT_INDEX,Y_LEFT_INDEX,Z_LEFT_INDEX,visibility_LEFT_INDEX,X_RIGHT_INDEX,Y_RIGHT_INDEX,Z_RIGHT_INDEX,visibility_RIGHT_INDEX,X_LEFT_THUMB,Y_LEFT_THUMB,Z_LEFT_THUMB,visibility_LEFT_THUMB,X_RIGHT_THUMB,Y_RIGHT_THUMB,Z_RIGHT_THUMB,visibility_RIGHT_THUMB,X_LEFT_HIP,Y_LEFT_HIP,Z_LEFT_HIP,visibility_LEFT_HIP,X_RIGHT_HIP,Y_RIGHT_HIP,Z_RIGHT_HIP,visibility_RIGHT_HIP,X_LEFT_KNEE,Y_LEFT_KNEE,Z_LEFT_KNEE,visibility_LEFT_KNEE,X_RIGHT_KNEE,Y_RIGHT_KNEE,Z_RIGHT_KNEE,visibility_RIGHT_KNEE,X_LEFT_ANKLE,Y_LEFT_ANKLE,Z_LEFT_ANKLE,visibility_LEFT_ANKLE,X_RIGHT_ANKLE,Y_RIGHT_ANKLE,Z_RIGHT_ANKLE,visibility_RIGHT_ANKLE,X_LEFT_HEEL,Y_LEFT_HEEL,Z_LEFT_HEEL,visibility_LEFT_HEEL,X_RIGHT_HEEL,Y_RIGHT_HEEL,Z_RIGHT_HEEL,visibility_RIGHT_HEEL,X_LEFT_FOOT_INDEX,Y_LEFT_FOOT_INDEX,Z_LEFT_FOOT_INDEX,visibility_LEFT_FOOT_INDEX,X_RIGHT_FOOT_INDEX,Y_RIGHT_FOOT_INDEX,Z_RIGHT_FOOT_INDEX,visibility_RIGHT_FOOT_INDEX
18838.97570765176,0.43081626296043396,0.23380118608474731,-1.0467575788497925,0.9999935626983643,0.4396609663963318,0.21071624755859375,-0.9854826927185059,0.9999877214431763,0.44845008850097656,0.20995724201202393,-0.9855486154556274,0.9999861717224121,0.4567834436893463,0.2090456783771515,-0.9855374693870544,0.9999825954437256,0.4049881100654602,0.21125450730323792,-1.0207966566085815,0.9999897480010986,0.386719673871994,0.21082621812820435,-1.020918846130371,0.9999896287918091,0.36695170402526855,0.21054533123970032,-1.0209417343139648,0.9999878406524658,0.4499647319316864,0.21573281288146973,-0.6150122880935669,0.9999847412109375,0.3183952569961548,0.21881386637687683,-0.7862414121627808,0.9999912977218628,0.4378325939178467,0.25688138604164124,-0.9074702262878418,0.9999951124191284,0.40306147933006287,0.25853878259658813,-0.9558278322219849,0.9999969005584717,0.515916109085083,0.3484269380569458,-0.35660502314567566,0.9999192953109741,0.16605998575687408,0.37089765071868896,-0.6222490072250366,0.9998530149459839,0.5679977536201477,0.5080937147140503,-0.10694516450166702,0.9767753481864929,0.1323876827955246,0.5322858095169067,-0.8183758854866028,0.9834205508232117,0.6364651918411255,0.6381544470787048,-0.3565482199192047,0.975033164024353,0.24725957214832306,0.5442949533462524,-1.3140020370483398,0.9661574363708496,0.6550424695014954,0.6795143485069275,-0.43475115299224854,0.9544398188591003,0.2923865020275116,0.5485585331916809,-1.436063289642334,0.9493439197540283,0.6427525281906128,0.679104208946228,-0.5281639099121094,0.958497166633606,0.28464534878730774,0.5193204283714294,-1.4809190034866333,0.9506895542144775,0.6333540678024292,0.6691514849662781,-0.39802756905555725,0.9597622156143188,0.27331069111824036,0.5160961151123047,-1.339485764503479,0.9382054805755615,0.48132631182670593,0.6289594173431396,0.09804036468267441,0.9981868863105774,0.3084409832954407,0.6511716842651367,-0.0977703183889389,0.9985756874084473,0.4789542257785797,0.8293391466140747,0.3648853898048401,0.9587392807006836,0.33805814385414124,0.8640110492706299,0.11675924807786942,0.9818499684333801,0.48253798484802246,0.9605399966239929,1.109947919845581,0.9134408831596375,0.35524386167526245,0.9847096800804138,0.7367085814476013,0.9379582405090332,0.4638059437274933,0.9719921946525574,1.164050579071045,0.8739016056060791,0.3525346517562866,0.985784113407135,0.7840496897697449,0.7710874676704407,0.5472912192344666,1.0172474384307861,0.87859708070755,0.8780510425567627,0.40113094449043274,1.0748639106750488,0.40491926670074463,0.8521978855133057
18855.642374318428,0.42857787013053894,0.23509663343429565,-1.0180251598358154,0.9999920129776001,0.4370391368865967,0.21123436093330383,-0.9586240649223328,0.9999845027923584,0.4461199641227722,0.21004796028137207,-0.9587483406066895,0.9999828338623047,0.45426061749458313,0.20878320932388306,-0.9588062763214111,0.9999786615371704,0.4021676778793335,0.21255621314048767,-0.9921846985816956,0.9999867677688599,0.3829718232154846,0.2123652994632721,-0.9923323392868042,0.9999860525131226,0.3635435700416565,0.2121763527393341,-0.992397129535675,0.9999839067459106,0.44774511456489563,0.215487539768219,-0.5904315710067749,0.9999825954437256,0.314708411693573,0.22057536244392395,-0.7518185377120972,0.9999885559082031,0.4365641474723816,0.25797900557518005,-0.8781283497810364,0.999994158744812,0.4012446701526642,0.2600034475326538,-0.9238260388374329,0.9999960660934448,0.5179888010025024,0.3498023450374603,-0.33416885137557983,0.9999256134033203,0.1658591777086258,0.3705359101295471,-0.5810118317604065,0.9998461008071899,0.5669836401939392,0.5090482234954834,-0.10041975229978561,0.9778383374214172,0.132317453622818,0.5320206880569458,-0.7768877744674683,0.9810246229171753,0.6358827352523804,0.6362979412078857,-0.37374114990234375,0.9734426736831665,0.24892260134220123,0.547030508518219,-1.2906577587127686,0.9641566276550293,0.6544703245162964,0.6779423952102661,-0.45796534419059753,0.9525020122528076,0.2949720025062561,0.5513214468955994,-1.4141781330108643,0.947090208530426,0.6442723274230957,0.6774734258651733,-0.5543584227561951,0.9570476412773132,0.28783944249153137,0.5219237804412842,-1.4605118036270142,0.9485506415367126,0.6363363265991211,0.668154239654541,-0.41706153750419617,0.9587224721908569,0.27645742893218994,0.5189039707183838,-1.3171086311340332,0.93562251329422,0.48279064893722534,0.6305178999900818,0.0850374773144722,0.99752277135849,0.30743876099586487,0.6524128317832947,-0.08463414013385773,0.9981337189674377,0.477674275636673,0.8356045484542847,0.286560595035553,0.9598296880722046,0.33714163303375244,0.8686478137969971,0.07822275161743164,0.9788215160369873,0.47903546690940857,0.9665204286575317,1.045340895652771,0.9003742933273315,0.3623439073562622,0.9901100397109985,0.6955634951591492,0.9270766973495483,0.46137508749961853,0.9771528244018555,1.0998046398162842,0.8513250350952148,0.365674763917923,0.9912893772125244,0.7418799996376038,0.7353295683860779,0.5456184148788452,1.0232789516448975,0.804373025894165,0.855665922164917,0.3886311948299408,1.0867810249328613,0.3520932197570801,0.8311744332313538
18872.309040985096,0.4306890070438385,0.23457637429237366,-1.0012632608413696,0.9999899864196777,0.4397801458835602,0.21129679679870605,-0.9373789429664612,0.9999809265136719,0.4486728012561798,0.21063503623008728,-0.9375213980674744,0.9999781847000122,0.4569352865219116,0.2098531723022461,-0.937584400177002,0.9999730587005615,0.40500444173812866,0.2116784155368805,-0.9730036854743958,0.9999836683273315,0.3862197697162628,0.21128204464912415,-0.9731441140174866,0.9999830722808838,0.36644285917282104,0.21105694770812988,-0.9732521176338196,0.9999809265136719,0.4508320689201355,0.21658319234848022,-0.5495064854621887,0.9999784231185913,0.31823304295539856,0.21980902552604675,-0.7201789021492004,0.9999876022338867,0.43762513995170593,0.25805896520614624,-0.8541097044944763,0.9999935626983643,0.4030080735683441,0.25940021872520447,-0.9027068614959717,0.9999958276748657,0.5182912945747375,0.350450336933136,-0.27314040064811707,0.9999194145202637,0.1669127494096756,0.3703571557998657,-0.5468159317970276,0.9998375177383423,0.5687640905380249,0.5104370713233948,-0.010064918547868729,0.9763489961624146,0.13143940269947052,0.5277942419052124,-0.7463616132736206,0.9796149134635925,0.6378659009933472,0.6375793814659119,-0.28983232378959656,0.9732241034507751,0.24714863300323486,0.5467987656593323,-1.2933605909347534,0.9637895226478577,0.6568784713745117,0.6784927845001221,-0.37471818923950195,0.9539991617202759,0.29499170184135437,0.5537607669830322,-1.4224456548690796,0.9482642412185669,0.6452237963676453,0.6780444383621216,-0.4736492335796356,0.9584152698516846,0.29091876745224,0.523912787437439,-1.47548246383667,0.9503227472305298,0.6364926099777222,0.6674851179122925,-0.3340780436992645,0.9594184160232544,0.27729541063308716,0.5202659368515015,-1.3222345113754272,0.9370586276054382,0.48010754585266113,0.635283887386322,0.08914083987474442,0.9978368878364563,0.3073905110359192,0.6556127071380615,-0.08879311382770538,0.9982218146324158,0.477480947971344,0.8394929766654968,0.24219174683094025,0.9639430046081543,0.3411363363265991,0.873382031917572,0.049838338047266006,0.9735960960388184,0.4854813516139984,0.9704939126968384,1.0642139911651611,0.9001682996749878,0.36094915866851807,0.9918054938316345,0.7094811201095581,0.9148725271224976,0.47216883301734924,0.9786072969436646,1.1243164539337158,0.8315196633338928,0.36162009835243225,0.9915997385978699,0.759784460067749,0.7007724642753601,0.5360660552978516,1.030648112297058,0.8103473782539368,0.8441905975341797,0.390953928232193,1.0963289737701416,0.34912192821502686,0.8100510239601135
18888.975707651764,0.42837926745414734,0.234432190656662,-0.9947794675827026,0.9999896287918091,0.4380721151828766,0.2110786736011505,-0.9313064217567444,0.9999798536300659,0.44731470942497253,0.21053370833396912,-0.9314368367195129,0.9999772310256958,0.45534780621528625,0.2099393606185913,-0.9314901232719421,0.9999712705612183,0.40322819352149963,0.2111596167087555,-0.964682400226593,0.9999821186065674,0.38419631123542786,0.21065106987953186,-0.9648104310035706,0.9999818801879883,0.36464354395866394,0.2103559672832489,-0.964907169342041,0.9999793767929077,0.45035722851753235,0.2163025140762329,-0.5469070076942444,0.999977707862854,0.3153495788574219,0.21893534064292908,-0.7083796262741089,0.9999854564666748,0.4354524612426758,0.2579657733440399,-0.8491599559783936,0.999993085861206,0.4000549614429474,0.2588411867618561,-0.8950221538543701,0.9999954700469971,0.5199070572853088,0.35068556666374207,-0.2839354872703552,0.9999252557754517,0.16117799282073975,0.3702683746814728,-0.5270552635192871,0.9998113512992859,0.5659964084625244,0.5124083161354065,-0.014317728579044342,0.9780028462409973,0.13275925815105438,0.5293029546737671,-0.7404894828796387,0.9769687056541443,0.6380198001861572,0.6412724256515503,-0.28102830052375793,0.9761871099472046,0.244495689868927,0.5484366416931152,-1.3157002925872803,0.9627683162689209,0.6561833024024963,0.6815989017486572,-0.36403217911720276,0.9588331580162048,0.2874470055103302,0.5519487261772156,-1.4472990036010742,0.9480684399604797,0.6426458358764648,0.6808558106422424,-0.46068763732910156,0.9627120494842529,0.279615193605423,0.5212201476097107,-1.4975669384002686,0.9502390027046204,0.6330908536911011,0.6700866222381592,-0.3233608901500702,0.9634726047515869,0.2685321569442749,0.5188811421394348,-1.3442248106002808,0.9370750784873962,0.4813292622566223,0.6346516609191895,0.07206109911203384,0.9982388019561768,0.30376729369163513,0.655798077583313,-0.07165268808603287,0.9984873533248901,0.47755852341651917,0.8377002477645874,0.21659091114997864,0.9650623798370361,0.336856871843338,0.8705684542655945,0.07174194604158401,0.9688396453857422,0.48334187269210815,0.9620018005371094,1.0884684324264526,0.8920983076095581,0.35391026735305786,0.9892674088478088,0.7654774188995361,0.9054964780807495,0.4666569232940674,0.9698681831359863,1.15470290184021,0.8193398714065552,0.35346719622612,0.9894229173660278,0.8202782273292542,0.6889709234237671,0.5288784503936768,1.024247646331787,0.85042804479599,0.8316293954849243,0.37265491485595703,1.085819959640503,0.4212573766708374,0.794104278087616
18905.64237431843,0.43067023158073425,0.23357868194580078,-1.0325758457183838,0.9999880790710449,0.43995004892349243,0.21009033918380737,-0.9690673351287842,0.9999780654907227,0.4489821791648865,0.20921778678894043,-0.969203770160675,0.9999755620956421,0.45760083198547363,0.2082338035106659,-0.9692718982696533,0.9999699592590332,0.4044730067253113,0.21100249886512756,-1.0034061670303345,0.9999803304672241,0.3859487771987915,0.21077829599380493,-1.0035550594329834,0.9999796152114868,0.36599424481391907,0.21065908670425415,-1.0036296844482422,0.9999765157699585,0.4515259265899658,0.21556562185287476,-0.5874171257019043,0.9999749660491943,0.3176400363445282,0.2197825014591217,-0.7537881731987,0.9999830722808838,0.4386248290538788,0.2569100260734558,-0.8887162208557129,0.9999920129776001,0.40285247564315796,0.25881144404411316,-0.9358426332473755,0.9999945163726807,0.5162733793258667,0.3505055904388428,-0.32702624797821045,0.9998992681503296,0.1671280562877655,0.3725726902484894,-0.5748624801635742,0.9997484087944031,0.5664539933204651,0.5116299390792847,-0.08267467468976974,0.9748740792274475,0.13284392654895782,0.5359787940979004,-0.7594161033630371,0.9719056487083435,0.6364105939865112,0.6401503086090088,-0.3578539490699768,0.9694074988365173,0.24808138608932495,0.5491160750389099,-1.27606201171875,0.9436445832252502,0.6553599834442139,0.6802881956100464,-0.4431959390640259,0.9476421475410461,0.29429951310157776,0.5525556802749634,-1.4015159606933594,0.9236264228820801,0.6435443162918091,0.6800006628036499,-0.5404207110404968,0.9526578783988953,0.28303560614585876,0.5221040844917297,-1.4506551027297974,0.9263901114463806,0.6339126825332642,0.6695026755332947,-0.401233434677124,0.9545283317565918,0.27156826853752136,0.5189063549041748,-1.30379319190979,0.9101967215538025,0.4816650450229645,0.6330217719078064,0.08952027559280396,0.9974512457847595,0.3083682060241699,0.6555185317993164,-0.08916012942790985,0.9978727102279663,0.48074957728385925,0.8347607851028442,0.2866165339946747,0.9581102728843689,0.337588906288147,0.8712120056152344,0.07423046976327896,0.9759058952331543,0.4845065474510193,0.9619483351707458,1.0981190204620361,0.8949922323226929,0.3550904095172882,0.9901669025421143,0.7251265048980713,0.9215759038925171,0.4673435688018799,0.9708630442619324,1.1582317352294922,0.8351626992225647,0.3517884910106659,0.989863395690918,0.7748823165893555,0.7110698819160461,0.5388242602348328,1.0219740867614746,0.8597841858863831,0.8444632887840271,0.38607877492904663,1.0881741046905518,0.3747635781764984,0.8160502910614014
18922.3090409851,0.4312066435813904,0.23411870002746582,-1.0306028127670288,0.9999942779541016,0.4400998055934906,0.21043890714645386,-0.9690120220184326,0.9999890327453613,0.4493725001811981,0.20919358730316162,-0.9690761566162109,0.9999874830245972,0.4580552875995636,0.2079259157180786,-0.969052791595459,0.9999839067459106,0.4044468402862549,0.2119455337524414,-1.001503586769104,0.9999905824661255,0.38558489084243774,0.21177762746810913,-1.00161874294281,0.9999904632568359,0.3657216727733612,0.211582750082016,-1.0016628503799438,0.9999889135360718,0.4515613615512848,0.21523720026016235,-0.5991515517234802,0.999985933303833,0.3161259889602661,0.22028610110282898,-0.7587632536888123,0.9999922513961792,0.43927279114723206,0.25738099217414856,-0.8918747305870056,0.9999958276748657,0.40358471870422363,0.25957512855529785,-0.936852216720581,0.9999973773956299,0.5175415277481079,0.35208821296691895,-0.34292978048324585,0.9999315738677979,0.16445358097553253,0.3712058961391449,-0.5963587760925293,0.9998654127120972,0.5663166046142578,0.511703610420227,-0.08851705491542816,0.9791110157966614,0.13259117305278778,0.5280110239982605,-0.7995092868804932,0.9842990636825562,0.6337800025939941,0.6382272243499756,-0.34307733178138733,0.9814463257789612,0.24629001319408417,0.5496594309806824,-1.3159022331237793,0.9702147841453552,0.6528531312942505,0.6797192692756653,-0.42414912581443787,0.9668435454368591,0.2959775924682617,0.5556125044822693,-1.4416083097457886,0.9560437798500061,0.6403826475143433,0.6791360378265381,-0.5196225643157959,0.9698938727378845,0.29217636585235596,0.5254127979278564,-1.487942099571228,0.9575808048248291,0.630658745765686,0.6691867113113403,-0.3852700889110565,0.970711350440979,0.27768704295158386,0.5220459699630737,-1.3422415256500244,0.9479288458824158,0.4801956117153168,0.629808783531189,0.08958125859498978,0.9983407258987427,0.30687153339385986,0.6525903940200806,-0.08925937861204147,0.9986845850944519,0.4796316623687744,0.8276585340499878,0.333060622215271,0.9615379571914673,0.33680590987205505,0.8663389086723328,0.1111583486199379,0.9803981184959412,0.4817746877670288,0.9584702253341675,1.1093708276748657,0.9093549251556396,0.3527759313583374,0.987004280090332,0.7419369220733643,0.9322211742401123,0.46251553297042847,0.9693187475204468,1.1666613817214966,0.8628086447715759,0.3497888743877411,0.9870474338531494,0.7911432385444641,0.7606707215309143,0.5383040904998779,1.0183045864105225,0.8835501670837402,0.8637799024581909,0.3863951563835144,1.0769164562225342,0.41230881214141846,0.8354161381721497
18938.975707651767,0.42972710728645325,0.23533284664154053,-1.0051422119140625,0.9999860525131226,0.4397226572036743,0.21186667680740356,-0.9410498738288879,0.9999738931655884,0.4490760862827301,0.2109401822090149,-0.9411928057670593,0.9999709129333496,0.4578517973423004,0.20983192324638367,-0.941277265548706,0.999963641166687,0.40370020270347595,0.21282249689102173,-0.9756683707237244,0.9999767541885376,0.38435184955596924,0.21262890100479126,-0.9758359789848328,0.9999765157699585,0.3643645644187927,0.21253952383995056,-0.9759408235549927,0.9999732971191406,0.4525311589241028,0.21640315651893616,-0.5586404204368591,0.9999716281890869,0.31497159600257874,0.22127163410186768,-0.7256899476051331,0.9999819993972778,0.43772175908088684,0.25854405760765076,-0.8607425689697266,0.9999910593032837,0.40151914954185486,0.2603602409362793,-0.9081793427467346,0.9999940395355225,0.5166586637496948,0.3509807884693146,-0.2954178750514984,0.9999014139175415,0.1637888103723526,0.3720833957195282,-0.5481009483337402,0.9997561573982239,0.567086935043335,0.5111709833145142,-0.03936634212732315,0.9742091298103333,0.13202004134655,0.531444787979126,-0.7492072582244873,0.9755472540855408,0.6382744312286377,0.6422767043113708,-0.3086196482181549,0.9691202640533447,0.24996840953826904,0.5491856336593628,-1.2874759435653687,0.9534288048744202,0.6553083658218384,0.6814667582511902,-0.39038074016571045,0.9478411078453064,0.29534751176834106,0.552700400352478,-1.4134886264801025,0.9348981380462646,0.6428273320198059,0.6807863712310791,-0.48710623383522034,0.9526569247245789,0.2854025661945343,0.5212111473083496,-1.4606457948684692,0.9372707605361938,0.6338632106781006,0.6705440282821655,-0.35140562057495117,0.9545382261276245,0.2744907736778259,0.5182600021362305,-1.3140989542007446,0.9224209785461426,0.4816421568393707,0.6341468095779419,0.07957947254180908,0.9976431727409363,0.30856412649154663,0.6566615700721741,-0.07921458780765533,0.9979661703109741,0.47876524925231934,0.8423013091087341,0.2230350524187088,0.9584592580795288,0.3394964933395386,0.8753398656845093,0.051006391644477844,0.9659866690635681,0.4845796525478363,0.9643778204917908,1.061075210571289,0.8785139322280884,0.357604444026947,0.9913638830184937,0.7177409529685974,0.8952009081840515,0.46833425760269165,0.9710693359375,1.1233325004577637,0.7944200038909912,0.35552075505256653,0.9889459609985352,0.7691235542297363,0.6521173715591431,0.5373175144195557,1.026024580001831,0.816651463508606,0.8120400309562683,0.3778960406780243,1.0933680534362793,0.36404624581336975,0.7757496237754822
18955.642374318435,0.42909467220306396,0.23522606492042542,-1.0447216033935547,0.999992847442627,0.4384196996688843,0.2110176384449005,-0.9851757884025574,0.999985933303833,0.44787541031837463,0.2098388373851776,-0.9852425456047058,0.9999841451644897,0.45653843879699707,0.2086036205291748,-0.9852277040481567,0.9999797344207764,0.4021168351173401,0.21252480149269104,-1.015885353088379,0.9999879598617554,0.38295525312423706,0.2124420702457428,-1.0160036087036133,0.9999878406524658,0.36356696486473083,0.2123170793056488,-1.0160672664642334,0.9999860525131226,0.4505963623523712,0.2158825695514679,-0.6180111169815063,0.9999828338623047,0.3153495490550995,0.22072318196296692,-0.7687727808952332,0.9999905824661255,0.4371781051158905,0.2587166428565979,-0.9062822461128235,0.9999947547912598,0.4010781943798065,0.2606453597545624,-0.9487316012382507,0.9999967813491821,0.5184243321418762,0.35143035650253296,-0.3541547656059265,0.9999266862869263,0.16364774107933044,0.37098100781440735,-0.6044773459434509,0.9998583793640137,0.5669662952423096,0.5106147527694702,-0.08642252534627914,0.976658284664154,0.13245585560798645,0.5272548198699951,-0.8073951601982117,0.9841148853302002,0.6355394124984741,0.63860023021698,-0.32223084568977356,0.9778939485549927,0.24565979838371277,0.5512540340423584,-1.3242112398147583,0.9683987498283386,0.6554081439971924,0.6796834468841553,-0.39936351776123047,0.9614201188087463,0.2931891083717346,0.5574306845664978,-1.4487744569778442,0.9534128904342651,0.6436947584152222,0.6790751218795776,-0.4944201409816742,0.9649708271026611,0.2882017493247986,0.5265533924102783,-1.4972788095474243,0.9551637172698975,0.6341522336006165,0.6691086888313293,-0.36383917927742004,0.9665205478668213,0.2756761610507965,0.5231270790100098,-1.3515568971633911,0.9456154704093933,0.48090657591819763,0.6283511519432068,0.08512835204601288,0.9983041286468506,0.3071921467781067,0.6514018774032593,-0.08478126674890518,0.9986151456832886,0.47906801104545593,0.8272388577461243,0.32481127977371216,0.9589663743972778,0.33847367763519287,0.8645483255386353,0.1150737777352333,0.9775720238685608,0.4819366931915283,0.9612340927124023,1.0926443338394165,0.903510570526123,0.35389140248298645,0.9863523244857788,0.7409869432449341,0.9213328957557678,0.46424630284309387,0.9710544347763062,1.14887273311615,0.8476955890655518,0.35005155205726624,0.9866983890533447,0.7900440096855164,0.738661527633667,0.5338244438171387,1.0235196352005005,0.8603640198707581,0.8502355813980103,0.38639870285987854,1.0774593353271484,0.41098690032958984,0.8142535090446472
18972.309040985103,0.4254152774810791,0.2363068163394928,-1.0777794122695923,0.9999927282333374,0.4369575083255768,0.21210834383964539,-1.0164183378219604,0.9999856948852539,0.4469483494758606,0.21162399649620056,-1.0164368152618408,0.9999837875366211,0.45550528168678284,0.2113427221775055,-1.0163507461547852,0.99997878074646,0.4015653431415558,0.21225222945213318,-1.0487592220306396,0.9999879598617554,0.38248410820961,0.21178790926933289,-1.048858642578125,0.9999881982803345,0.36334121227264404,0.2116570770740509,-1.0489048957824707,0.9999861717224121,0.4526318907737732,0.21796604990959167,-0.6390666365623474,0.9999817609786987,0.3147098422050476,0.2196815013885498,-0.7975714802742004,0.9999902248382568,0.4336932897567749,0.2601544260978699,-0.9358341097831726,0.9999942779541016,0.397818922996521,0.26039496064186096,-0.9804461598396301,0.9999966621398926,0.5205351114273071,0.3504684865474701,-0.3611144423484802,0.9999243021011353,0.16330496966838837,0.37133535742759705,-0.6277913451194763,0.9998512268066406,0.5666584968566895,0.5093069076538086,-0.06255824118852615,0.9779455065727234,0.1311117559671402,0.533707857131958,-0.850167453289032,0.9859021902084351,0.6353347301483154,0.6400657892227173,-0.28318706154823303,0.9813822507858276,0.2519559860229492,0.5460953116416931,-1.3959729671478271,0.971464991569519,0.6536182165145874,0.6812785267829895,-0.3562788963317871,0.9658048152923584,0.29703983664512634,0.5493603944778442,-1.5248368978500366,0.9564945101737976,0.6408852934837341,0.6803308725357056,-0.45054396986961365,0.96868896484375,0.292055606842041,0.5185185074806213,-1.5693637132644653,0.9575483202934265,0.6312654614448547,0.6694896221160889,-0.3232901990413666,0.9693109393119812,0.27991536259651184,0.516242265701294,-1.4216303825378418,0.9465009570121765,0.48117947578430176,0.6310238838195801,0.09308288991451263,0.9988815188407898,0.307127445936203,0.6527445316314697,-0.09274624288082123,0.9991018772125244,0.4819793105125427,0.823724091053009,0.3729446828365326,0.9677333831787109,0.33691737055778503,0.8643832802772522,0.1547146588563919,0.9824965000152588,0.47836628556251526,0.9536759257316589,1.198954463005066,0.9266713261604309,0.3491395115852356,0.9776467680931091,0.83822101354599,0.939717173576355,0.4581434726715088,0.9656473994255066,1.2615717649459839,0.8852144479751587,0.34631776809692383,0.979647159576416,0.8932338356971741,0.7859292030334473,0.5334084033966064,1.0178840160369873,0.9707640409469604,0.886630117893219,0.3857519328594208,1.0685944557189941,0.5109131932258606,0.8500659465789795
18988.97570765177,0.4300805628299713,0.23329782485961914,-1.0586915016174316,0.9999914169311523,0.4390650689601898,0.2099202573299408,-0.9920796751976013,0.9999833106994629,0.4481806457042694,0.20935246348381042,-0.9921571016311646,0.9999809265136719,0.45658543705940247,0.20869848132133484,-0.9921309947967529,0.9999755620956421,0.40378743410110474,0.21011382341384888,-1.0278444290161133,0.9999862909317017,0.3848651051521301,0.20967748761177063,-1.0279968976974487,0.9999864101409912,0.3655145466327667,0.20933285355567932,-1.0280948877334595,0.9999845027923584,0.45084455609321594,0.21575656533241272,-0.5977475643157959,0.9999794960021973,0.3177632689476013,0.21830269694328308,-0.7714277505874634,0.9999886751174927,0.43742313981056213,0.2565341889858246,-0.9112730622291565,0.9999938011169434,0.4016876220703125,0.2576747536659241,-0.9604547619819641,0.9999964237213135,0.5198365449905396,0.35160404443740845,-0.31851479411125183,0.9999121427536011,0.16114507615566254,0.37190404534339905,-0.6024303436279297,0.9998260140419006,0.5678532123565674,0.5105345249176025,-0.032865144312381744,0.9800264835357666,0.12982632219791412,0.5348056554794312,-0.8351125121116638,0.9863264560699463,0.6357623338699341,0.6386196613311768,-0.2882005572319031,0.9821311235427856,0.247079998254776,0.543499231338501,-1.406464695930481,0.9729442000389099,0.654172420501709,0.6800747513771057,-0.3684867322444916,0.9666973352432251,0.29111048579216003,0.5453777313232422,-1.5420851707458496,0.9580608010292053,0.6402888298034668,0.6791624426841736,-0.4663391709327698,0.9696714282035828,0.28288787603378296,0.5163108110427856,-1.586198329925537,0.9592123031616211,0.6302199959754944,0.6683745384216309,-0.3305812478065491,0.9698485732078552,0.2717752158641815,0.5119229555130005,-1.4322036504745483,0.9471305012702942,0.48002204298973083,0.6347599625587463,0.09760931879281998,0.9982900023460388,0.30158722400665283,0.6563399434089661,-0.0972549095749855,0.998670220375061,0.4808143675327301,0.8267723321914673,0.32938826084136963,0.9642787575721741,0.3340033292770386,0.8699142336845398,0.10342887043952942,0.9785258769989014,0.4780893325805664,0.9510528445243835,1.207076907157898,0.907477855682373,0.34978652000427246,0.9855749011039734,0.8078998923301697,0.9279703497886658,0.45650172233581543,0.9629625082015991,1.2750569581985474,0.8637551665306091,0.3474790155887604,0.9859796762466431,0.8638822436332703,0.7377252578735352,0.5289181470870972,1.014535665512085,0.9775506854057312,0.871444821357727,0.3934084177017212,1.0826842784881592,0.45627740025520325,0.8311441540718079
19005.64237431844,0.43017131090164185,0.2346198856830597,-1.056455135345459,0.9999948740005493,0.4401034414768219,0.21039637923240662,-0.9946133494377136,0.9999904632568359,0.44966578483581543,0.20935183763504028,-0.9946579933166504,0.9999892711639404,0.4587737023830414,0.20826256275177002,-0.994602382183075,0.9999860525131226,0.4034927189350128,0.21132004261016846,-1.0277376174926758,0.9999916553497314,0.38438427448272705,0.21093398332595825,-1.0278369188308716,0.9999916553497314,0.3643912374973297,0.2105748951435089,-1.0278747081756592,0.9999898672103882,0.45332071185112,0.21517223119735718,-0.615811288356781,0.9999887943267822,0.31415849924087524,0.2192724347114563,-0.7793787717819214,0.9999932050704956,0.4383023977279663,0.2579505145549774,-0.9137721657752991,0.9999961853027344,0.4017154574394226,0.2597920000553131,-0.9598953723907471,0.999997615814209,0.5189149975776672,0.3521833121776581,-0.3510953485965729,0.9999407529830933,0.1598777323961258,0.3709036409854889,-0.6026687026023865,0.999853253364563,0.5650697350502014,0.5098841786384583,-0.07464297860860825,0.982366144657135,0.12866634130477905,0.5287681221961975,-0.8298342227935791,0.9838114380836487,0.6373415589332581,0.6390488147735596,-0.31432053446769714,0.9849511384963989,0.2343459576368332,0.542657196521759,-1.3875081539154053,0.9663366675376892,0.6560965776443481,0.6803908944129944,-0.39144834876060486,0.9720583558082581,0.2799074351787567,0.5460830926895142,-1.5165395736694336,0.9507498741149902,0.6414532661437988,0.6795410513877869,-0.4889177978038788,0.9746341705322266,0.2719151973724365,0.5162863731384277,-1.5632468461990356,0.9525260329246521,0.6312966346740723,0.6694831252098083,-0.35612237453460693,0.9749363660812378,0.25961071252822876,0.5111743211746216,-1.4149361848831177,0.9417446255683899,0.47886204719543457,0.6290581226348877,0.08602414280176163,0.9987564086914062,0.3014557659626007,0.6501424908638,-0.08560965955257416,0.9990270137786865,0.47787851095199585,0.830078125,0.35509055852890015,0.9749572277069092,0.33336302638053894,0.8637110590934753,0.14199136197566986,0.9852240085601807,0.47837743163108826,0.9520370960235596,1.159354567527771,0.9399594664573669,0.3476855754852295,0.9849193692207336,0.7980250716209412,0.9498243927955627,0.45781347155570984,0.9626184701919556,1.219423770904541,0.9035596251487732,0.3455328345298767,0.9864422678947449,0.8496267199516296,0.8055040836334229,0.5314922332763672,1.01807701587677,0.9303510785102844,0.9013194441795349,0.3795153498649597,1.0737273693084717,0.4652857482433319,0.8659136891365051
19022.309040985107,0.4307215213775635,0.234330952167511,-1.07735276222229,0.9999942779541016,0.4401164948940277,0.21105951070785522,-1.0122487545013428,0.9999887943267822,0.4490925073623657,0.2105213701725006,-1.0122803449630737,0.9999868869781494,0.45758819580078125,0.2098645269870758,-1.0121973752975464,0.9999829530715942,0.4047836363315582,0.21130138635635376,-1.047161340713501,0.999990701675415,0.3859834372997284,0.21093016862869263,-1.0472832918167114,0.999990701675415,0.3659457564353943,0.21072998642921448,-1.0473531484603882,0.9999892711639404,0.4526277780532837,0.21686270833015442,-0.622474193572998,0.999984860420227,0.3171834945678711,0.21940836310386658,-0.7937132716178894,0.9999923706054688,0.43794289231300354,0.25751522183418274,-0.9314398765563965,0.9999953508377075,0.40227216482162476,0.2590126395225525,-0.9797797203063965,0.9999973773956299,0.520437479019165,0.35106730461120605,-0.3423062264919281,0.99992835521698,0.1628258377313614,0.37031441926956177,-0.6251264810562134,0.9998682737350464,0.5658829212188721,0.5108023881912231,-0.050896063446998596,0.9806457161903381,0.12818533182144165,0.5307831764221191,-0.8518888354301453,0.9878667593002319,0.6374494433403015,0.6391769647598267,-0.29793035984039307,0.9851474165916443,0.2530932128429413,0.5463066101074219,-1.4061146974563599,0.9766185283660889,0.6551051139831543,0.6799271106719971,-0.3770805299282074,0.9723453521728516,0.297513872385025,0.550153374671936,-1.5387794971466064,0.9637004733085632,0.6416148543357849,0.6792421340942383,-0.47498437762260437,0.9748076796531677,0.29441210627555847,0.5222031474113464,-1.5842173099517822,0.9647406339645386,0.6323384046554565,0.669006884098053,-0.3401406407356262,0.9749572277069092,0.2842428386211395,0.5192326903343201,-1.4317283630371094,0.9547762870788574,0.478328138589859,0.6334052085876465,0.09602028876543045,0.9988105297088623,0.30345800518989563,0.6535082459449768,-0.09571075439453125,0.9990801811218262,0.4797865152359009,0.825615406036377,0.3621026873588562,0.9666417241096497,0.33634892106056213,0.8618670105934143,0.13608944416046143,0.9819421172142029,0.47790151834487915,0.949325680732727,1.2079170942306519,0.9244967699050903,0.3477521240711212,0.9828681349754333,0.8256499171257019,0.9409478306770325,0.4561281204223633,0.9624226689338684,1.2727820873260498,0.8904247879981995,0.3466561734676361,0.9841118454933167,0.8809952139854431,0.7857316732406616,0.5344768166542053,1.0133131742477417,0.9842753410339355,0.8906669616699219,0.3871579170227051,1.0735094547271729,0.49084436893463135,0.8556450605392456
19038.975707651774,0.42986640334129333,0.23732423782348633,-1.0855892896652222,0.9999958276748657,0.4415207505226135,0.21274587512016296,-1.022135615348816,0.9999916553497314,0.4506170451641083,0.2122046947479248,-1.0221456289291382,0.9999903440475464,0.45934873819351196,0.211915522813797,-1.0220489501953125,0.9999871253967285,0.4059913456439972,0.21292099356651306,-1.056221604347229,0.9999929666519165,0.38762223720550537,0.21236512064933777,-1.056317687034607,0.9999929666519165,0.3679574429988861,0.21225112676620483,-1.05634343624115,0.999991774559021,0.4543066620826721,0.21821457147598267,-0.6374848484992981,0.9999891519546509,0.3183325529098511,0.22009587287902832,-0.8054831624031067,0.999994158744812,0.4371497631072998,0.26028457283973694,-0.9411899447441101,0.999996542930603,0.4012530446052551,0.26123878359794617,-0.9885650277137756,0.9999979734420776,0.5206589102745056,0.3507879972457886,-0.3690618574619293,0.9999462366104126,0.16101427376270294,0.3705885112285614,-0.6316720843315125,0.999887228012085,0.5666435956954956,0.5107489228248596,-0.0866047739982605,0.9823363423347473,0.12976740300655365,0.5310673713684082,-0.8674798011779785,0.9875425100326538,0.6355462074279785,0.639188826084137,-0.33190298080444336,0.9857536554336548,0.2496064156293869,0.5469187498092651,-1.4298244714736938,0.9769095778465271,0.6542620658874512,0.6806384325027466,-0.4111201763153076,0.9730291366577148,0.29574260115623474,0.5522135496139526,-1.5635331869125366,0.9642983675003052,0.6407134532928467,0.6796935796737671,-0.5074911117553711,0.9753373265266418,0.2915116548538208,0.5238282084465027,-1.6074273586273193,0.9653531312942505,0.6305993795394897,0.6691163182258606,-0.3734350800514221,0.9754588007926941,0.2803683876991272,0.520139217376709,-1.4556111097335815,0.9558582305908203,0.4770904779434204,0.6318652629852295,0.08238708227872849,0.9991433620452881,0.30046045780181885,0.652622401714325,-0.08203316479921341,0.9993318915367126,0.47826075553894043,0.8237849473953247,0.34989574551582336,0.9746723175048828,0.33395588397979736,0.8554906249046326,0.16196903586387634,0.9850150942802429,0.4784924387931824,0.9461897015571594,1.2157293558120728,0.9421095848083496,0.34691599011421204,0.9771057963371277,0.8735664486885071,0.9559948444366455,0.45831289887428284,0.9599273800849915,1.2826520204544067,0.9119065403938293,0.34905505180358887,0.9799607992172241,0.9312257170677185,0.8305417895317078,0.5355658531188965,1.0133256912231445,0.9988273978233337,0.9112733006477356,0.37242111563682556,1.0636165142059326,0.5527731776237488,0.8871189951896667
19055.642374318442,0.4304913878440857,0.2344135046005249,-1.1010570526123047,0.9999961853027344,0.44056445360183716,0.21112138032913208,-1.0346019268035889,0.9999927282333374,0.4497527480125427,0.210527241230011,-1.0346394777297974,0.9999914169311523,0.4586813151836395,0.2097555696964264,-1.034546136856079,0.9999889135360718,0.40492910146713257,0.21129301190376282,-1.0681687593460083,0.9999935626983643,0.3861687481403351,0.21079301834106445,-1.0682522058486938,0.9999934434890747,0.36607179045677185,0.2104583978652954,-1.068281888961792,0.9999922513961792,0.453806072473526,0.21596786379814148,-0.6390894055366516,0.9999899864196777,0.31655654311180115,0.21855497360229492,-0.8055371046066284,0.9999943971633911,0.43805715441703796,0.2576807141304016,-0.9534835815429688,0.9999969005584717,0.4016225337982178,0.2588881254196167,-1.0004768371582031,0.9999982118606567,0.518989086151123,0.35179415345191956,-0.36893922090530396,0.9999465942382812,0.1624026745557785,0.36956608295440674,-0.6163910627365112,0.9998685121536255,0.5651850700378418,0.5126463174819946,-0.10124657303094864,0.982515811920166,0.12823858857154846,0.5285589098930359,-0.8419599533081055,0.9844121336936951,0.636206865310669,0.6401832103729248,-0.3787822127342224,0.9856975078582764,0.23930443823337555,0.5436117053031921,-1.4211924076080322,0.9718620777130127,0.6533763408660889,0.6821255087852478,-0.46574145555496216,0.9730075001716614,0.2910313606262207,0.5488483309745789,-1.557469129562378,0.957737386226654,0.6392903923988342,0.6808514595031738,-0.5651327967643738,0.9753913879394531,0.2819478213787079,0.5196200013160706,-1.6043559312820435,0.9592399597167969,0.6292583346366882,0.67041015625,-0.4224499762058258,0.9753330945968628,0.27014097571372986,0.5160523653030396,-1.4486526250839233,0.9489747881889343,0.4775189757347107,0.6317193508148193,0.0826551541686058,0.9990799427032471,0.3025999069213867,0.652346670627594,-0.08231933414936066,0.9992434978485107,0.48024773597717285,0.8237494230270386,0.36013874411582947,0.9755025506019592,0.33474987745285034,0.8573163747787476,0.16364295780658722,0.984924852848053,0.4786530137062073,0.9480840563774109,1.213783621788025,0.9438340067863464,0.3484814763069153,0.9797088503837585,0.8682949542999268,0.9542567729949951,0.4589327871799469,0.9613179564476013,1.2784277200698853,0.9060326218605042,0.34921368956565857,0.9827519059181213,0.9246568083763123,0.8207590579986572,0.5338389277458191,1.0140843391418457,0.9804937243461609,0.9114490747451782,0.37879475951194763,1.0651590824127197,0.5366482734680176,0.8843045830726624
19072.30904098511,0.4282407760620117,0.2386523187160492,-1.13603675365448,0.9999961853027344,0.4401550889015198,0.21352875232696533,-1.0706019401550293,0.9999924898147583,0.4494444727897644,0.21285155415534973,-1.0706137418746948,0.9999912977218628,0.4579048752784729,0.2125931680202484,-1.0705183744430542,0.9999884366989136,0.40453073382377625,0.21378281712532043,-1.1038352251052856,0.9999938011169434,0.3857327103614807,0.2131647765636444,-1.1039447784423828,0.9999938011169434,0.36638277769088745,0.21306762099266052,-1.1039974689483643,0.9999927282333374,0.4526456892490387,0.21876129508018494,-0.6697646379470825,0.9999903440475464,0.3163183331489563,0.22068196535110474,-0.8335878849029541,0.9999948740005493,0.4358813762664795,0.2616146206855774,-0.9852607250213623,0.9999969005584717,0.3998490869998932,0.2623762786388397,-1.031550407409668,0.9999982118606567,0.5205701589584351,0.35090845823287964,-0.3795296251773834,0.999946117401123,0.15862108767032623,0.37017327547073364,-0.6496431827545166,0.9998890161514282,0.5673350691795349,0.5138863325119019,-0.08328239619731903,0.9836183190345764,0.12858542799949646,0.5344650745391846,-0.8953740000724792,0.9886731505393982,0.6384919881820679,0.6402340531349182,-0.33467528223991394,0.9877146482467651,0.25253206491470337,0.5405533313751221,-1.4839091300964355,0.9791866540908813,0.6566721200942993,0.6818006634712219,-0.4161478877067566,0.976118266582489,0.2993825078010559,0.5452767610549927,-1.6236050128936768,0.9663410782814026,0.641929030418396,0.6807385087013245,-0.5158039331436157,0.978084921836853,0.2958701252937317,0.5152514576911926,-1.6656960248947144,0.9669679999351501,0.6321438550949097,0.6692819595336914,-0.3771088421344757,0.9776670336723328,0.2850109040737152,0.5126972794532776,-1.5089573860168457,0.956759512424469,0.4779973328113556,0.6342873573303223,0.08846447616815567,0.9990646243095398,0.30118295550346375,0.6538990139961243,-0.08813291043043137,0.9992979764938354,0.4801828861236572,0.822493851184845,0.39504101872444153,0.9754451513290405,0.3332444429397583,0.8617570400238037,0.18546344339847565,0.9863857626914978,0.4759316146373749,0.9468206167221069,1.2834889888763428,0.9431698322296143,0.34754905104637146,0.9781537055969238,0.9171351194381714,0.9584075808525085,0.45383891463279724,0.9602830410003662,1.352439045906067,0.9141437411308289,0.34638670086860657,0.9806141257286072,0.9764018654823303,0.8369669914245605,0.5323188304901123,1.0110626220703125,1.0586788654327393,0.916416585445404,0.3802545964717865,1.0667105913162231,0.5826980471611023,0.8930663466453552
19088.975707651778,0.4322192668914795,0.23409020900726318,-1.0690081119537354,0.999994158744812,0.44162631034851074,0.21082991361618042,-1.0006779432296753,0.9999885559082031,0.4505259394645691,0.2102198302745819,-1.0007271766662598,0.9999862909317017,0.45896846055984497,0.20950573682785034,-1.000657081604004,0.9999819993972778,0.40603113174438477,0.21091404557228088,-1.0354735851287842,0.9999908208847046,0.3872449994087219,0.2103276252746582,-1.035613775253296,0.9999909400939941,0.36759740114212036,0.20986822247505188,-1.0356985330581665,0.9999896287918091,0.4530554711818695,0.21570974588394165,-0.5966029167175293,0.9999843835830688,0.3194195628166199,0.2183144986629486,-0.7661888003349304,0.9999929666519165,0.43934255838394165,0.25706642866134644,-0.9179311990737915,0.9999953508377075,0.40384718775749207,0.25844377279281616,-0.9659002423286438,0.9999974966049194,0.520475447177887,0.3513583242893219,-0.3023325800895691,0.9999231100082397,0.1597173810005188,0.3706926703453064,-0.6040844917297363,0.9998818635940552,0.5692046880722046,0.5091046690940857,-0.009739509783685207,0.9792181253433228,0.13059182465076447,0.5298832058906555,-0.8363438844680786,0.9886957406997681,0.635755181312561,0.6377729177474976,-0.26642507314682007,0.9835055470466614,0.2491656392812729,0.5438045263290405,-1.4069284200668335,0.9781283736228943,0.6547316908836365,0.6788474917411804,-0.34665390849113464,0.9698318243026733,0.29424217343330383,0.5493825674057007,-1.5437233448028564,0.9659497737884521,0.6403981447219849,0.6773425936698914,-0.4456893503665924,0.9724292159080505,0.2916434407234192,0.5190116167068481,-1.5918034315109253,0.9671016931533813,0.6304782629013062,0.666663408279419,-0.3094194233417511,0.9724488258361816,0.28031525015830994,0.5156287550926208,-1.4339221715927124,0.9572476148605347,0.47874289751052856,0.6335480809211731,0.10498981177806854,0.9986335635185242,0.3018854260444641,0.6539058685302734,-0.10466495156288147,0.9989936947822571,0.4793756306171417,0.8255009651184082,0.35805532336235046,0.9677882790565491,0.33254584670066833,0.8655899167060852,0.11294161528348923,0.9828245639801025,0.4767471253871918,0.9516327977180481,1.216966986656189,0.9215248823165894,0.3495124876499176,0.985127866268158,0.8087577223777771,0.9408227205276489,0.4546007215976715,0.9627000689506531,1.282901644706726,0.8855382204055786,0.3464529514312744,0.9857448935508728,0.8640356659889221,0.7762864232063293,0.5317211151123047,1.013802170753479,0.9882127046585083,0.8889280557632446,0.38954877853393555,1.0785748958587646,0.46050238609313965,0.8549450635910034
19105.642374318446,0.4301997721195221,0.23464936017990112,-1.0420693159103394,0.9999914169311523,0.439777672290802,0.21068453788757324,-0.9785121083259583,0.9999834299087524,0.44937384128570557,0.2096266746520996,-0.9785761833190918,0.9999810457229614,0.45829588174819946,0.20848634839057922,-0.9785526394844055,0.9999755620956421,0.4039498269557953,0.21187525987625122,-1.0115766525268555,0.9999860525131226,0.3844243288040161,0.21165147423744202,-1.0117206573486328,0.9999862909317017,0.36438965797424316,0.21150797605514526,-1.0118379592895508,0.9999845027923584,0.45325779914855957,0.2157774567604065,-0.5912085771560669,0.999980092048645,0.3149050772190094,0.2205004096031189,-0.7531886696815491,0.99998939037323,0.4389003813266754,0.2582643926143646,-0.8961082100868225,0.999994158744812,0.4028942883014679,0.2600952684879303,-0.9419671297073364,0.9999966621398926,0.520275890827179,0.3520525097846985,-0.3090634346008301,0.9999220371246338,0.1606508046388626,0.3711906671524048,-0.5831648111343384,0.9998550415039062,0.5638744831085205,0.5110235214233398,-0.011460136622190475,0.9784339070320129,0.1317269653081894,0.5265685319900513,-0.813739538192749,0.9854448437690735,0.635218620300293,0.6420825719833374,-0.24720452725887299,0.9809999465942383,0.2415735274553299,0.5446726679801941,-1.3894150257110596,0.9707486629486084,0.6529672145843506,0.6817982196807861,-0.3232221007347107,0.9662707448005676,0.2803862392902374,0.5490480065345764,-1.5224288702011108,0.9567229151725769,0.6393095254898071,0.6806565523147583,-0.4196772873401642,0.9692783951759338,0.2764093279838562,0.5191237926483154,-1.5704009532928467,0.9583208560943604,0.6294651031494141,0.6703092455863953,-0.2883569300174713,0.9696211814880371,0.2672784924507141,0.516148567199707,-1.4167516231536865,0.9472349882125854,0.47993409633636475,0.6310622096061707,0.09277591109275818,0.9983965754508972,0.30273866653442383,0.6522210836410522,-0.09241426736116409,0.9987517595291138,0.4801483154296875,0.8256466388702393,0.2999027967453003,0.9634890556335449,0.3350006639957428,0.8669044971466064,0.08741258084774017,0.9754907488822937,0.4783713221549988,0.9506919384002686,1.1487246751785278,0.9026997089385986,0.3510161340236664,0.9850971102714539,0.7655996680259705,0.9156824350357056,0.458359956741333,0.9611148238182068,1.2139854431152344,0.8473816514015198,0.34749770164489746,0.9856781959533691,0.8195164799690247,0.7116990089416504,0.5272912383079529,1.0172165632247925,0.9170429706573486,0.8567895293235779,0.39395660161972046,1.0821794271469116,0.41657164692878723,0.804485559463501
19122.309040985114,0.43076059222221375,0.2344118356704712,-1.071323037147522,0.9999922513961792,0.4399130344390869,0.21044251322746277,-1.0068731307983398,0.9999852180480957,0.44948330521583557,0.20930877327919006,-1.0069180727005005,0.9999831914901733,0.45847249031066895,0.2081288993358612,-1.0068702697753906,0.9999784231185913,0.4039296805858612,0.21170738339424133,-1.040639877319336,0.9999872446060181,0.3846391439437866,0.21140176057815552,-1.0407716035842896,0.9999874830245972,0.36471080780029297,0.21112161874771118,-1.04088294506073,0.9999855756759644,0.45266127586364746,0.21556442975997925,-0.6148061752319336,0.999982476234436,0.3155839145183563,0.2201019525527954,-0.7798736691474915,0.9999897480010986,0.4394199550151825,0.2577330768108368,-0.9237526059150696,0.9999947547912598,0.4037156105041504,0.2596462368965149,-0.9705037474632263,0.9999969005584717,0.5214926600456238,0.3525365889072418,-0.3319482207298279,0.9999313354492188,0.159773588180542,0.37065544724464417,-0.6029266715049744,0.9998452663421631,0.5642577409744263,0.512619137763977,-0.034738101065158844,0.9804733991622925,0.13131257891654968,0.5284247398376465,-0.8421661257743835,0.9848277568817139,0.6358471512794495,0.6419969201087952,-0.27897897362709045,0.9832825064659119,0.23880250751972198,0.5447301268577576,-1.434365153312683,0.9694277048110962,0.6535229682922363,0.6819364428520203,-0.357959121465683,0.9693856835365295,0.27912819385528564,0.5476334691047668,-1.5703015327453613,0.9545252919197083,0.6398508548736572,0.6808285713195801,-0.45495912432670593,0.9721746444702148,0.2751588523387909,0.5201743245124817,-1.619142770767212,0.956141471862793,0.6301608085632324,0.6703782677650452,-0.3204125463962555,0.9721108675003052,0.26490747928619385,0.5153712034225464,-1.462529182434082,0.9444625973701477,0.48027920722961426,0.6311565041542053,0.08947326242923737,0.9987502098083496,0.3014291822910309,0.6522539854049683,-0.08910574018955231,0.9990047812461853,0.4803925156593323,0.8254026770591736,0.30535364151000977,0.9707239270210266,0.33657383918762207,0.8629050254821777,0.11011979728937149,0.9786876440048218,0.4780370891094208,0.9506658315658569,1.1844861507415771,0.9255495071411133,0.35063353180885315,0.9828827977180481,0.819877564907074,0.9328149557113647,0.45693454146385193,0.9609648585319519,1.2522834539413452,0.8745328187942505,0.3490748703479767,0.984207034111023,0.876501202583313,0.7528207898139954,0.5282649993896484,1.0158944129943848,0.9479643106460571,0.8871273398399353,0.3882572054862976,1.0763139724731445,0.4716072976589203,0.8396878242492676
19138.97570765178,0.43272170424461365,0.2351832389831543,-1.0664489269256592,0.9999940395355225,0.4398695230484009,0.2113584280014038,-1.0023860931396484,0.9999889135360718,0.4492851495742798,0.2101658582687378,-1.0024470090866089,0.9999876022338867,0.4579647481441498,0.20893973112106323,-1.0024150609970093,0.9999837875366211,0.4046365022659302,0.2122839093208313,-1.0352634191513062,0.9999896287918091,0.3860420286655426,0.2117321491241455,-1.0353398323059082,0.9999895095825195,0.36698201298713684,0.21137791872024536,-1.0353795289993286,0.9999872446060181,0.45130252838134766,0.21563857793807983,-0.6177948713302612,0.9999876022338867,0.31666725873947144,0.2209191918373108,-0.7780517935752869,0.9999911785125732,0.44145941734313965,0.2590354382991791,-0.9219765663146973,0.9999958276748657,0.40583279728889465,0.2605689465999603,-0.9671304821968079,0.9999971389770508,0.5223172903060913,0.353731244802475,-0.3506237864494324,0.9999502897262573,0.15753735601902008,0.3758525550365448,-0.6084736585617065,0.9998352527618408,0.564132034778595,0.5129805207252502,-0.06594892591238022,0.9792764186859131,0.13680976629257202,0.5336247682571411,-0.8506547212600708,0.9826378226280212,0.6349449753761292,0.641133189201355,-0.3081376850605011,0.9849415421485901,0.24053819477558136,0.5464953780174255,-1.434658169746399,0.9692386984825134,0.6538213491439819,0.6814570426940918,-0.3871716856956482,0.9729659557342529,0.28128308057785034,0.5488364100456238,-1.5705845355987549,0.9557372331619263,0.640574038028717,0.6805621981620789,-0.48216959834098816,0.9754560589790344,0.27555936574935913,0.5197771191596985,-1.6172939538955688,0.9570654630661011,0.6309123635292053,0.6704609394073486,-0.34887540340423584,0.9754446148872375,0.26446855068206787,0.5155991911888123,-1.462958574295044,0.9456337094306946,0.4777417480945587,0.633923351764679,0.08581290394067764,0.9992246627807617,0.30296704173088074,0.6543461084365845,-0.0854482352733612,0.9992807507514954,0.4780188500881195,0.8295933604240417,0.3447730839252472,0.9689632058143616,0.3366082012653351,0.8632339239120483,0.16602806746959686,0.9796460270881653,0.47944334149360657,0.9535888433456421,1.231717824935913,0.9295012950897217,0.3496602177619934,0.9755580425262451,0.9044575095176697,0.9406169056892395,0.45857229828834534,0.9642320275306702,1.3007597923278809,0.8933794498443604,0.3474135100841522,0.978705644607544,0.9649755358695984,0.7957093119621277,0.5364415645599365,1.0142946243286133,1.0138765573501587,0.8939999341964722,0.38016825914382935,1.064476728439331,0.5877180099487305,0.8601093888282776
19155.64237431845,0.43475788831710815,0.2354011833667755,-1.0571006536483765,0.9999935626983643,0.4407959580421448,0.21221348643302917,-0.9949284791946411,0.9999880790710449,0.44986864924430847,0.21104496717453003,-0.9949905872344971,0.9999866485595703,0.45818254351615906,0.20984017848968506,-0.9949787259101868,0.9999825954437256,0.4058188498020172,0.21291163563728333,-1.0300054550170898,0.9999892711639404,0.3876037895679474,0.21216794848442078,-1.0301302671432495,0.9999892711639404,0.3681163191795349,0.21173131465911865,-1.0302097797393799,0.9999872446060181,0.4497784972190857,0.21659570932388306,-0.615428626537323,0.999987006187439,0.3170511722564697,0.22154325246810913,-0.7859513163566589,0.9999910593032837,0.44310057163238525,0.2588653266429901,-0.9137285947799683,0.9999955892562866,0.40821051597595215,0.2602717876434326,-0.961969792842865,0.9999970197677612,0.5217288136482239,0.3544570505619049,-0.3489234447479248,0.9999390840530396,0.1594827026128769,0.37468332052230835,-0.6106834411621094,0.999823272228241,0.5659521222114563,0.5136426091194153,-0.06401893496513367,0.9820234179496765,0.13428722321987152,0.5354726314544678,-0.8490895628929138,0.9849104285240173,0.6342799663543701,0.6420713067054749,-0.2984406352043152,0.9848232269287109,0.23905806243419647,0.5418908596038818,-1.4211621284484863,0.9741519093513489,0.6529927849769592,0.6826512813568115,-0.3742797374725342,0.9717894196510315,0.282442569732666,0.5429843068122864,-1.5515977144241333,0.9612923264503479,0.6386258602142334,0.6817132830619812,-0.46833333373069763,0.9743727445602417,0.2726786732673645,0.5117003321647644,-1.5970674753189087,0.9625688195228577,0.6283270120620728,0.6714927554130554,-0.33844801783561707,0.9747576117515564,0.26233547925949097,0.5100669264793396,-1.4476447105407715,0.952153205871582,0.47870343923568726,0.6340945363044739,0.0781710296869278,0.9986439347267151,0.3020623028278351,0.6556546092033386,-0.07778234034776688,0.998802900314331,0.47854146361351013,0.8330053091049194,0.2772147059440613,0.9646753072738647,0.3348208963871002,0.8696162104606628,0.11002329736948013,0.9723080396652222,0.4796091318130493,0.9573847055435181,1.1326841115951538,0.9045384526252747,0.3525168299674988,0.9842289686203003,0.8007339835166931,0.9147354364395142,0.4602609872817993,0.9665783047676086,1.1979440450668335,0.8576207160949707,0.35136672854423523,0.9859763979911804,0.8560277819633484,0.7315588593482971,0.5303834080696106,1.0197093486785889,0.9064052104949951,0.8540611863136292,0.37911567091941833,1.0778142213821411,0.46799081563949585,0.806549608707428
19172.309040985117,0.43167993426322937,0.2349124550819397,-1.0347520112991333,0.9999908208847046,0.43922749161720276,0.21139729022979736,-0.9716376066207886,0.9999830722808838,0.44870686531066895,0.21026024222373962,-0.9717144966125488,0.9999806880950928,0.45731139183044434,0.2091236114501953,-0.9716918468475342,0.9999749660491943,0.403565913438797,0.21240201592445374,-1.0043119192123413,0.9999854564666748,0.3847014307975769,0.21199101209640503,-1.0044467449188232,0.9999854564666748,0.3658877909183502,0.21179446578025818,-1.0045610666275024,0.9999834299087524,0.45193812251091003,0.21624809503555298,-0.5895206928253174,0.9999803304672241,0.3167490065097809,0.22156071662902832,-0.7490032911300659,0.9999892711639404,0.44127383828163147,0.25892746448516846,-0.8909913301467896,0.9999939203262329,0.40528926253318787,0.2599392533302307,-0.9359506368637085,0.9999964237213135,0.5216172933578491,0.3530963063240051,-0.3145091235637665,0.9999169111251831,0.16092811524868011,0.3752744793891907,-0.5871148109436035,0.9998382329940796,0.5636334419250488,0.5122147798538208,-0.030568066984415054,0.9759975075721741,0.13072995841503143,0.5322199463844299,-0.8257599472999573,0.9857990741729736,0.6333812475204468,0.6410397291183472,-0.2716678977012634,0.9792547821998596,0.2496243715286255,0.54535973072052,-1.3897819519042969,0.971748948097229,0.6517173051834106,0.6816471815109253,-0.3485383689403534,0.9641678929328918,0.2967164218425751,0.5474497079849243,-1.5206369161605835,0.9577215313911438,0.6376769542694092,0.6805952191352844,-0.4434024393558502,0.9672447443008423,0.29315510392189026,0.5194780230522156,-1.5645275115966797,0.9590237736701965,0.627875030040741,0.6701883673667908,-0.31239283084869385,0.9681641459465027,0.2804473638534546,0.5157856941223145,-1.4152114391326904,0.9484296441078186,0.47889798879623413,0.6348351240158081,0.09069941192865372,0.9984470009803772,0.3017534017562866,0.6547770500183105,-0.09030963480472565,0.9987536668777466,0.477726548910141,0.8318607211112976,0.3073998689651489,0.9605450630187988,0.3350670337677002,0.8696526288986206,0.10301103442907333,0.9741950035095215,0.47889256477355957,0.9557715654373169,1.153335452079773,0.8978005051612854,0.3500191867351532,0.9845603704452515,0.7831889390945435,0.9104019403457642,0.4577597677707672,0.9649644494056702,1.2181662321090698,0.8515071272850037,0.347179651260376,0.9855647087097168,0.8377819061279297,0.7174327373504639,0.5302296876907349,1.0182181596755981,0.9268116354942322,0.8457401990890503,0.3826867938041687,1.0818114280700684,0.4438169300556183,0.7924421429634094
19188.975707651785,0.4301946461200714,0.23420190811157227,-1.071265697479248,0.9999916553497314,0.4401533603668213,0.21051663160324097,-1.0057929754257202,0.9999839067459106,0.44941434264183044,0.21004897356033325,-1.0058386325836182,0.9999814033508301,0.4579642415046692,0.20951226353645325,-1.0057862997055054,0.9999759197235107,0.4044465720653534,0.2105751633644104,-1.0423425436019897,0.9999862909317017,0.3858364224433899,0.21010330319404602,-1.0424613952636719,0.9999865293502808,0.36680856347084045,0.2098046839237213,-1.0425587892532349,0.999984622001648,0.4521999955177307,0.21644935011863708,-0.614264726638794,0.9999798536300659,0.31915199756622314,0.21849241852760315,-0.7913867831230164,0.9999890327453613,0.4373444616794586,0.2578076720237732,-0.9242768287658691,0.9999940395355225,0.40196043252944946,0.2587314248085022,-0.9744352102279663,0.9999964237213135,0.5204936265945435,0.35031625628471375,-0.3326110541820526,0.9999251365661621,0.15958145260810852,0.37082064151763916,-0.6242086887359619,0.9998382329940796,0.5642552375793457,0.5127216577529907,-0.03326600790023804,0.9790285229682922,0.13235147297382355,0.5332694053649902,-0.846139132976532,0.9855450987815857,0.6333349943161011,0.6407435536384583,-0.27660638093948364,0.981143593788147,0.25273680686950684,0.5506827235221863,-1.3988598585128784,0.9728014469146729,0.651689887046814,0.6806590557098389,-0.3564770519733429,0.9655508399009705,0.2989463806152344,0.5549027919769287,-1.532787799835205,0.9591208100318909,0.6381192803382874,0.6801933646202087,-0.4529462158679962,0.9687107801437378,0.29611092805862427,0.5261633992195129,-1.5817278623580933,0.9605411887168884,0.6279640793800354,0.6699380874633789,-0.3184667229652405,0.9693719148635864,0.2850838899612427,0.5227161645889282,-1.425896167755127,0.9494646191596985,0.478491872549057,0.633414089679718,0.0902804508805275,0.9987962245941162,0.3013879656791687,0.6538012027740479,-0.08988193422555923,0.9989898800849915,0.4772471487522125,0.8282530307769775,0.30224373936653137,0.9669657945632935,0.33500054478645325,0.8626285195350647,0.1115446463227272,0.9775821566581726,0.47769540548324585,0.9491890072822571,1.1972213983535767,0.9182057976722717,0.34952741861343384,0.9816896915435791,0.836148202419281,0.9320008754730225,0.4580361843109131,0.9620141983032227,1.266586184501648,0.8772804141044617,0.34820660948753357,0.983591616153717,0.8948466777801514,0.7644261717796326,0.531027615070343,1.0143451690673828,0.9690494537353516,0.8785935044288635,0.3846381902694702,1.0734572410583496,0.49687135219573975,0.8405261635780334
19205.642374318453,0.43035024404525757,0.23468324542045593,-1.0791438817977905,0.9999934434890747,0.44061732292175293,0.21046259999275208,-1.0117192268371582,0.9999871253967285,0.44990289211273193,0.20977118611335754,-1.0117663145065308,0.999984622001648,0.45843183994293213,0.20902183651924133,-1.0117170810699463,0.999980092048645,0.40476155281066895,0.21094614267349243,-1.0459011793136597,0.9999891519546509,0.38559690117836,0.21054992079734802,-1.0460169315338135,0.9999891519546509,0.36624452471733093,0.21029523015022278,-1.0461249351501465,0.9999878406524658,0.45324772596359253,0.2155941128730774,-0.6068158745765686,0.999982476234436,0.3190191984176636,0.21886461973190308,-0.7739667296409607,0.9999915361404419,0.4377197325229645,0.25766241550445557,-0.9268536567687988,0.9999947547912598,0.40217992663383484,0.25901123881340027,-0.9742470979690552,0.9999970197677612,0.520326554775238,0.35089564323425293,-0.3112219274044037,0.9999277591705322,0.160930335521698,0.3697199523448944,-0.599179744720459,0.9998667240142822,0.5640267133712769,0.5126737952232361,-0.008083824999630451,0.9761861562728882,0.13037720322608948,0.5260365009307861,-0.8292973637580872,0.9855362772941589,0.632575273513794,0.6427341103553772,-0.25518298149108887,0.9801165461540222,0.24749402701854706,0.5479143857955933,-1.4105868339538574,0.9741861820220947,0.6520764827728271,0.6837235689163208,-0.3348015248775482,0.9646433591842651,0.29049327969551086,0.5536295771598816,-1.5484730005264282,0.9609904885292053,0.6365516185760498,0.6830964684486389,-0.4323010742664337,0.967656672000885,0.2912328243255615,0.5258821249008179,-1.598182201385498,0.962445080280304,0.6252437233924866,0.671776294708252,-0.2971283495426178,0.9678143262863159,0.2777792811393738,0.5219082832336426,-1.4383982419967651,0.9516133666038513,0.478990763425827,0.6328653693199158,0.08939133584499359,0.9990233182907104,0.2991493046283722,0.6519767045974731,-0.08907701820135117,0.9991820454597473,0.4770059585571289,0.825576901435852,0.2991778552532196,0.9705105423927307,0.3327416181564331,0.8633577823638916,0.1268497258424759,0.9780193567276001,0.47846391797065735,0.9494192600250244,1.1904304027557373,0.9281922578811646,0.3513756990432739,0.98082035779953,0.8654635548591614,0.9371970295906067,0.4577068090438843,0.9623235464096069,1.2592121362686157,0.8834784030914307,0.3497508466243744,0.9829139113426208,0.9253440499305725,0.7683586478233337,0.5312252640724182,1.013798475265503,0.9541816711425781,0.8927403688430786,0.3779045045375824,1.0723915100097656,0.5241546034812927,0.8552201986312866
19222.30904098512,0.4254908263683319,0.24184855818748474,-1.0893516540527344,0.9999957084655762,0.43814489245414734,0.21629387140274048,-1.0280400514602661,0.9999914169311523,0.4478207528591156,0.21528086066246033,-1.028063416481018,0.9999897480010986,0.4565144181251526,0.21480780839920044,-1.0279996395111084,0.9999866485595703,0.4023100733757019,0.21759754419326782,-1.056803822517395,0.9999926090240479,0.38372498750686646,0.21761494874954224,-1.05691659450531,0.9999924898147583,0.3651253581047058,0.217781662940979,-1.056955099105835,0.9999915361404419,0.45195966958999634,0.22103294730186462,-0.6408572196960449,0.9999881982803345,0.3169403076171875,0.22516044974327087,-0.7853356003761292,0.9999940395355225,0.4348030686378479,0.26408690214157104,-0.9426290392875671,0.999996542930603,0.39815595746040344,0.26534125208854675,-0.9832848906517029,0.9999979734420776,0.5205151438713074,0.35204485058784485,-0.36211004853248596,0.9999430179595947,0.16160982847213745,0.36923325061798096,-0.5976958274841309,0.9998941421508789,0.5678643584251404,0.5117621421813965,-0.08043166995048523,0.9811198115348816,0.13106496632099152,0.5286940932273865,-0.8140907883644104,0.9854280352592468,0.6331890821456909,0.6407911777496338,-0.32588884234428406,0.9833464622497559,0.2530151903629303,0.5477865934371948,-1.376718282699585,0.9740208983421326,0.6521710157394409,0.6835499405860901,-0.40418004989624023,0.9698511362075806,0.2995259761810303,0.5545880794525146,-1.507940649986267,0.9611977338790894,0.6393530368804932,0.6829681396484375,-0.5014737248420715,0.9722620844841003,0.3010711967945099,0.5265382528305054,-1.55442214012146,0.9625884294509888,0.6291676759719849,0.6711574196815491,-0.36732766032218933,0.9727528095245361,0.2881987988948822,0.5219618082046509,-1.4032485485076904,0.9536012411117554,0.47658705711364746,0.6349613666534424,0.074275441467762,0.9990146160125732,0.2984403073787689,0.655099630355835,-0.07397793978452682,0.9991850256919861,0.4735887348651886,0.83416748046875,0.2948864996433258,0.9712356328964233,0.33010661602020264,0.8652411103248596,0.1365468055009842,0.9823785424232483,0.478750079870224,0.9529092311859131,1.1160800457000732,0.9335151314735413,0.3465874493122101,0.9847756624221802,0.8143301010131836,0.9469103813171387,0.4570360779762268,0.9652560949325562,1.1778614521026611,0.8932235240936279,0.34361588954925537,0.9880660176277161,0.8682644367218018,0.8009117841720581,0.5324646830558777,1.0183292627334595,0.8863022327423096,0.8946189880371094,0.3655698299407959,1.074569582939148,0.48627224564552307,0.8678098320960999
19238.97570765179,0.432509183883667,0.23589882254600525,-1.0717177391052246,0.9999947547912598,0.44273221492767334,0.21185865998268127,-1.0109854936599731,0.9999892711639404,0.4513433277606964,0.2112886607646942,-1.011002540588379,0.9999874830245972,0.459395170211792,0.21067428588867188,-1.0109235048294067,0.9999837875366211,0.4081191122531891,0.21222832798957825,-1.0452221632003784,0.9999910593032837,0.38982635736465454,0.21174389123916626,-1.0453201532363892,0.9999909400939941,0.3700205087661743,0.21150287985801697,-1.0453606843948364,0.9999895095825195,0.45253175497055054,0.21637216210365295,-0.6358954310417175,0.9999850988388062,0.32025086879730225,0.21896538138389587,-0.8045904636383057,0.9999926090240479,0.43902814388275146,0.25882166624069214,-0.9303311705589294,0.9999958276748657,0.40458056330680847,0.2601044774055481,-0.9778957366943359,0.999997615814209,0.5191303491592407,0.35004013776779175,-0.3667830526828766,0.9999359846115112,0.16346268355846405,0.3685537576675415,-0.6354881525039673,0.9998928308486938,0.5651386380195618,0.5089813470840454,-0.09250959008932114,0.980322539806366,0.13127297163009644,0.5277515053749084,-0.8340355157852173,0.9871009588241577,0.6337709426879883,0.6399797201156616,-0.34602347016334534,0.9834606051445007,0.2557038962841034,0.5498753190040588,-1.3478449583053589,0.9755563139915466,0.652969479560852,0.6828477382659912,-0.42779701948165894,0.9697604179382324,0.3026401698589325,0.5559111833572388,-1.4753482341766357,0.9631279110908508,0.6395962834358215,0.6819904446601868,-0.5250462293624878,0.9724896550178528,0.30145299434661865,0.5280834436416626,-1.5243364572525024,0.9645102620124817,0.6295764446258545,0.6710975170135498,-0.38890862464904785,0.9730625748634338,0.2876836955547333,0.5239311456680298,-1.374582290649414,0.9556724429130554,0.4785267114639282,0.6321485638618469,0.0921591967344284,0.9987249970436096,0.30516740679740906,0.653043270111084,-0.0918189287185669,0.9990180730819702,0.48025748133659363,0.8262423276901245,0.3533411920070648,0.9646715521812439,0.33609431982040405,0.8588107228279114,0.13215681910514832,0.9827036261558533,0.47996100783348083,0.9516310095787048,1.1635668277740479,0.9194729328155518,0.34813904762268066,0.9811141490936279,0.7958463430404663,0.9417595267295837,0.45825979113578796,0.9626449942588806,1.224676489830017,0.8857263326644897,0.3432635962963104,0.9839403033256531,0.8487439155578613,0.7967907786369324,0.5373835563659668,1.015076994895935,0.9446671009063721,0.8814135789871216,0.3851247727870941,1.0667221546173096,0.4738999307155609,0.8563073873519897
19255.642374318457,0.4330345392227173,0.23490411043167114,-1.023164987564087,0.9999916553497314,0.4410110414028168,0.2112956941127777,-0.9614978432655334,0.9999842643737793,0.4499431550502777,0.21015295386314392,-0.9615715146064758,0.9999819993972778,0.4582141935825348,0.20884862542152405,-0.9615719318389893,0.9999774694442749,0.4056982398033142,0.2123272716999054,-0.994662344455719,0.9999858140945435,0.38698485493659973,0.21189934015274048,-0.9947662353515625,0.9999853372573853,0.3671414256095886,0.21145054697990417,-0.9948126077651978,0.9999828338623047,0.4512326121330261,0.21473634243011475,-0.5890907645225525,0.9999802112579346,0.31802234053611755,0.2193426787853241,-0.7522096633911133,0.9999880790710449,0.44082459807395935,0.2573108971118927,-0.8833308219909668,0.999994158744812,0.4059031903743744,0.25937652587890625,-0.9292618632316589,0.9999961853027344,0.5173587799072266,0.35022568702697754,-0.33275115489959717,0.999930739402771,0.166121244430542,0.3697901666164398,-0.5887590646743774,0.999835729598999,0.5621826648712158,0.5071498155593872,-0.07296504825353622,0.9779285788536072,0.13150525093078613,0.5256249308586121,-0.7890706062316895,0.981249988079071,0.6325265169143677,0.6391459703445435,-0.3233650326728821,0.9798781871795654,0.2444760650396347,0.5480118989944458,-1.2974064350128174,0.96034175157547,0.6518540382385254,0.6813581585884094,-0.4040948450565338,0.9643309712409973,0.2957715392112732,0.5566540360450745,-1.4218324422836304,0.94329434633255,0.6388097405433655,0.6808420419692993,-0.5000710487365723,0.967713475227356,0.2907710373401642,0.5271875858306885,-1.469512701034546,0.9454475045204163,0.6291782855987549,0.6704397797584534,-0.36569109559059143,0.9687086343765259,0.27627068758010864,0.5224166512489319,-1.3244943618774414,0.9342041015625,0.4805352985858917,0.6299282908439636,0.09404706209897995,0.9985363483428955,0.30511242151260376,0.6516532897949219,-0.09368688613176346,0.9987396597862244,0.4786894917488098,0.8315072655677795,0.3178976774215698,0.9571875333786011,0.3371424078941345,0.8641784191131592,0.09990832209587097,0.9777204990386963,0.47821903228759766,0.9575987458229065,1.1283067464828491,0.8990026116371155,0.35039085149765015,0.9819169640541077,0.759992241859436,0.9240384697914124,0.45616185665130615,0.9673776030540466,1.189555048942566,0.8577689528465271,0.3461461365222931,0.982907235622406,0.812391459941864,0.7425945401191711,0.5375009775161743,1.0179111957550049,0.9076738953590393,0.8527632355690002,0.38622745871543884,1.0726350545883179,0.4342242181301117,0.8216701745986938
19272.309040985125,0.4320506453514099,0.23427116870880127,-1.072706699371338,0.9999936819076538,0.4400041401386261,0.21081236004829407,-1.0089175701141357,0.9999876022338867,0.44907358288764954,0.2097163200378418,-1.0089640617370605,0.9999853372573853,0.4576600193977356,0.20861726999282837,-1.0089342594146729,0.9999812841415405,0.40404897928237915,0.2113979160785675,-1.0412192344665527,0.9999892711639404,0.3858676850795746,0.21067219972610474,-1.041346549987793,0.9999891519546509,0.366242378950119,0.21007147431373596,-1.0414402484893799,0.9999877214431763,0.4509359300136566,0.21426430344581604,-0.6181854605674744,0.9999834299087524,0.3172392249107361,0.21827927231788635,-0.7783128023147583,0.9999914169311523,0.4402528703212738,0.257116436958313,-0.9257190227508545,0.9999949932098389,0.4049006700515747,0.2580588459968567,-0.9709067344665527,0.9999971389770508,0.5176771283149719,0.3513341248035431,-0.33294132351875305,0.99992835521698,0.16369234025478363,0.3700634837150574,-0.600957989692688,0.9998612403869629,0.5606692433357239,0.5090769529342651,-0.048891037702560425,0.9780336022377014,0.1292627900838852,0.5279042720794678,-0.8218638300895691,0.9840169548988342,0.6326979994773865,0.6389004588127136,-0.3047904074192047,0.9818499684333801,0.24117077887058258,0.5453469753265381,-1.3850553035736084,0.9672688245773315,0.6509187817573547,0.6812188625335693,-0.38507354259490967,0.9677698612213135,0.29517585039138794,0.5531253814697266,-1.5173263549804688,0.9520713090896606,0.6378049850463867,0.6804835796356201,-0.4846515655517578,0.9707065224647522,0.2883566915988922,0.5237001180648804,-1.5663588047027588,0.9538339376449585,0.6286462545394897,0.6696326732635498,-0.3480686843395233,0.971007227897644,0.2748909592628479,0.519446849822998,-1.4127323627471924,0.9427236914634705,0.4776747226715088,0.6306406259536743,0.09347305446863174,0.9985664486885071,0.30089616775512695,0.6508274674415588,-0.09310732036828995,0.998879611492157,0.477682501077652,0.8261592984199524,0.2911146879196167,0.9635627865791321,0.33325064182281494,0.8626046180725098,0.07605904340744019,0.9789407849311829,0.47620877623558044,0.9504785537719727,1.126768708229065,0.909477174282074,0.34739601612091064,0.9844622611999512,0.7454959154129028,0.931198000907898,0.453889936208725,0.9622522592544556,1.1899464130401611,0.8641231656074524,0.3448980450630188,0.9855220317840576,0.797702431678772,0.744970440864563,0.5328787565231323,1.0133697986602783,0.8933853507041931,0.8673664331436157,0.3819237947463989,1.0769011974334717,0.3964879810810089,0.832664430141449
19288.975707651793,0.431568443775177,0.23473945260047913,-0.9888472557067871,0.9999845027923584,0.4401383101940155,0.211171954870224,-0.9271294474601746,0.9999701976776123,0.4492065906524658,0.21028393507003784,-0.927229106426239,0.9999651908874512,0.4579676687717438,0.20924943685531616,-0.9272393584251404,0.9999572038650513,0.40453237295150757,0.21181121468544006,-0.9621049761772156,0.9999748468399048,0.38572707772254944,0.2113356590270996,-0.9622302055358887,0.999974250793457,0.36571624875068665,0.21100649237632751,-0.9623262286186218,0.9999713897705078,0.45155230164527893,0.21538108587265015,-0.5555097460746765,0.9999611377716064,0.3158479332923889,0.21963602304458618,-0.7256287336349487,0.9999809265136719,0.4401635527610779,0.2573067843914032,-0.8489919900894165,0.9999898672103882,0.4036347270011902,0.2594139873981476,-0.8969553709030151,0.999994158744812,0.5159122943878174,0.3497089445590973,-0.2835584282875061,0.9998958110809326,0.16674557328224182,0.3708716630935669,-0.5794792175292969,0.9998303651809692,0.5614360570907593,0.5081461668014526,-0.015099520795047283,0.9717671871185303,0.13125556707382202,0.5313183665275574,-0.7776728272438049,0.9835460186004639,0.6305003762245178,0.639432966709137,-0.26032036542892456,0.974665641784668,0.24931342899799347,0.549119234085083,-1.273675799369812,0.964504599571228,0.6502549052238464,0.681279182434082,-0.33975058794021606,0.9569772481918335,0.29511499404907227,0.5533496737480164,-1.3976441621780396,0.9487383365631104,0.6364251375198364,0.6807636618614197,-0.4327126443386078,0.9607760906219482,0.29219305515289307,0.5225962400436401,-1.4442387819290161,0.9503536224365234,0.6261419057846069,0.6696253418922424,-0.30130699276924133,0.9620422124862671,0.2798275947570801,0.5191415548324585,-1.299025058746338,0.9384604692459106,0.47883084416389465,0.634160041809082,0.11382760852575302,0.9980151653289795,0.30587175488471985,0.6548010110855103,-0.11351516097784042,0.9983837604522705,0.47989168763160706,0.8319118022918701,0.34782499074935913,0.9397764205932617,0.3363792598247528,0.8711521029472351,0.08037040382623672,0.9727979302406311,0.4776059687137604,0.9570971727371216,1.1406015157699585,0.8657928705215454,0.3514317274093628,0.9851896166801453,0.7252039313316345,0.8998426198959351,0.4540362060070038,0.9672900438308716,1.200896143913269,0.8293119072914124,0.3445737957954407,0.9861807227134705,0.7764423489570618,0.6975280046463013,0.5385153293609619,1.0144538879394531,0.924151599407196,0.8179574012756348,0.3982555568218231,1.081711769104004,0.391763836145401,0.7753304839134216
19305.64237431846,0.4329110085964203,0.23640525341033936,-0.9556994438171387,0.9999896287918091,0.44286149740219116,0.21216601133346558,-0.8932315707206726,0.9999798536300659,0.4515160620212555,0.2115902304649353,-0.8933280110359192,0.9999767541885376,0.4599328935146332,0.21112224459648132,-0.893332302570343,0.9999707937240601,0.4080164134502411,0.21254411339759827,-0.9293184876441956,0.999982476234436,0.3895368278026581,0.2120921015739441,-0.9294127225875854,0.9999823570251465,0.3693905472755432,0.2120020091533661,-0.929492175579071,0.9999797344207764,0.4540502727031708,0.2172229290008545,-0.5185008645057678,0.999976634979248,0.31917330622673035,0.2199821174144745,-0.6929318904876709,0.9999867677688599,0.4403563439846039,0.25922971963882446,-0.8139538764953613,0.9999932050704956,0.40427711606025696,0.260929137468338,-0.8632991909980774,0.9999957084655762,0.5197353959083557,0.34935349225997925,-0.2588391602039337,0.9999339580535889,0.16465620696544647,0.37036311626434326,-0.5391088724136353,0.9998465776443481,0.5640928745269775,0.5086735486984253,0.0312418881803751,0.9771531820297241,0.13320788741111755,0.5291187763214111,-0.7649907469749451,0.982637345790863,0.6326425075531006,0.6386097073554993,-0.1965005099773407,0.981145977973938,0.24278677999973297,0.5442144274711609,-1.310210108757019,0.9720768332481384,0.6516261696815491,0.6808356642723083,-0.27226725220680237,0.9676719903945923,0.2914336919784546,0.5503412485122681,-1.4384294748306274,0.9602506756782532,0.6375648975372314,0.6802240610122681,-0.3659202456474304,0.970618486404419,0.28896188735961914,0.519275963306427,-1.488440752029419,0.9618876576423645,0.6275737285614014,0.6691383719444275,-0.2369423359632492,0.9712837934494019,0.2757399082183838,0.5159774422645569,-1.3380746841430664,0.9518842101097107,0.48070797324180603,0.6351630091667175,0.09072715789079666,0.9988536834716797,0.30555272102355957,0.6538728475570679,-0.09037863463163376,0.998955249786377,0.4779514968395233,0.8372434377670288,0.2925305962562561,0.963115394115448,0.3359750807285309,0.8659043908119202,0.1067872941493988,0.9719351530075073,0.47999075055122375,0.9614009261131287,1.1416637897491455,0.8990674614906311,0.3527378737926483,0.9820725321769714,0.7955933809280396,0.9088680744171143,0.46010804176330566,0.9702834486961365,1.2071367502212524,0.8459494113922119,0.3490583002567291,0.9837871193885803,0.8516460061073303,0.7256182432174683,0.5319060683250427,1.0213861465454102,0.9229670166969299,0.8431386351585388,0.3769880533218384,1.0757732391357422,0.47357499599456787,0.798250138759613
19322.30904098513,0.4301068186759949,0.24005095660686493,-1.0756205320358276,0.9999935626983643,0.44195908308029175,0.2152346968650818,-1.0138890743255615,0.9999873638153076,0.45110827684402466,0.2145640254020691,-1.0139261484146118,0.9999853372573853,0.46027082204818726,0.21433064341545105,-1.0138685703277588,0.9999808073043823,0.4071839451789856,0.21552693843841553,-1.049223780632019,0.9999892711639404,0.3892561197280884,0.21483594179153442,-1.0493242740631104,0.99998939037323,0.36922845244407654,0.21453982591629028,-1.0493851900100708,0.9999874830245972,0.45374417304992676,0.22047743201255798,-0.6272945404052734,0.9999839067459106,0.3175990879535675,0.22180068492889404,-0.8000918030738831,0.9999914169311523,0.4378044307231903,0.2622019946575165,-0.9288878440856934,0.9999951124191284,0.4014206528663635,0.26397520303726196,-0.9777233004570007,0.9999971389770508,0.5187455415725708,0.34984368085861206,-0.34449881315231323,0.9999384880065918,0.1629212200641632,0.3702942728996277,-0.6264132261276245,0.9998726844787598,0.5645914077758789,0.5122610926628113,-0.04647894203662872,0.9788445830345154,0.13086046278476715,0.5337762832641602,-0.8601552248001099,0.9869850277900696,0.6333520412445068,0.6391700506210327,-0.28118446469306946,0.9838563203811646,0.24605093896389008,0.5420569777488708,-1.4200732707977295,0.9764117002487183,0.6524011492729187,0.6807403564453125,-0.35837939381599426,0.9706098437309265,0.29000145196914673,0.5447978973388672,-1.5535625219345093,0.9639986157417297,0.637596070766449,0.6799042820930481,-0.45523935556411743,0.9731407761573792,0.2866487503051758,0.5136409997940063,-1.5995956659317017,0.9650362133979797,0.6267083883285522,0.6688063144683838,-0.3227000832557678,0.9731826782226562,0.2754018008708954,0.5111611485481262,-1.4464563131332397,0.9549106359481812,0.47970762848854065,0.6315796971321106,0.09502986818552017,0.998994767665863,0.30340516567230225,0.6526367664337158,-0.09470310062170029,0.9991521835327148,0.4796604812145233,0.8258153200149536,0.3690931797027588,0.968458890914917,0.3345980644226074,0.8636950850486755,0.15335586667060852,0.9821189641952515,0.4767662286758423,0.9540058374404907,1.2193541526794434,0.9277077317237854,0.34892165660858154,0.9812718033790588,0.8535517454147339,0.9432882070541382,0.45423126220703125,0.9655516743659973,1.285077691078186,0.895337700843811,0.34677839279174805,0.9835628867149353,0.9104524850845337,0.8014827966690063,0.5320584774017334,1.01572847366333,0.9995099902153015,0.8942425847053528,0.3820347189903259,1.06829035282135,0.5269336104393005,0.8619518280029297
19338.975707651796,0.430318683385849,0.2339734435081482,-1.057277798652649,0.9999932050704956,0.4396483898162842,0.2102508544921875,-0.9929317831993103,0.9999871253967285,0.44936487078666687,0.20921450853347778,-0.9930472373962402,0.9999855756759644,0.4582980275154114,0.20807874202728271,-0.993076503276825,0.9999816417694092,0.403404176235199,0.21139168739318848,-1.0250681638717651,0.9999880790710449,0.38370099663734436,0.21126413345336914,-1.0252166986465454,0.9999877214431763,0.3644522726535797,0.21118581295013428,-1.0253081321716309,0.9999855756759644,0.4534367620944977,0.21514645218849182,-0.6027135848999023,0.9999861717224121,0.3158007562160492,0.2200673520565033,-0.7585415840148926,0.9999899864196777,0.43873825669288635,0.25738513469696045,-0.91024249792099,0.9999954700469971,0.40150582790374756,0.2589656114578247,-0.9543958902359009,0.9999969005584717,0.520476222038269,0.3515051305294037,-0.32675302028656006,0.9999382495880127,0.16209916770458221,0.37117454409599304,-0.5796177387237549,0.9998279809951782,0.5638846158981323,0.509833812713623,-0.06101721152663231,0.9800251126289368,0.13508157432079315,0.5329735279083252,-0.8097485899925232,0.9808638095855713,0.6332955360412598,0.6404262185096741,-0.3306475281715393,0.9814789295196533,0.24788512289524078,0.542160153388977,-1.3979072570800781,0.9686093926429749,0.6526334881782532,0.6802939772605896,-0.413578063249588,0.9669690132141113,0.2900734841823578,0.54526686668396,-1.5329371690750122,0.954753041267395,0.6391791105270386,0.6791731715202332,-0.512237012386322,0.9698840975761414,0.280256986618042,0.5135109424591064,-1.5819404125213623,0.9562757611274719,0.6289892196655273,0.6687315106391907,-0.37347960472106934,0.9702483415603638,0.269724577665329,0.5089238882064819,-1.4265137910842896,0.9446796774864197,0.47617125511169434,0.633809506893158,0.08432810008525848,0.9983429908752441,0.3007022440433502,0.6541840434074402,-0.08398713171482086,0.998584508895874,0.47731027007102966,0.8377907276153564,0.2653162479400635,0.9645816683769226,0.3376489281654358,0.8709994554519653,0.08017199486494064,0.9751680493354797,0.48327380418777466,0.9604123830795288,1.109490990638733,0.9044837951660156,0.3568671941757202,0.987943172454834,0.7567245364189148,0.9223325252532959,0.46549898386001587,0.96845942735672,1.1723480224609375,0.8428544402122498,0.35404300689697266,0.9860303997993469,0.8089913129806519,0.7242217659950256,0.5378146171569824,1.0213239192962646,0.8655527234077454,0.855893611907959,0.3845757246017456,1.0881049633026123,0.4027131199836731,0.8235617280006409
19355.642374318464,0.4294777512550354,0.2365778386592865,-1.0104888677597046,0.9999904632568359,0.4398241937160492,0.21336504817008972,-0.9506250619888306,0.9999817609786987,0.44929006695747375,0.2125239074230194,-0.9507365226745605,0.9999796152114868,0.457723468542099,0.21158051490783691,-0.9507668018341064,0.9999746084213257,0.4042988419532776,0.21421220898628235,-0.9819925427436829,0.9999841451644897,0.38483726978302,0.21402457356452942,-0.9821237325668335,0.999983549118042,0.3657468557357788,0.21386975049972534,-0.9822171926498413,0.9999814033508301,0.4525247812271118,0.2183920443058014,-0.5816513299942017,0.9999794960021973,0.3170652985572815,0.22222685813903809,-0.7343856692314148,0.9999872446060181,0.4371466338634491,0.26006191968917847,-0.8707963228225708,0.9999935626983643,0.4014674127101898,0.2613518536090851,-0.9140135049819946,0.9999958276748657,0.520806074142456,0.350953608751297,-0.3253089189529419,0.9999216794967651,0.16596142947673798,0.36897581815719604,-0.5583344101905823,0.9998276233673096,0.5625464916229248,0.5109385251998901,-0.07923270761966705,0.9790012240409851,0.1317565143108368,0.5292068719863892,-0.759932279586792,0.9802160859107971,0.631377100944519,0.642750084400177,-0.3420133590698242,0.9755098223686218,0.24873866140842438,0.545689582824707,-1.2915310859680176,0.9615509510040283,0.6493799686431885,0.682422399520874,-0.4253208637237549,0.9570631980895996,0.2907570004463196,0.5499646663665771,-1.4149659872055054,0.9446559548377991,0.6355963945388794,0.6817010641098022,-0.5193964242935181,0.9609383344650269,0.28562131524086,0.5221642851829529,-1.4650646448135376,0.9465882182121277,0.6257566213607788,0.6709595322608948,-0.38358011841773987,0.962486207485199,0.2760351598262787,0.5190132260322571,-1.3191596269607544,0.934628427028656,0.47846147418022156,0.6330516338348389,0.07597090303897858,0.9976674914360046,0.30378061532974243,0.6534739136695862,-0.07554493844509125,0.9981073141098022,0.4760604798793793,0.8368791341781616,0.2514830529689789,0.9574950337409973,0.33651894330978394,0.8660576343536377,0.07016997784376144,0.9714906215667725,0.4798851013183594,0.9617347717285156,1.0009773969650269,0.8881572484970093,0.3547380864620209,0.9843631386756897,0.6727301478385925,0.9028936624526978,0.46222981810569763,0.9702066779136658,1.0540193319320679,0.8191320896148682,0.35188883543014526,0.9852815866470337,0.7179031372070312,0.6922397017478943,0.5310024619102478,1.0227687358856201,0.7528467774391174,0.8228862881660461,0.376441091299057,1.0833474397659302,0.32708606123924255,0.7810502052307129
19372.309040985132,0.4287211298942566,0.23663657903671265,-1.0463520288467407,0.9999868869781494,0.4393969178199768,0.2128623127937317,-0.983203113079071,0.9999752044677734,0.4491266906261444,0.21198278665542603,-0.9833155274391174,0.999971866607666,0.4577914774417877,0.21098455786705017,-0.9833430051803589,0.9999654293060303,0.40313810110092163,0.21401271224021912,-1.0168957710266113,0.9999772310256958,0.38341623544692993,0.21394985914230347,-1.0170261859893799,0.9999767541885376,0.36402636766433716,0.21391966938972473,-1.017135739326477,0.9999735355377197,0.4535950720310211,0.21774396300315857,-0.5984429121017456,0.9999716281890869,0.3157726228237152,0.2217620313167572,-0.761216938495636,0.9999809265136719,0.43694818019866943,0.2600351870059967,-0.9010255932807922,0.9999915361404419,0.4002968370914459,0.2616097033023834,-0.9470941424369812,0.9999943971633911,0.5216406583786011,0.35139501094818115,-0.32448163628578186,0.9999215602874756,0.1607867330312729,0.3712438941001892,-0.5902791023254395,0.9997859597206116,0.5616345405578613,0.5107489228248596,-0.050571259111166,0.9762826561927795,0.1285286694765091,0.5331783294677734,-0.8056820631027222,0.9807366132736206,0.6301670074462891,0.6392571926116943,-0.310724139213562,0.9776558876037598,0.24912051856517792,0.5485775470733643,-1.3552470207214355,0.9610037207603455,0.6491916179656982,0.6811731457710266,-0.3951725959777832,0.960793137550354,0.2947835326194763,0.5515114068984985,-1.4873038530349731,0.9435284733772278,0.6354416608810425,0.6803509593009949,-0.49138444662094116,0.9644227623939514,0.2911868989467621,0.5233476161956787,-1.5342859029769897,0.9453287124633789,0.6257879734039307,0.6696910858154297,-0.352797269821167,0.9650129079818726,0.28013259172439575,0.5203043222427368,-1.3820832967758179,0.9316825866699219,0.47944170236587524,0.6350000500679016,0.09261412173509598,0.9984257221221924,0.30382245779037476,0.6551912426948547,-0.09222864359617233,0.9986263513565063,0.4785088896751404,0.8362293839454651,0.28039005398750305,0.9572321176528931,0.3377777338027954,0.8692394495010376,0.089991994202137,0.9716648459434509,0.483557790517807,0.9588488340377808,1.1702078580856323,0.8883270025253296,0.3552142381668091,0.9853252172470093,0.8038024306297302,0.9092513918876648,0.4655895233154297,0.9677428007125854,1.2395590543746948,0.8329235315322876,0.35294151306152344,0.9858189225196838,0.8614484071731567,0.7032152414321899,0.5375693440437317,1.0188190937042236,0.9424535036087036,0.8392130732536316,0.39161446690559387,1.0806005001068115,0.46349093317985535,0.7975477576255798
19388.9757076518,0.4340188503265381,0.23443540930747986,-1.0024640560150146,0.9999892711639404,0.4434293806552887,0.21110868453979492,-0.937110424041748,0.9999798536300659,0.45234400033950806,0.210452139377594,-0.9372054934501648,0.9999767541885376,0.46096348762512207,0.20965591073036194,-0.9372121691703796,0.9999709129333496,0.408211350440979,0.21135544776916504,-0.974470853805542,0.9999819993972778,0.3897010385990143,0.2107982039451599,-0.974586009979248,0.9999817609786987,0.3698349893093109,0.21040749549865723,-0.974672794342041,0.9999790191650391,0.45417895913124084,0.2162303626537323,-0.5544611215591431,0.9999755620956421,0.3206705152988434,0.21858251094818115,-0.7352668642997742,0.9999855756759644,0.4408622682094574,0.25749441981315613,-0.8589958548545837,0.9999927282333374,0.4052460193634033,0.2589941918849945,-0.9101895689964294,0.9999954700469971,0.5189894437789917,0.3519860506057739,-0.2937844395637512,0.9999241828918457,0.16367128491401672,0.3707903027534485,-0.574941098690033,0.9998118281364441,0.5606898069381714,0.5101189017295837,-0.018961919471621513,0.9766885638237,0.13011448085308075,0.5309537053108215,-0.7969037294387817,0.9815673232078552,0.6307049989700317,0.6381663084030151,-0.2724060118198395,0.9801467061042786,0.25264281034469604,0.5480929613113403,-1.3383963108062744,0.9675610065460205,0.6498008370399475,0.6806564927101135,-0.35365840792655945,0.9651107788085938,0.29714909195899963,0.5526504516601562,-1.4689874649047852,0.953077495098114,0.636364758014679,0.6802183389663696,-0.44942840933799744,0.9683428406715393,0.29374387860298157,0.5243374109268188,-1.5159224271774292,0.9546944499015808,0.6267009377479553,0.6693680882453918,-0.31455889344215393,0.9689717292785645,0.28205275535583496,0.5209435820579529,-1.3650012016296387,0.9430960416793823,0.4777640402317047,0.6351412534713745,0.09274324029684067,0.9985774755477905,0.30469486117362976,0.6555833220481873,-0.09239339828491211,0.9987421631813049,0.478077232837677,0.8355216979980469,0.28496405482292175,0.9594161510467529,0.33615678548812866,0.8690791130065918,0.09126485139131546,0.9712814092636108,0.4818079471588135,0.9604219794273376,1.1497023105621338,0.892788827419281,0.35505709052085876,0.9842259287834167,0.7904353737831116,0.9105599522590637,0.46356964111328125,0.9695330858230591,1.2160625457763672,0.8390187621116638,0.3539377450942993,0.9847685694694519,0.8462724089622498,0.7148036956787109,0.5370826125144958,1.0184117555618286,0.9233850240707397,0.8412858247756958,0.3836105465888977,1.0768697261810303,0.45541295409202576,0.8025417923927307
19405.642374318468,0.43187451362609863,0.23542216420173645,-1.0354583263397217,0.9999889135360718,0.4412204325199127,0.21136707067489624,-0.9714855551719666,0.9999790191650391,0.4505070745944977,0.21032363176345825,-0.9715664386749268,0.9999758005142212,0.4593174457550049,0.2091604471206665,-0.9715733528137207,0.9999692440032959,0.40537145733833313,0.2124079167842865,-1.0084691047668457,0.9999821186065674,0.3862547278404236,0.21207720041275024,-1.0086114406585693,0.9999821186065674,0.3658943176269531,0.2118208408355713,-1.0087385177612305,0.9999797344207764,0.45230910181999207,0.21559160947799683,-0.5842307806015015,0.999975323677063,0.3150264620780945,0.22028303146362305,-0.7635828852653503,0.9999862909317017,0.4399240016937256,0.25842753052711487,-0.889207124710083,0.999992847442627,0.40365201234817505,0.2606005072593689,-0.940015971660614,0.9999957084655762,0.5195055603981018,0.35160452127456665,-0.3047252297401428,0.9999167919158936,0.16059677302837372,0.37169864773750305,-0.5979114174842834,0.9998268485069275,0.5611910223960876,0.5117316246032715,-0.01097582932561636,0.9769899845123291,0.1339060515165329,0.5340490341186523,-0.8288949728012085,0.9838115572929382,0.6324049234390259,0.6411009430885315,-0.2543424665927887,0.9800940155982971,0.24637949466705322,0.5481737852096558,-1.3928242921829224,0.9700443744659424,0.651195764541626,0.6821160316467285,-0.33284980058670044,0.9650986790657043,0.29074594378471375,0.5512850284576416,-1.5256627798080444,0.9565834999084473,0.6369078159332275,0.6813316941261292,-0.4293317198753357,0.9682897925376892,0.28333964943885803,0.5229135155677795,-1.574320673942566,0.9581125974655151,0.6263695955276489,0.6705776453018188,-0.29595935344696045,0.9688889980316162,0.2735966444015503,0.5200522541999817,-1.4199589490890503,0.9463604092597961,0.48023107647895813,0.634475827217102,0.09666722267866135,0.9983413219451904,0.3038333058357239,0.6555010676383972,-0.09628631919622421,0.9986388087272644,0.4773847162723541,0.8322257995605469,0.2785479426383972,0.9568876028060913,0.3366212248802185,0.8688086867332458,0.0742207020521164,0.970238447189331,0.47874826192855835,0.954779863357544,1.1439380645751953,0.8863941431045532,0.3531050682067871,0.9876645803451538,0.7667433619499207,0.9071574211120605,0.457903653383255,0.9652032852172852,1.2107913494110107,0.8426926136016846,0.35015302896499634,0.9881834983825684,0.8217822909355164,0.7061673998832703,0.5315341949462891,1.016920566558838,0.918605625629425,0.838058590888977,0.38745778799057007,1.0832433700561523,0.4204809069633484,0.7898721694946289
19422.309040985136,0.43078428506851196,0.2336428165435791,-1.0444111824035645,0.9999915361404419,0.4407106637954712,0.21035408973693848,-0.9816020131111145,0.9999836683273315,0.4503580927848816,0.2097458839416504,-0.9816550016403198,0.9999809265136719,0.45884639024734497,0.20907244086265564,-0.9816432595252991,0.9999756813049316,0.4052743911743164,0.2105126678943634,-1.0160645246505737,0.9999862909317017,0.38614997267723083,0.21008476614952087,-1.0161757469177246,0.9999861717224121,0.3668957054615021,0.20971918106079102,-1.016274094581604,0.9999845027923584,0.4542485177516937,0.216085284948349,-0.5998715162277222,0.9999802112579346,0.31948328018188477,0.2187211513519287,-0.767140805721283,0.9999892711639404,0.43838587403297424,0.2574295401573181,-0.9001416563987732,0.9999940395355225,0.40252456068992615,0.2581023573875427,-0.947512149810791,0.9999964237213135,0.518765389919281,0.35072004795074463,-0.32741984724998474,0.9999240636825562,0.16363883018493652,0.369528204202652,-0.5875418782234192,0.9998360872268677,0.5640743970870972,0.5104951858520508,-0.025738170370459557,0.977702260017395,0.13054002821445465,0.5317698121070862,-0.8053245544433594,0.9840954542160034,0.6335136890411377,0.638278603553772,-0.255104124546051,0.9791249632835388,0.25313323736190796,0.5437091588973999,-1.3617135286331177,0.9717071652412415,0.6513327360153198,0.6804311275482178,-0.33147746324539185,0.9633157849311829,0.29793936014175415,0.5504098534584045,-1.4910032749176025,0.9576514363288879,0.6373353600502014,0.6792895793914795,-0.42686036229133606,0.9665588736534119,0.2964203953742981,0.5222099423408508,-1.5388296842575073,0.9589925408363342,0.6275999546051025,0.6679971218109131,-0.29581621289253235,0.9673752188682556,0.28494179248809814,0.5184928178787231,-1.3881341218948364,0.9479079246520996,0.47952961921691895,0.6343641877174377,0.07172822952270508,0.9988467693328857,0.302004873752594,0.6530954241752625,-0.07133184373378754,0.9990077614784241,0.47536709904670715,0.8329784870147705,0.2419600933790207,0.9701691269874573,0.3346610963344574,0.8619257211685181,0.121881864964962,0.9728932976722717,0.4795704483985901,0.9581515789031982,1.0990138053894043,0.9163025617599487,0.3499400019645691,0.9812563061714172,0.8352603912353516,0.9203104972839355,0.46158623695373535,0.9670807123184204,1.1636356115341187,0.8558135032653809,0.34694042801856995,0.9831766486167908,0.8925414681434631,0.738761305809021,0.5292590260505676,1.0195505619049072,0.8584359884262085,0.8627539277076721,0.3621700704097748,1.0729438066482544,0.5019117593765259,0.8193005919456482
19438.975707651804,0.432207316160202,0.23422420024871826,-1.0519084930419922,0.9999908208847046,0.4415936768054962,0.21097156405448914,-0.988261878490448,0.999982476234436,0.4508309066295624,0.2101462483406067,-0.9883570671081543,0.9999802112579346,0.45934998989105225,0.20914316177368164,-0.9883763194084167,0.9999747276306152,0.4064611494541168,0.2118128538131714,-1.0229954719543457,0.9999847412109375,0.38758623600006104,0.21166202425956726,-1.0231389999389648,0.9999845027923584,0.3676396906375885,0.2115703821182251,-1.0232224464416504,0.9999821186065674,0.45289602875709534,0.21591457724571228,-0.6041906476020813,0.9999792575836182,0.3182623088359833,0.22029799222946167,-0.7729915380477905,0.9999873638153076,0.4398033618927002,0.25761404633522034,-0.907183825969696,0.9999933242797852,0.403664767742157,0.25930264592170715,-0.9549989104270935,0.9999958276748657,0.5197089314460754,0.3522399961948395,-0.33727049827575684,0.9999175071716309,0.1638791859149933,0.3712185323238373,-0.5941013693809509,0.9998052716255188,0.5616769790649414,0.5116348266601562,-0.06694190949201584,0.9775164127349854,0.12652269005775452,0.5332472920417786,-0.8053740859031677,0.9820147752761841,0.6315315961837769,0.6395096182823181,-0.3235805630683899,0.978107750415802,0.2511528432369232,0.5485188961029053,-1.348334789276123,0.9659169316291809,0.6501786708831787,0.6810864210128784,-0.40465351939201355,0.9612573981285095,0.29501503705978394,0.5512763857841492,-1.4776885509490967,0.9496583938598633,0.6371278762817383,0.6802754998207092,-0.5016109943389893,0.9647637009620667,0.2919124960899353,0.5233872532844543,-1.5221028327941895,0.9511442184448242,0.6270454525947571,0.6694849729537964,-0.3657371401786804,0.9654558897018433,0.2808900773525238,0.5203958749771118,-1.3737986087799072,0.9385008811950684,0.47993239760398865,0.6340543031692505,0.08335836231708527,0.9979799389839172,0.3064335584640503,0.6561611890792847,-0.0829983800649643,0.9983500242233276,0.47867658734321594,0.8364837765693665,0.2854083776473999,0.9595217108726501,0.33736762404441833,0.8686055541038513,0.09191694110631943,0.9726176261901855,0.4826004207134247,0.9585965871810913,1.1263757944107056,0.8936054706573486,0.3555833697319031,0.9871954917907715,0.7669188976287842,0.9137176871299744,0.46623456478118896,0.9669768214225769,1.1897424459457397,0.8365734219551086,0.3643796145915985,1.0118896961212158,0.8199470639228821,0.7117136120796204,0.5345839262008667,1.0207087993621826,0.8932619690895081,0.8430933952331543,0.38333621621131897,1.082348346710205,0.42415979504585266,0.8057798147201538
19455.64237431847,0.4303518533706665,0.2332814633846283,-1.0415674448013306,0.999990701675415,0.43931955099105835,0.20991003513336182,-0.9779749512672424,0.9999823570251465,0.44876185059547424,0.20922541618347168,-0.9780281186103821,0.9999793767929077,0.4574402868747711,0.20843195915222168,-0.9779908061027527,0.999974250793457,0.40403223037719727,0.21024608612060547,-1.0129904747009277,0.9999853372573853,0.38531604409217834,0.20979991555213928,-1.0130996704101562,0.9999849796295166,0.3662000894546509,0.20942288637161255,-1.0131771564483643,0.9999829530715942,0.452018678188324,0.21566900610923767,-0.5985128283500671,0.9999772310256958,0.3181370496749878,0.2185479700565338,-0.7684802412986755,0.9999880790710449,0.4384766221046448,0.25663313269615173,-0.8992182016372681,0.9999932050704956,0.4027206599712372,0.2580282986164093,-0.9471946358680725,0.9999959468841553,0.5190376043319702,0.35133257508277893,-0.32898977398872375,0.9999120235443115,0.1637810915708542,0.3692963123321533,-0.6086418032646179,0.9998352527618408,0.5612601041793823,0.509692907333374,-0.05178619548678398,0.9765892624855042,0.1313386708498001,0.5293157696723938,-0.8185883164405823,0.9843661785125732,0.629368782043457,0.6387527585029602,-0.29628846049308777,0.9791972041130066,0.251312255859375,0.5494813919067383,-1.3421895503997803,0.9683536887168884,0.649545431137085,0.680879533290863,-0.37654173374176025,0.9632035493850708,0.2953132092952728,0.5532025694847107,-1.4691940546035767,0.9534306526184082,0.6361206769943237,0.6802682876586914,-0.47065281867980957,0.9665101170539856,0.29364097118377686,0.5250993967056274,-1.518166422843933,0.9550150632858276,0.6258053779602051,0.6695279479026794,-0.337577223777771,0.9674361348152161,0.2820945382118225,0.5216707587242126,-1.368986964225769,0.9440248608589172,0.4781220555305481,0.6336610317230225,0.09511179476976395,0.9985082745552063,0.30504631996154785,0.6538105010986328,-0.09475996345281601,0.9987955093383789,0.47878706455230713,0.8277525305747986,0.3244161605834961,0.9566893577575684,0.3361109793186188,0.865628719329834,0.11604361981153488,0.9748404026031494,0.47685757279396057,0.9574873447418213,1.1319117546081543,0.8977223634719849,0.3506476581096649,0.9812690019607544,0.7837679982185364,0.9139697551727295,0.45585623383522034,0.9678071141242981,1.1924537420272827,0.8534505367279053,0.3445834219455719,0.9825555682182312,0.8367718458175659,0.7321937680244446,0.5339082479476929,1.0163185596466064,0.9021787047386169,0.8492591381072998,0.3854474425315857,1.0724841356277466,0.45350271463394165,0.8037517666816711
19472.30904098514,0.43407073616981506,0.23883548378944397,-0.9434870481491089,0.9999902248382568,0.44457295536994934,0.21408769488334656,-0.8818393349647522,0.9999816417694092,0.4530831277370453,0.21341165900230408,-0.8819394111633301,0.9999792575836182,0.46128007769584656,0.2131251096725464,-0.8819515109062195,0.9999744892120361,0.4099644422531128,0.21449580788612366,-0.9182222485542297,0.9999836683273315,0.39161965250968933,0.21392515301704407,-0.918318510055542,0.9999833106994629,0.371289998292923,0.21378818154335022,-0.9183638691902161,0.9999803304672241,0.4524260461330414,0.2188994586467743,-0.5121090412139893,0.9999790191650391,0.3195987641811371,0.22088098526000977,-0.6888646483421326,0.9999855756759644,0.4398477375507355,0.26107028126716614,-0.8038775324821472,0.9999932050704956,0.4041920006275177,0.26269641518592834,-0.8538508415222168,0.9999954700469971,0.5174911022186279,0.35048776865005493,-0.2670750319957733,0.9999324083328247,0.16450555622577667,0.369569331407547,-0.5356529951095581,0.9998047947883606,0.5615594387054443,0.5092477202415466,0.0001855041628004983,0.9784561395645142,0.1374000906944275,0.5304328799247742,-0.7595370411872864,0.9747977256774902,0.631613552570343,0.6391323208808899,-0.2295936495065689,0.9811460971832275,0.24750372767448425,0.5460346937179565,-1.2932281494140625,0.9527694582939148,0.6495034694671631,0.6813324093818665,-0.30574825406074524,0.9665602445602417,0.28483015298843384,0.5501834154129028,-1.4180729389190674,0.937416672706604,0.6362138986587524,0.680715024471283,-0.3971589207649231,0.9696266055107117,0.28192996978759766,0.5203275680541992,-1.4663605690002441,0.9398912191390991,0.6264737844467163,0.6701417565345764,-0.26910772919654846,0.9699244499206543,0.2718402147293091,0.5168682932853699,-1.3209327459335327,0.9264165163040161,0.48051396012306213,0.6342567801475525,0.09561505913734436,0.9984185695648193,0.3042522668838501,0.6548176407814026,-0.09521929174661636,0.9986287355422974,0.47848033905029297,0.8356043100357056,0.30265694856643677,0.9595487117767334,0.3375074863433838,0.8706600069999695,0.09188415855169296,0.9740985035896301,0.48057326674461365,0.9590969681739807,1.1154547929763794,0.895399272441864,0.3524807393550873,0.9893968105316162,0.7410063147544861,0.9150258302688599,0.4596560597419739,0.9686201214790344,1.1785926818847656,0.8538562059402466,0.3485212028026581,0.9879947304725647,0.7928081750869751,0.728115439414978,0.5390306711196899,1.019655704498291,0.9059863686561584,0.8470385074615479,0.39772042632102966,1.0803834199905396,0.41638025641441345,0.8001437783241272
19488.975707651807,0.42751142382621765,0.2396034300327301,-1.1169488430023193,0.9999971389770508,0.4390033781528473,0.21537035703659058,-1.054469347000122,0.9999939203262329,0.44842368364334106,0.21474558115005493,-1.0544501543045044,0.9999929666519165,0.4573182463645935,0.2143632173538208,-1.0543155670166016,0.9999904632568359,0.4035794138908386,0.21576082706451416,-1.0846706628799438,0.9999949932098389,0.3852229416370392,0.2155919075012207,-1.084753155708313,0.9999951124191284,0.36659589409828186,0.2155044972896576,-1.084753394126892,0.999994158744812,0.4504323899745941,0.22016116976737976,-0.6657418608665466,0.9999915361404419,0.3183281421661377,0.222209632396698,-0.8162950277328491,0.9999958276748657,0.43580907583236694,0.2620411217212677,-0.9708871245384216,0.9999973773956299,0.3987157642841339,0.2628713548183441,-1.0131820440292358,0.9999985694885254,0.5187036991119385,0.35272547602653503,-0.38758790493011475,0.9999483823776245,0.1623162478208542,0.36842021346092224,-0.6374163627624512,0.9999194145202637,0.566626250743866,0.5143218636512756,-0.10709573328495026,0.9810121059417725,0.1282992959022522,0.5302686095237732,-0.8668437004089355,0.9886813163757324,0.6336140036582947,0.6414229869842529,-0.3563556671142578,0.9841501116752625,0.24686068296432495,0.5456386208534241,-1.431741714477539,0.9787431359291077,0.6502058506011963,0.6842061281204224,-0.43552979826927185,0.9703640341758728,0.2943589687347412,0.5525990724563599,-1.5665419101715088,0.9665204882621765,0.6381608247756958,0.6837642788887024,-0.5337554812431335,0.9727216958999634,0.29324400424957275,0.5238242745399475,-1.6111594438552856,0.9675779938697815,0.6285461783409119,0.6718583106994629,-0.39891690015792847,0.9729107618331909,0.2800866365432739,0.5198480486869812,-1.4581868648529053,0.9591600894927979,0.4773864150047302,0.6324763298034668,0.08515463024377823,0.9990467429161072,0.300408273935318,0.6554430723190308,-0.08482066541910172,0.9993168115615845,0.47767630219459534,0.8233538866043091,0.37866082787513733,0.9773581027984619,0.33552366495132446,0.8591673970222473,0.16931980848312378,0.9887725710868835,0.4810899496078491,0.9483376741409302,1.2168891429901123,0.9508243799209595,0.34828463196754456,0.9817127585411072,0.8587215542793274,0.9640264511108398,0.46026888489723206,0.9640162587165833,1.2805514335632324,0.9205275177955627,0.3493913412094116,0.9846676588058472,0.9137942790985107,0.8511033058166504,0.5381571054458618,1.0173739194869995,0.9917652606964111,0.9234604835510254,0.3808578550815582,1.0679538249969482,0.5327264070510864,0.9033567905426025
19505.642374318475,0.4276876449584961,0.23936474323272705,-1.0867177248001099,0.9999951124191284,0.43950632214546204,0.2144554853439331,-1.024019479751587,0.9999902248382568,0.44908830523490906,0.21361589431762695,-1.0240561962127686,0.9999889135360718,0.4579284191131592,0.21334269642829895,-1.024003028869629,0.9999854564666748,0.4038251042366028,0.21522942185401917,-1.0545872449874878,0.9999912977218628,0.38554078340530396,0.21494540572166443,-1.0547109842300415,0.9999910593032837,0.36643338203430176,0.21506977081298828,-1.054746389389038,0.99998939037323,0.45228832960128784,0.2202197015285492,-0.6352243423461914,0.9999878406524658,0.3177946209907532,0.22299623489379883,-0.7878803610801697,0.9999920129776001,0.43592849373817444,0.2618972659111023,-0.940030038356781,0.9999959468841553,0.399983674287796,0.26340240240097046,-0.98309725522995,0.9999972581863403,0.5194008350372314,0.35257574915885925,-0.36848732829093933,0.9999394416809082,0.16104331612586975,0.3703104853630066,-0.6003274917602539,0.9998531341552734,0.5654024481773376,0.5141633749008179,-0.1034003347158432,0.9824144244194031,0.13877572119235992,0.5311232209205627,-0.8313072323799133,0.9784690737724304,0.6328306198120117,0.6439875960350037,-0.3563600182533264,0.9834792613983154,0.24965672194957733,0.5492560267448425,-1.4152500629425049,0.9624947905540466,0.6485404968261719,0.6845342516899109,-0.436642050743103,0.9691712856292725,0.2896864414215088,0.552354097366333,-1.5493139028549194,0.9476511478424072,0.6352506875991821,0.6844322681427002,-0.5334157347679138,0.9717292189598083,0.2874847650527954,0.522965669631958,-1.5985625982284546,0.9496521353721619,0.6253756284713745,0.6731658577919006,-0.3978382647037506,0.9720571041107178,0.27744776010513306,0.5202865600585938,-1.4443280696868896,0.9382435083389282,0.47727689146995544,0.6335325837135315,0.07391020655632019,0.9988197684288025,0.3000803589820862,0.6552603840827942,-0.07357173413038254,0.999040424823761,0.47690221667289734,0.8286824226379395,0.29080668091773987,0.9728370904922485,0.332122266292572,0.8667542934417725,0.13262832164764404,0.9819645285606384,0.4813711643218994,0.9539581537246704,1.1109864711761475,0.9371327757835388,0.3482397496700287,0.9868770837783813,0.8117244243621826,0.9498158097267151,0.4600656032562256,0.9670499563217163,1.1722842454910278,0.8977227807044983,0.34803131222724915,0.9893659949302673,0.8642023801803589,0.7978112697601318,0.5385127663612366,1.0198707580566406,0.8745265603065491,0.9032251834869385,0.3722739517688751,1.0789999961853027,0.4718104898929596,0.8743026852607727
19522.309040985143,0.42648911476135254,0.2401094287633896,-1.0781352519989014,0.9999953508377075,0.43906110525131226,0.2154027819633484,-1.0147417783737183,0.9999904632568359,0.4485447108745575,0.21453052759170532,-1.0147762298583984,0.9999887943267822,0.45741310715675354,0.2141551673412323,-1.0146986246109009,0.9999853372573853,0.40343305468559265,0.21631920337677002,-1.0452187061309814,0.9999918937683105,0.38496190309524536,0.21614429354667664,-1.0453295707702637,0.9999916553497314,0.36611512303352356,0.2161475121974945,-1.0453617572784424,0.9999903440475464,0.4518411457538605,0.2210628092288971,-0.6256517767906189,0.9999867677688599,0.3178361654281616,0.22368523478507996,-0.7777520418167114,0.9999929666519165,0.4351980686187744,0.2624635696411133,-0.9317943453788757,0.9999961853027344,0.3990137577056885,0.2637734115123749,-0.9746413230895996,0.9999977350234985,0.5197755098342896,0.35366055369377136,-0.3584791123867035,0.999936580657959,0.16249775886535645,0.3698091506958008,-0.595093309879303,0.9998867511749268,0.5665270090103149,0.514994204044342,-0.10021516680717468,0.9807167649269104,0.13394004106521606,0.5301980376243591,-0.8151698112487793,0.9833313226699829,0.6322803497314453,0.6423951983451843,-0.3719773292541504,0.982725977897644,0.2517952620983124,0.5499303936958313,-1.3814443349838257,0.9703336358070374,0.6483947038650513,0.6835359334945679,-0.4576171636581421,0.9682533144950867,0.29915231466293335,0.5554484128952026,-1.5155165195465088,0.9563108682632446,0.6349718570709229,0.6835994720458984,-0.5545558333396912,0.9708153009414673,0.29739975929260254,0.5267481207847595,-1.5632134675979614,0.9578260779380798,0.6249956488609314,0.6722397804260254,-0.41456764936447144,0.971025288105011,0.2853878140449524,0.523455023765564,-1.4091038703918457,0.9477659463882446,0.4790697991847992,0.6355957984924316,0.07902193069458008,0.9988170862197876,0.3032618463039398,0.6577737927436829,-0.07873084396123886,0.9990890026092529,0.47732409834861755,0.8283719420433044,0.32935795187950134,0.9707848429679871,0.33363187313079834,0.8651052117347717,0.14742867648601532,0.9828979969024658,0.4806674122810364,0.9551317095756531,1.1509696245193481,0.9346116781234741,0.3496216833591461,0.9870309233665466,0.8248267769813538,0.9497009515762329,0.45852139592170715,0.968035876750946,1.2127091884613037,0.8970866799354553,0.3477051854133606,0.9898342490196228,0.877761721611023,0.80771404504776,0.5379672050476074,1.0203789472579956,0.919040858745575,0.9019853472709656,0.37758156657218933,1.077707052230835,0.490139365196228,0.8762205839157104
19538.97570765181,0.4258822798728943,0.2400984913110733,-1.0236507654190063,0.9999914169311523,0.43830907344818115,0.21505585312843323,-0.9637880921363831,0.9999829530715942,0.44781559705734253,0.21415939927101135,-0.9638624787330627,0.9999799728393555,0.456753671169281,0.21384590864181519,-0.9638453125953674,0.9999750852584839,0.40277719497680664,0.21613019704818726,-0.9944421052932739,0.9999850988388062,0.38461950421333313,0.21602019667625427,-0.9945423007011414,0.9999842643737793,0.36557435989379883,0.2162410020828247,-0.9945580363273621,0.9999817609786987,0.4515133798122406,0.22043883800506592,-0.5867438912391663,0.999976634979248,0.3164415955543518,0.22438910603523254,-0.7410793900489807,0.9999864101409912,0.4342944025993347,0.262654572725296,-0.880520761013031,0.9999929666519165,0.39808955788612366,0.26429206132888794,-0.9239130616188049,0.9999954700469971,0.5187115669250488,0.3536718189716339,-0.33128494024276733,0.9999239444732666,0.16282403469085693,0.3698532283306122,-0.5611254572868347,0.9998538494110107,0.5646950006484985,0.5132982730865479,-0.07238778471946716,0.9770219922065735,0.13873817026615143,0.5276839733123779,-0.7678274512290955,0.9757028222084045,0.6311630010604858,0.6427194476127625,-0.32656899094581604,0.9798857569694519,0.2432883381843567,0.5461773872375488,-1.3108532428741455,0.9578076601028442,0.6477266550064087,0.6836666464805603,-0.40859562158584595,0.9647040367126465,0.2815890312194824,0.5485160946846008,-1.4409422874450684,0.9431959986686707,0.634566068649292,0.6839525699615479,-0.50486820936203,0.9674764275550842,0.27834126353263855,0.5186668038368225,-1.488012433052063,0.9451472163200378,0.6242891550064087,0.6728272438049316,-0.3681475520133972,0.9678307175636292,0.2684527635574341,0.5162531137466431,-1.338703989982605,0.9327084422111511,0.47743451595306396,0.636696457862854,0.082236647605896,0.9988574981689453,0.2983233630657196,0.6554101705551147,-0.08203186839818954,0.9990822076797485,0.4748464524745941,0.8342692255973816,0.396083265542984,0.9604952335357666,0.32964882254600525,0.8651604652404785,0.1842825561761856,0.9798964262008667,0.47834309935569763,0.9550773501396179,1.1885303258895874,0.9187055230140686,0.3469717800617218,0.9894412755966187,0.8482216000556946,0.9405468702316284,0.4546366333961487,0.9703267216682434,1.2497730255126953,0.8892791271209717,0.34460127353668213,0.9922853708267212,0.9015762805938721,0.7918718457221985,0.5417076945304871,1.0203752517700195,0.9783844351768494,0.8873274922370911,0.372219443321228,1.0747053623199463,0.5324016809463501,0.8590641021728516
19555.64237431848,0.4303131699562073,0.238102525472641,-0.974862277507782,0.9999884366989136,0.44264185428619385,0.21342402696609497,-0.9082363247871399,0.9999793767929077,0.4519972503185272,0.2129439413547516,-0.9083631634712219,0.9999760389328003,0.4613523483276367,0.21279945969581604,-0.9084029197692871,0.9999704360961914,0.40673375129699707,0.21347689628601074,-0.945145845413208,0.9999809265136719,0.38818538188934326,0.21290728449821472,-0.9452617168426514,0.9999798536300659,0.36815860867500305,0.21280640363693237,-0.9453281760215759,0.999976634979248,0.4553211033344269,0.21931159496307373,-0.5232962965965271,0.999976396560669,0.3175620436668396,0.22064200043678284,-0.7033056020736694,0.9999833106994629,0.4366705119609833,0.26069626212120056,-0.8307623267173767,0.9999923706054688,0.4007507562637329,0.2620788812637329,-0.8817765116691589,0.9999943971633911,0.5173813104629517,0.3525759279727936,-0.27790218591690063,0.9999078512191772,0.15600912272930145,0.3733268082141876,-0.5423157215118408,0.9997736811637878,0.567463755607605,0.5149555802345276,-0.023810017853975296,0.9740850329399109,0.1465989202260971,0.5342946648597717,-0.7601247429847717,0.9696902632713318,0.6321388483047485,0.6451806426048279,-0.2859426736831665,0.9734163284301758,0.24430392682552338,0.5479549765586853,-1.3162472248077393,0.9499581456184387,0.6501034498214722,0.6854842305183411,-0.36800673604011536,0.9543145298957825,0.2797069549560547,0.5501567721366882,-1.4475347995758057,0.9353640675544739,0.6344155073165894,0.6854339241981506,-0.4605812132358551,0.9584121704101562,0.27705511450767517,0.5192204117774963,-1.4977161884307861,0.9380728602409363,0.6236923933029175,0.6738802194595337,-0.32663601636886597,0.9597719311714172,0.2687830924987793,0.5161455273628235,-1.3453965187072754,0.9232087731361389,0.4779775142669678,0.6390970945358276,0.0837513729929924,0.9985857009887695,0.3005427420139313,0.6578925848007202,-0.08341667056083679,0.9987558126449585,0.46946755051612854,0.8395194411277771,0.28580203652381897,0.9473644495010376,0.32758668065071106,0.8682234287261963,0.11021866649389267,0.9650931358337402,0.4783117473125458,0.9547208547592163,1.1425758600234985,0.874926745891571,0.34186264872550964,0.9870562553405762,0.8103363513946533,0.9046874642372131,0.45605388283729553,0.9663907885551453,1.209102749824524,0.8481597900390625,0.3383287787437439,0.9895138144493103,0.86603182554245,0.7189217805862427,0.5371813774108887,1.0163116455078125,0.9292037487030029,0.8321820497512817,0.3684334456920624,1.0775498151779175,0.4832127094268799,0.7960143089294434
19572.309040985147,0.4296756982803345,0.23932385444641113,-1.0207693576812744,0.999988317489624,0.44207000732421875,0.21437254548072815,-0.9554746747016907,0.9999781847000122,0.4512774348258972,0.21374917030334473,-0.9555805325508118,0.9999737739562988,0.46032217144966125,0.21359899640083313,-0.9555842876434326,0.9999673366546631,0.4069490432739258,0.21460425853729248,-0.9921380877494812,0.9999814033508301,0.3888036608695984,0.21407097578048706,-0.9922816753387451,0.9999804496765137,0.3688845932483673,0.2140771746635437,-0.9923592805862427,0.9999783039093018,0.45385241508483887,0.21981477737426758,-0.5643011927604675,0.9999711513519287,0.31817322969436646,0.22186121344566345,-0.7440111637115479,0.9999852180480957,0.4372295141220093,0.2618003785610199,-0.873500406742096,0.999991774559021,0.40113499760627747,0.26296335458755493,-0.9243450164794922,0.9999949932098389,0.5174407362937927,0.3527102768421173,-0.2964629530906677,0.9998975992202759,0.1592637300491333,0.3707239031791687,-0.5731240510940552,0.999830961227417,0.5664801001548767,0.5126014351844788,-0.03462008759379387,0.9740524888038635,0.13532939553260803,0.5324724316596985,-0.7742984890937805,0.981013834476471,0.6302050352096558,0.6432629823684692,-0.30934324860572815,0.9741840362548828,0.2509162425994873,0.5463753938674927,-1.3085391521453857,0.9652170538902283,0.6489754915237427,0.6843279004096985,-0.39416560530662537,0.9550117254257202,0.2949198782444,0.5513144135475159,-1.440182089805603,0.9500222206115723,0.6338669657707214,0.6845596432685852,-0.4906359612941742,0.9587135910987854,0.2935643196105957,0.5226598978042603,-1.4862412214279175,0.9517521262168884,0.6224726438522339,0.6727254390716553,-0.3520320653915405,0.9598056077957153,0.2827564477920532,0.5191612243652344,-1.3346177339553833,0.939096987247467,0.4781542718410492,0.6388834118843079,0.08946872502565384,0.9983641505241394,0.3011121451854706,0.6582931280136108,-0.08916280418634415,0.9986955523490906,0.47065111994743347,0.8406680822372437,0.32822057604789734,0.9520484209060669,0.32838496565818787,0.8695195317268372,0.12097948789596558,0.9708758592605591,0.479423463344574,0.9569631814956665,1.1799901723861694,0.8851923942565918,0.34323224425315857,0.9876174330711365,0.8196540474891663,0.9138184785842896,0.45789602398872375,0.9676653742790222,1.2457600831985474,0.8554125428199768,0.3395159840583801,0.9896947741508484,0.8751025795936584,0.7301724553108215,0.5355108976364136,1.0173239707946777,0.9594705700874329,0.8457673192024231,0.3669271469116211,1.0804672241210938,0.48253321647644043,0.8110646605491638
