0,1
14838.548608637575,-136.0
14838.548671134788,-143.0
14838.548733632,-141.0
14838.548796129213,-149.0
14838.548858626425,-116.0
14838.548921123638,-72.0
14838.54898362085,-67.0
14838.549046118062,-124.0
14838.549108615274,-177.0
14838.549171112487,-181.0
14838.5492336097,-209.0
14838.549296106912,-266.0
14838.549358604125,-287.0
14838.549421101337,-297.0
14838.54948359855,-302.0
14838.549546095763,-286.0
14838.549608592975,-254.0
14838.549671090186,-270.0
14838.549733587399,-226.0
14838.549796084611,-154.0
14838.549858581824,-183.0
14838.549921079037,-221.0
14838.54998357625,-277.0
14838.550046073462,-268.0
14838.550108570675,-208.0
14838.550171067887,-189.0
14838.5502335651,-179.0
14838.550296062313,-190.0
14838.550358559525,-206.0
14838.550421056736,-200.0
14838.550483553949,-217.0
14838.550546051161,-219.0
14838.550608548374,-184.0
14838.550671045587,-191.0
14838.5507335428,-189.0
14838.550796040012,-166.0
14838.550858537224,-168.0
14838.550921034437,-153.0
14838.55098353165,-93.0
14838.55104602886,-50.0
14838.551108526073,-23.0
14838.551171023286,-36.0
14838.551233520498,-94.0
14838.551296017711,-155.0
14838.551358514924,-214.0
14838.551421012136,-240.0
14838.551483509349,-226.0
14838.551546006562,-260.0
14838.551608503774,-306.0
14838.551671000987,-306.0
14838.5517334982,-262.0
14838.55179599541,-241.0
14838.551858492623,-246.0
14838.551920989836,-249.0
14838.551983487048,-266.0
14838.552045984261,-274.0
14838.552108481474,-271.0
14838.552170978686,-275.0
14838.552233475899,-306.0
14838.552295973112,-318.0
14838.552358470324,-267.0
14838.552420967535,-213.0
14838.552483464748,-222.0
14838.55254596196,-229.0
14838.552608459173,-251.0
14838.552670956386,-303.0
14838.552733453598,-289.0
14838.55279595081,-277.0
14838.552858448023,-286.0
14838.552920945236,-267.0
14838.552983442449,-250.0
14838.553045939661,-195.0
14838.553108436874,-118.0
14838.553170934085,-59.0
14838.553233431297,6.0
14838.55329592851,38.0
14838.553358425723,13.0
14838.553420922935,-51.0
14838.553483420148,-127.0
14838.55354591736,-151.0
14838.553608414573,-209.0
14838.553670911786,-298.0
14838.553733408997,-285.0
14838.55379590621,-267.0
14838.553858403422,-292.0
14838.553920900635,-300.0
14838.553983397847,-263.0
14838.55404589506,-218.0
14838.554108392273,-213.0
14838.554170889485,-203.0
14838.554233386698,-222.0
14838.55429588391,-222.0
14838.554358381123,-198.0
14838.554420878336,-173.0
14838.554483375548,-124.0
14838.55454587276,-47.0
14838.554608369972,-15.0
14838.554670867185,-68.0
14838.554733364397,-64.0
14838.55479586161,-90.0
14838.554858358822,-155.0
14838.554920856035,-158.0
14838.554983353248,-160.0
14838.55504585046,-174.0
14838.555108347671,-188.0
14838.555170844884,-182.0
14838.555233342096,-151.0
14838.55529583931,-107.0
14838.555358336522,-90.0
14838.555420833734,-67.0
14838.555483330947,-66.0
14838.55554582816,-112.0
14838.555608325372,-178.0
14838.555670822585,-255.0
14838.555733319798,-255.0
14838.55579581701,-276.0
14838.555858314223,-332.0
14838.555920811434,-327.0
14838.555983308646,-328.0
14838.556045805859,-340.0
14838.556108303072,-305.0
14838.556170800284,-274.0
14838.556233297497,-258.0
14838.55629579471,-259.0
14838.556358291922,-327.0
14838.556420789135,-350.0
14838.556483286346,-321.0
14838.556545783558,-317.0
14838.55660828077,-277.0
14838.556670777984,-277.0
14838.556733275196,-228.0
14838.556795772409,-162.0
14838.556858269621,-226.0
14838.556920766834,-273.0
14838.556983264047,-248.0
14838.55704576126,-260.0
14838.557108258472,-292.0
14838.557170755685,-311.0
14838.557233252897,-333.0
14838.557295750108,-283.0
14838.55735824732,-213.0
14838.557420744533,-173.0
14838.557483241746,-127.0
14838.557545738959,-95.0
14838.557608236171,-106.0
14838.557670733384,-136.0
14838.557733230597,-151.0
14838.55779572781,-179.0
14838.55785822502,-239.0
14838.557920722233,-258.0
14838.557983219445,-284.0
14838.558045716658,-342.0
14838.55810821387,-358.0
14838.558170711083,-318.0
14838.558233208296,-283.0
14838.558295705508,-255.0
14838.558358202721,-240.0
14838.558420699934,-197.0
14838.558483197146,-152.0
14838.558545694359,-167.0
14838.55860819157,-156.0
14838.558670688783,-167.0
14838.558733185995,-183.0
14838.558795683208,-198.0
14838.55885818042,-249.0
14838.558920677633,-265.0
14838.558983174846,-273.0
14838.559045672058,-312.0
14838.559108169271,-323.0
14838.559170666484,-325.0
14838.559233163694,-345.0
14838.559295660907,-375.0
14838.55935815812,-407.0
14838.559420655332,-409.0
14838.559483152545,-416.0
14838.559545649758,-430.0
14838.55960814697,-462.0
14838.559670644183,-451.0
14838.559733141396,-334.0
14838.559795638608,-281.0
14838.55985813582,-271.0
14838.559920633033,-247.0
14838.559983130244,-298.0
14838.560045627457,-368.0
14838.56010812467,-409.0
14838.560170621882,-425.0
14838.560233119095,-426.0
14838.560295616307,-403.0
14838.56035811352,-307.0
14838.560420610733,-293.0
14838.560483107945,-327.0
14838.560545605158,-284.0
14838.560608102369,-293.0
14838.560670599581,-297.0
14838.560733096794,-266.0
14838.560795594007,-266.0
14838.56085809122,-261.0
14838.560920588432,-258.0
14838.560983085645,-260.0
14838.561045582857,-243.0
14838.56110808007,-231.0
14838.561170577283,-222.0
14838.561233074495,-206.0
14838.561295571708,-224.0
14838.561358068919,-234.0
14838.561420566131,-226.0
14838.561483063344,-237.0
14838.561545560557,-227.0
14838.56160805777,-205.0
14838.561670554982,-216.0
14838.561733052195,-201.0
14838.561795549407,-184.0
14838.56185804662,-199.0
14838.561920543832,-202.0
14838.561983041043,-166.0
14838.562045538256,-143.0
14838.562108035469,-174.0
14838.562170532681,-168.0
14838.562233029894,-186.0
14838.562295527106,-234.0
14838.56235802432,-300.0
14838.562420521532,-296.0
14838.562483018744,-284.0
14838.562545515957,-266.0
14838.56260801317,-208.0
14838.562670510382,-217.0
14838.562733007593,-190.0
14838.562795504806,-217.0
14838.562858002018,-273.0
14838.562920499231,-323.0
14838.562982996444,-385.0
14838.563045493656,-406.0
14838.563107990869,-442.0
14838.563170488082,-421.0
14838.563232985294,-364.0
14838.563295482507,-354.0
14838.563357979718,-374.0
14838.56342047693,-373.0
14838.563482974143,-402.0
14838.563545471356,-442.0
14838.563607968568,-471.0
14838.56367046578,-534.0
14838.563732962994,-516.0
14838.563795460206,-497.0
14838.563857957419,-515.0
14838.563920454631,-524.0
14838.563982951844,-542.0
14838.564045449057,-523.0
14838.564107946268,-458.0
14838.56417044348,-388.0
14838.564232940693,-346.0
14838.564295437905,-302.0
14838.564357935118,-258.0
14838.56442043233,-231.0
14838.564482929543,-215.0
14838.564545426756,-199.0
14838.564607923969,-214.0
14838.56467042118,-218.0
14838.564732918392,-205.0
14838.564795415605,-244.0
14838.564857912817,-271.0
14838.56492041003,-281.0
14838.564982907243,-276.0
14838.565045404455,-246.0
14838.565107901668,-261.0
14838.56517039888,-288.0
14838.565232896093,-311.0
14838.565295393306,-408.0
14838.565357890518,-460.0
14838.565420387731,-452.0
14838.565482884942,-447.0
14838.565545382155,-394.0
14838.565607879367,-372.0
14838.56567037658,-383.0
14838.565732873793,-352.0
14838.565795371005,-408.0
14838.565857868218,-489.0
14838.56592036543,-466.0
14838.565982862643,-515.0
14838.566045359854,-538.0
14838.566107857067,-523.0
14838.56617035428,-551.0
14838.566232851492,-535.0
14838.566295348704,-507.0
14838.566357845917,-458.0
14838.56642034313,-393.0
14838.566482840342,-339.0
14838.566545337555,-281.0
14838.566607834768,-236.0
14838.56667033198,-253.0
14838.566732829193,-244.0
14838.566795326406,-255.0
14838.566857823616,-315.0
14838.566920320829,-339.0
14838.566982818042,-349.0
14838.567045315254,-371.0
14838.567107812467,-363.0
14838.56717030968,-322.0
14838.567232806892,-309.0
14838.567295304105,-309.0
14838.567357801317,-346.0
14838.567420298528,-366.0
14838.567482795741,-388.0
14838.567545292954,-434.0
14838.567607790166,-366.0
14838.567670287379,-328.0
14838.567732784591,-240.0
14838.567795281804,-109.0
14838.567857779017,-92.0
14838.56792027623,-77.0
14838.567982773442,-143.0
14838.568045270655,-225.0
14838.568107767867,-235.0
14838.56817026508,-223.0
14838.56823276229,-237.0
14838.568295259503,-285.0
14838.568357756716,-240.0
14838.568420253929,-185.0
14838.568482751141,-197.0
14838.568545248354,-180.0
14838.568607745567,-164.0
14838.56867024278,-160.0
14838.568732739992,-90.0
14838.568795237203,-33.0
14838.568857734415,-17.0
14838.568920231628,32.0
14838.56898272884,72.0
14838.569045226053,68.0
14838.569107723266,-7.0
14838.569170220479,-56.0
14838.569232717691,-73.0
14838.569295214904,-101.0
14838.569357712116,-103.0
14838.56942020933,-87.0
14838.569482706542,-75.0
14838.569545203753,-99.0
14838.569607700965,-191.0
14838.569670198178,-260.0
14838.56973269539,-234.0
14838.569795192603,-275.0
14838.569857689816,-323.0
14838.569920187028,-304.0
14838.569982684241,-290.0
14838.570045181454,-263.0
14838.570107678666,-266.0
14838.570170175877,-283.0
14838.57023267309,-324.0
14838.570295170302,-336.0
14838.570357667515,-313.0
14838.570420164728,-332.0
14838.57048266194,-315.0
14838.570545159153,-288.0
14838.570607656366,-206.0
14838.570670153578,-153.0
14838.57073265079,-129.0
14838.570795148004,-41.0
14838.570857645216,-12.0
14838.570920142427,-7.0
14838.57098263964,-68.0
14838.571045136852,-156.0
14838.571107634065,-151.0
14838.571170131278,-148.0
14838.57123262849,-191.0
14838.571295125703,-225.0
14838.571357622915,-200.0
14838.571420120128,-204.0
14838.57148261734,-291.0
14838.571545114552,-306.0
14838.571607611764,-298.0
14838.571670108977,-321.0
14838.57173260619,-250.0
14838.571795103402,-209.0
14838.571857600615,-176.0
14838.571920097827,-160.0
14838.57198259504,-178.0
14838.572045092253,-147.0
14838.572107589465,-134.0
14838.572170086678,-94.0
14838.57223258389,-121.0
14838.572295081101,-130.0
14838.572357578314,-93.0
14838.572420075527,-106.0
14838.57248257274,-114.0
14838.572545069952,-129.0
14838.572607567165,-138.0
14838.572670064377,-200.0
14838.57273256159,-262.0
14838.572795058803,-274.0
14838.572857556015,-321.0
14838.572920053226,-316.0
14838.572982550439,-303.0
14838.573045047651,-301.0
14838.573107544864,-236.0
14838.573170042077,-201.0
14838.57323253929,-248.0
14838.573295036502,-289.0
14838.573357533714,-339.0
14838.573420030927,-360.0
14838.57348252814,-394.0
14838.573545025352,-432.0
14838.573607522565,-397.0
14838.573670019776,-355.0
14838.573732516988,-245.0
14838.573795014201,-154.0
14838.573857511414,-172.0
14838.573920008626,-160.0
14838.573982505839,-160.0
14838.574045003052,-169.0
14838.574107500264,-169.0
14838.574169997477,-190.0
14838.57423249469,-196.0
14838.5742949919,-220.0
14838.574357489113,-207.0
14838.574419986326,-98.0
14838.574482483538,-16.0
14838.574544980751,-8.0
14838.574607477964,-4.0
14838.574669975176,-54.0
14838.574732472389,-100.0
14838.574794969601,-155.0
14838.574857466814,-230.0
14838.574919964027,-246.0
14838.57498246124,-192.0
14838.57504495845,-103.0
14838.575107455663,-75.0
14838.575169952876,-40.0
14838.575232450088,-9.0
14838.5752949473,-45.0
14838.575357444513,-62.0
14838.575419941726,-117.0
14838.575482438939,-240.0
14838.575544936151,-271.0
14838.575607433364,-285.0
14838.575669930575,-305.0
14838.575732427787,-251.0
14838.575794925,-187.0
14838.575857422213,-140.0
14838.575919919425,-104.0
14838.575982416638,-91.0
14838.57604491385,-91.0
14838.576107411063,-139.0
14838.576169908276,-206.0
14838.576232405489,-294.0
14838.576294902701,-335.0
14838.576357399914,-288.0
14838.576419897125,-245.0
14838.576482394337,-131.0
14838.57654489155,-73.0
14838.576607388763,-117.0
14838.576669885975,-73.0
14838.576732383188,-29.0
14838.5767948804,-72.0
14838.576857377613,-115.0
14838.576919874826,-180.0
14838.576982372037,-281.0
14838.57704486925,-330.0
14838.577107366462,-307.0
14838.577169863674,-276.0
14838.577232360887,-265.0
14838.5772948581,-255.0
14838.577357355312,-247.0
14838.577419852525,-263.0
14838.577482349738,-227.0
14838.57754484695,-163.0
14838.577607344163,-105.0
14838.577669841376,-45.0
14838.577732338588,-68.0
14838.577794835799,-137.0
14838.577857333012,-119.0
14838.577919830224,-66.0
14838.577982327437,-15.0
14838.57804482465,69.0
14838.578107321862,116.0
14838.578169819075,96.0
14838.578232316288,68.0
14838.5782948135,3.0
14838.578357310711,-103.0
14838.578419807924,-168.0
14838.578482305136,-203.0
14838.578544802349,-216.0
14838.578607299562,-216.0
14838.578669796774,-169.0
14838.578732293987,-37.0
14838.5787947912,-21.0
14838.578857288412,-80.0
14838.578919785625,-105.0
14838.578982282837,-163.0
14838.57904478005,-267.0
14838.579107277263,-341.0
14838.579169774473,-291.0
14838.579232271686,-239.0
14838.579294768899,-204.0
14838.579357266111,-126.0
14838.579419763324,-84.0
14838.579482260537,-34.0
14838.57954475775,10.0
14838.579607254962,-19.0
14838.579669752175,-28.0
14838.579732249385,67.0
14838.579794746598,98.0
14838.57985724381,36.0
14838.579919741023,36.0
14838.579982238236,48.0
14838.580044735449,25.0
14838.580107232661,-12.0
14838.580169729874,-50.0
14838.580232227087,-8.0
14838.5802947243,34.0
14838.580357221512,-44.0
14838.580419718724,-118.0
14838.580482215935,-191.0
14838.580544713148,-262.0
14838.58060721036,-293.0
14838.580669707573,-331.0
14838.580732204786,-258.0
14838.580794701998,-156.0
14838.580857199211,-72.0
14838.580919696424,-47.0
14838.580982193636,-18.0
14838.581044690849,49.0
14838.58110718806,71.0
14838.581169685272,48.0
14838.581232182485,-13.0
14838.581294679698,-58.0
14838.58135717691,-78.0
14838.581419674123,-74.0
14838.581482171336,-120.0
14838.581544668548,-162.0
14838.581607165761,-132.0
14838.581669662974,-126.0
14838.581732160186,-157.0
14838.581794657399,-226.0
14838.58185715461,-311.0
14838.581919651822,-333.0
14838.581982149035,-336.0
14838.582044646248,-323.0
14838.58210714346,-271.0
14838.582169640673,-241.0
14838.582232137886,-243.0
14838.582294635098,-251.0
14838.58235713231,-220.0
14838.582419629523,-196.0
14838.582482126734,-203.0
14838.582544623947,-199.0
14838.58260712116,-179.0
14838.582669618372,-214.0
14838.582732115585,-224.0
14838.582794612797,-220.0
14838.58285711001,-241.0
14838.582919607223,-196.0
14838.582982104435,-130.0
14838.583044601648,-58.0
14838.58310709886,-66.0
14838.583169596073,-151.0
14838.583232093284,-182.0
14838.583294590497,-176.0
14838.58335708771,-171.0
14838.583419584922,-173.0
14838.583482082135,-186.0
14838.583544579347,-209.0
14838.58360707656,-221.0
14838.583669573773,-191.0
14838.583732070985,-86.0
14838.583794568198,1.0
14838.583857065409,40.0
14838.583919562621,59.0
14838.583982059834,51.0
14838.584044557047,-18.0
14838.58410705426,-48.0
14838.584169551472,2.0
14838.584232048684,39.0
14838.584294545897,75.0
14838.58435704311,82.0
14838.584419540322,19.0
14838.584482037535,-123.0
14838.584544534748,-244.0
14838.584607031959,-292.0
14838.584669529171,-365.0
14838.584732026384,-332.0
14838.584794523596,-285.0
14838.584857020809,-340.0
14838.584919518022,-343.0
14838.584982015234,-262.0
14838.585044512447,-156.0
14838.58510700966,-54.0
14838.585169506872,22.0
14838.585232004083,15.0
14838.585294501296,-79.0
14838.585356998508,-131.0
14838.585419495721,-125.0
14838.585481992934,-84.0
14838.585544490146,-2.0
14838.585606987359,52.0
14838.585669484572,14.0
14838.585731981784,-40.0
14838.585794478997,-60.0
14838.58585697621,-82.0
14838.585919473422,-88.0
14838.585981970633,-76.0
14838.586044467846,-97.0
14838.586106965058,-180.0
14838.58616946227,-232.0
14838.586231959483,-241.0
14838.586294456696,-207.0
14838.586356953909,-118.0
14838.586419451121,-87.0
14838.586481948334,-85.0
14838.586544445547,-88.0
14838.586606942757,-128.0
14838.58666943997,-188.0
14838.586731937183,-211.0
14838.586794434395,-209.0
14838.586856931608,-159.0
14838.58691942882,-102.0
14838.586981926033,-126.0
14838.587044423246,-178.0
14838.587106920459,-178.0
14838.587169417671,-97.0
14838.587231914884,-46.0
14838.587294412097,-44.0
14838.587356909307,-80.0
14838.58741940652,-120.0
14838.587481903733,-147.0
14838.587544400945,-172.0
14838.587606898158,-182.0
14838.58766939537,-178.0
14838.587731892583,-156.0
14838.587794389796,-178.0
14838.587856887008,-178.0
14838.58791938422,-155.0
14838.587981881432,-163.0
14838.588044378645,-148.0
14838.588106875857,-119.0
14838.58816937307,-103.0
14838.588231870282,-94.0
14838.588294367495,-132.0
14838.588356864708,-120.0
14838.58841936192,-95.0
14838.588481859133,-115.0
14838.588544356346,-15.0
14838.588606853558,68.0
14838.588669350771,27.0
14838.588731847982,39.0
14838.588794345194,-36.0
14838.588856842407,-165.0
14838.58891933962,-164.0
14838.588981836832,-140.0
14838.589044334045,-68.0
14838.589106831258,12.0
14838.58916932847,14.0
14838.589231825683,-9.0
14838.589294322894,23.0
14838.589356820106,75.0
14838.589419317319,129.0
14838.589481814532,161.0
14838.589544311744,120.0
14838.589606808957,145.0
14838.58966930617,156.0
14838.589731803382,177.0
14838.589794300595,185.0
14838.589856797807,94.0
14838.58991929502,69.0
14838.589981792233,55.0
14838.590044289445,-13.0
14838.590106786656,-22.0
14838.590169283869,60.0
14838.590231781081,88.0
14838.590294278294,40.0
14838.590356775507,-107.0
14838.59041927272,-254.0
14838.590481769932,-287.0
14838.590544267145,-228.0
14838.590606764357,-120.0
14838.590669261568,-110.0
14838.59073175878,-27.0
14838.590794255993,96.0
14838.590856753206,114.0
14838.590919250419,183.0
14838.590981747631,202.0
14838.591044244844,129.0
14838.591106742057,140.0
14838.59116923927,92.0
14838.591231736482,-17.0
14838.591294233694,-53.0
14838.591356730907,-44.0
14838.591419228118,34.0
14838.59148172533,72.0
14838.591544222543,44.0
14838.591606719756,49.0
14838.591669216969,62.0
14838.591731714181,100.0
14838.591794211394,147.0
14838.591856708606,174.0
14838.591919205819,206.0
14838.591981703032,266.0
14838.592044200243,229.0
14838.592106697455,171.0
14838.592169194668,165.0
14838.59223169188,113.0
14838.592294189093,19.0
14838.592356686306,-40.0
14838.592419183518,-35.0
14838.592481680731,-78.0
14838.592544177944,-176.0
14838.592606675156,-147.0
14838.592669172369,-93.0
14838.592731669582,-14.0
14838.592794166792,94.0
14838.592856664005,118.0
14838.592919161218,152.0
14838.59298165843,186.0
14838.593044155643,180.0
14838.593106652856,116.0
14838.593169150068,51.0
14838.59323164728,109.0
14838.593294144493,199.0
14838.593356641706,100.0
14838.593419138917,-72.0
14838.59348163613,-63.0
14838.593544133342,-2.0
14838.593606630555,68.0
14838.593669127767,94.0
14838.59373162498,165.0
14838.593794122193,168.0
14838.593856619405,68.0
14838.593919116618,57.0
14838.59398161383,55.0
14838.594044111043,49.0
14838.594106608256,8.0
14838.594169105467,-79.0
14838.59423160268,-129.0
14838.594294099892,-148.0
14838.594356597105,-111.0
14838.594419094317,-29.0
14838.59448159153,16.0
14838.594544088743,106.0
14838.594606585955,149.0
14838.594669083168,108.0
14838.59473158038,161.0
14838.594794077591,91.0
14838.594856574804,-5.0
14838.594919072017,60.0
14838.59498156923,109.0
14838.595044066442,151.0
14838.595106563655,183.0
14838.595169060867,117.0
14838.59523155808,3.0
14838.595294055292,-60.0
14838.595356552505,-70.0
14838.595419049718,-26.0
14838.59548154693,-123.0
14838.595544044141,-237.0
14838.595606541354,-168.0
14838.595669038566,-54.0
14838.59573153578,95.0
14838.595794032992,118.0
14838.595856530204,61.0
14838.595919027417,-13.0
14838.59598152463,-109.0
14838.596044021842,-81.0
14838.596106519055,1.0
14838.596169016266,55.0
14838.596231513478,88.0
14838.596294010691,128.0
14838.596356507904,152.0
14838.596419005116,93.0
14838.596481502329,40.0
14838.596543999542,10.0
14838.596606496754,23.0
14838.596668993967,83.0
14838.59673149118,206.0
14838.596793988392,285.0
14838.596856485605,279.0
14838.596918982816,292.0
14838.596981480028,204.0
14838.59704397724,161.0
14838.597106474454,140.0
14838.597168971666,107.0
14838.597231468879,81.0
14838.597293966091,-3.0
14838.597356463304,-11.0
14838.597418960517,54.0
14838.59748145773,99.0
14838.59754395494,162.0
14838.597606452153,170.0
14838.597668949365,81.0
14838.597731446578,80.0
14838.59779394379,133.0
14838.597856441003,156.0
14838.597918938216,216.0
14838.597981435429,266.0
14838.598043932641,174.0
14838.598106429854,19.0
14838.598168927067,-55.0
14838.59823142428,-59.0
14838.59829392149,-17.0
14838.598356418703,0.0
14838.598418915915,20.0
14838.598481413128,86.0
14838.59854391034,104.0
14838.598606407553,72.0
14838.598668904766,73.0
14838.598731401979,107.0
14838.598793899191,126.0
14838.598856396402,97.0
14838.598918893615,40.0
14838.598981390827,16.0
14838.59904388804,30.0
14838.599106385253,112.0
14838.599168882465,184.0
14838.599231379678,213.0
14838.59929387689,205.0
14838.599356374103,159.0
14838.599418871316,103.0
14838.599481368528,35.0
14838.599543865741,108.0
14838.599606362954,208.0
14838.599668860164,164.0
14838.599731357377,167.0
14838.59979385459,209.0
14838.599856351802,198.0
14838.599918849015,216.0
14838.599981346228,200.0
14838.60004384344,202.0
14838.600106340653,227.0
14838.600168837866,146.0
14838.600231335076,7.0
14838.600293832289,-149.0
14838.600356329502,-212.0
14838.600418826714,-96.0
14838.600481323927,-77.0
14838.60054382114,-112.0
14838.600606318352,-109.0
14838.600668815565,-164.0
14838.600731312777,-69.0
14838.60079380999,-2.0
14838.600856307203,44.0
14838.600918804415,157.0
14838.600981301628,199.0
14838.601043798839,212.0
14838.601106296052,167.0
14838.601168793264,145.0
14838.601231290477,196.0
14838.60129378769,270.0
14838.601356284902,315.0
14838.601418782115,305.0
14838.601481279327,293.0
14838.60154377654,263.0
14838.60160627375,217.0
14838.601668770963,221.0
14838.601731268176,307.0
14838.601793765389,351.0
14838.601856262601,277.0
14838.601918759814,183.0
14838.601981257027,117.0
14838.60204375424,79.0
14838.602106251452,61.0
14838.602168748665,93.0
14838.602231245877,117.0
14838.60229374309,102.0
14838.6023562403,84.0
14838.602418737513,-17.0
14838.602481234726,-26.0
14838.602543731939,39.0
14838.602606229151,71.0
14838.602668726364,85.0
14838.602731223576,81.0
14838.60279372079,46.0
14838.602856218002,76.0
14838.602918715214,165.0
14838.602981212425,189.0
14838.603043709638,176.0
14838.60310620685,254.0
14838.603168704063,354.0
14838.603231201276,329.0
14838.603293698488,236.0
14838.603356195701,214.0
14838.603418692914,256.0
14838.603481190126,224.0
14838.603543687339,227.0
14838.603606184552,197.0
14838.603668681764,168.0
14838.603731178975,285.0
14838.603793676188,286.0
14838.6038561734,302.0
14838.603918670613,263.0
14838.603981167826,103.0
14838.604043665038,38.0
14838.60410616225,-32.0
14838.604168659464,-63.0
14838.604231156676,-93.0
14838.604293653889,-117.0
14838.6043561511,-95.0
14838.604418648312,-20.0
14838.604481145525,91.0
14838.604543642738,122.0
14838.60460613995,274.0
14838.604668637163,301.0
14838.604731134375,227.0
14838.604793631588,294.0
14838.6048561288,307.0
14838.604918626013,276.0
14838.604981123226,320.0
14838.605043620439,358.0
14838.60510611765,336.0
14838.605168614862,235.0
14838.605231112075,142.0
14838.605293609287,108.0
14838.6053561065,137.0
14838.605418603713,140.0
14838.605481100925,45.0
14838.605543598138,-23.0
14838.60560609535,-64.0
14838.605668592563,-138.0
14838.605731089774,-123.0
14838.605793586987,-104.0
14838.6058560842,-133.0
14838.605918581412,-96.0
14838.605981078625,-23.0
14838.606043575837,0.0
14838.60610607305,1.0
14838.606168570263,48.0
14838.606231067475,117.0
14838.606293564688,137.0
14838.6063560619,175.0
14838.606418559113,230.0
14838.606481056324,284.0
14838.606543553537,319.0
14838.60660605075,221.0
14838.606668547962,80.0
14838.606731045174,102.0
14838.606793542387,161.0
14838.6068560396,112.0
14838.606918536812,32.0
14838.606981034025,-14.0
14838.607043531238,-100.0
14838.607106028448,-143.0
14838.607168525661,-72.0
14838.607231022874,-19.0
14838.607293520086,-11.0
14838.607356017299,-86.0
14838.607418514512,-152.0
14838.607481011724,-97.0
14838.607543508937,-34.0
14838.60760600615,-104.0
14838.607668503362,-173.0
14838.607731000575,-174.0
14838.607793497787,-168.0
14838.607855994998,-169.0
14838.607918492211,-237.0
14838.607980989424,-224.0
14838.608043486636,-134.0
14838.608105983849,-88.0
14838.608168481062,-30.0
14838.608230978274,59.0
14838.608293475487,89.0
14838.6083559727,57.0
14838.608418469912,99.0
14838.608480967123,172.0
14838.608543464336,238.0
14838.608605961548,319.0
14838.60866845876,241.0
14838.608730955973,209.0
14838.608793453186,217.0
14838.608855950399,132.0
14838.608918447611,83.0
14838.608980944824,141.0
14838.609043442037,232.0
14838.60910593925,245.0
14838.609168436462,228.0
14838.609230933673,149.0
14838.609293430885,61.0
14838.609355928098,65.0
14838.60941842531,185.0
14838.609480922523,284.0
14838.609543419736,304.0
14838.609605916949,305.0
14838.609668414161,269.0
14838.609730911374,346.0
14838.609793408585,416.0
14838.609855905797,432.0
14838.60991840301,443.0
14838.609980900223,436.0
14838.610043397435,408.0
14838.610105894648,401.0
14838.61016839186,483.0
14838.610230889073,514.0
14838.610293386286,532.0
14838.610355883498,562.0
14838.610418380711,497.0
14838.610480877924,418.0
14838.610543375136,321.0
14838.610605872347,179.0
14838.61066836956,118.0
14838.610730866772,188.0
14838.610793363985,228.0
14838.610855861198,206.0
14838.61091835841,225.0
14838.610980855623,175.0
14838.611043352836,79.0
14838.611105850048,92.0
14838.611168347259,141.0
14838.611230844472,234.0
14838.611293341684,341.0
14838.611355838897,319.0
14838.61141833611,237.0
14838.611480833322,202.0
14838.611543330535,167.0
14838.611605827748,171.0
14838.61166832496,216.0
14838.611730822173,382.0
14838.611793319385,414.0
14838.611855816598,228.0
14838.61191831381,191.0
14838.611980811022,259.0
14838.612043308234,272.0
14838.612105805447,312.0
14838.61216830266,315.0
14838.612230799872,213.0
14838.612293297085,152.0
14838.612355794297,108.0
14838.61241829151,135.0
14838.612480788723,254.0
14838.612543285933,383.0
14838.612605783146,449.0
14838.612668280359,366.0
14838.612730777571,229.0
14838.612793274784,140.0
14838.612855771997,15.0
14838.61291826921,-58.0
14838.612980766422,26.0
14838.613043263635,150.0
14838.613105760847,233.0
14838.61316825806,191.0
14838.613230755273,142.0
14838.613293252485,264.0
14838.613355749696,411.0
14838.613418246909,466.0
14838.613480744121,436.0
14838.613543241334,452.0
14838.613605738547,467.0
14838.61366823576,339.0
14838.613730732972,335.0
14838.613793230184,287.0
14838.613855727397,193.0
14838.613918224608,231.0
14838.61398072182,152.0
14838.614043219033,110.0
14838.614105716246,137.0
14838.614168213458,52.0
14838.614230710671,54.0
14838.614293207884,27.0
14838.614355705096,-44.0
14838.614418202309,-27.0
14838.614480699522,-53.0
14838.614543196734,-17.0
14838.614605693947,87.0
14838.614668191158,253.0
14838.61473068837,543.0
14838.614793185583,691.0
14838.614855682796,692.0
14838.614918180008,636.0
14838.614980677221,504.0
14838.615043174434,381.0
14838.615105671646,318.0
14838.615168168859,315.0
14838.615230666072,325.0
14838.615293163282,325.0
14838.615355660495,282.0
14838.615418157708,286.0
14838.61548065492,307.0
14838.615543152133,282.0
14838.615605649346,195.0
14838.615668146558,112.0
14838.61573064377,197.0
14838.615793140983,203.0
14838.615855638196,161.0
14838.615918135409,200.0
14838.615980632621,200.0
14838.616043129832,167.0
14838.616105627045,125.0
14838.616168124257,44.0
14838.61623062147,66.0
14838.616293118683,154.0
14838.616355615895,110.0
14838.616418113108,64.0
14838.61648061032,84.0
14838.616543107533,158.0
14838.616605604746,205.0
14838.616668101957,176.0
14838.61673059917,321.0
14838.616793096382,450.0
14838.616855593595,418.0
14838.616918090807,343.0
14838.61698058802,222.0
14838.617043085233,240.0
14838.617105582445,341.0
14838.617168079658,383.0
14838.61723057687,323.0
14838.617293074083,204.0
14838.617355571296,232.0
14838.617418068507,244.0
14838.61748056572,150.0
14838.617543062932,290.0
14838.617605560145,485.0
14838.617668057357,509.0
14838.61773055457,536.0
14838.617793051782,552.0
14838.617855548995,593.0
14838.617918046208,725.0
14838.61798054342,781.0
14838.618043040631,702.0
14838.618105537844,719.0
14838.618168035056,701.0
14838.618230532269,610.0
14838.618293029482,530.0
14838.618355526694,379.0
14838.618418023907,456.0
14838.61848052112,625.0
14838.618543018332,539.0
14838.618605515545,417.0
14838.618668012758,479.0
14838.61873050997,483.0
14838.618793007181,338.0
14838.618855504394,293.0
14838.618918001606,384.0
14838.618980498819,399.0
14838.619042996032,261.0
14838.619105493244,122.0
14838.619167990457,108.0
14838.61923048767,82.0
14838.619292984882,140.0
14838.619355482095,292.0
14838.619417979306,401.0
14838.619480476518,451.0
14838.61954297373,360.0
14838.619605470943,324.0
14838.619667968156,273.0
14838.619730465369,195.0
14838.619792962581,179.0
14838.619855459794,164.0
14838.619917957007,129.0
14838.61998045422,-34.0
14838.620042951432,-51.0
14838.620105448645,86.0
14838.620167945855,123.0
14838.620230443068,49.0
14838.62029294028,-112.0
14838.620355437493,-250.0
14838.620417934706,-276.0
14838.620480431919,-197.0
14838.620542929131,-60.0
14838.620605426344,128.0
14838.620667923557,221.0
14838.620730420767,189.0
14838.62079291798,28.0
14838.620855415193,-25.0
14838.620917912405,85.0
14838.620980409618,147.0
14838.62104290683,161.0
14838.621105404043,100.0
14838.621167901256,104.0
14838.621230398468,226.0
14838.621292895681,322.0
14838.621355392894,348.0
14838.621417890106,374.0
14838.621480387319,439.0
14838.62154288453,575.0
14838.621605381742,664.0
14838.621667878955,628.0
14838.621730376168,611.0
14838.62179287338,511.0
14838.621855370593,361.0
14838.621917867806,371.0
14838.621980365018,413.0
14838.622042862231,315.0
14838.622105359442,225.0
14838.622167856654,191.0
14838.622230353867,99.0
14838.62229285108,-4.0
14838.622355348292,-27.0
14838.622417845505,66.0
14838.622480342718,212.0
14838.62254283993,200.0
14838.622605337143,72.0
14838.622667834356,58.0
14838.622730331568,152.0
14838.62279282878,302.0
14838.622855325993,434.0
14838.622917823204,415.0
14838.622980320417,335.0
14838.62304281763,195.0
14838.623105314842,108.0
14838.623167812055,281.0
14838.623230309267,446.0
14838.62329280648,449.0
14838.623355303693,383.0
14838.623417800905,337.0
14838.623480298116,240.0
14838.623542795329,168.0
14838.623605292541,161.0
14838.623667789754,72.0
14838.623730286967,51.0
14838.62379278418,49.0
14838.623855281392,-88.0
14838.623917778605,-60.0
14838.623980275817,109.0
14838.62404277303,161.0
14838.624105270243,220.0
14838.624167767455,278.0
14838.624230264668,274.0
14838.624292761879,256.0
14838.624355259091,307.0
14838.624417756304,389.0
14838.624480253517,390.0
14838.62454275073,431.0
14838.624605247942,481.0
14838.624667745155,477.0
14838.624730242367,505.0
14838.62479273958,429.0
14838.62485523679,320.0
14838.624917734003,323.0
14838.624980231216,430.0
14838.625042728429,500.0
14838.625105225641,377.0
14838.625167722854,282.0
14838.625230220066,290.0
14838.625292717279,263.0
14838.625355214492,284.0
14838.625417711704,323.0
14838.625480208917,310.0
14838.62554270613,239.0
14838.62560520334,160.0
14838.625667700553,192.0
14838.625730197766,255.0
14838.625792694978,365.0
14838.625855192191,492.0
14838.625917689404,545.0
14838.625980186616,632.0
14838.626042683829,662.0
14838.626105181042,598.0
14838.626167678254,572.0
14838.626230175465,508.0
14838.626292672678,444.0
14838.62635516989,281.0
14838.626417667103,184.0
14838.626480164316,257.0
14838.626542661528,219.0
14838.62660515874,204.0
14838.626667655953,260.0
14838.626730153166,189.0
14838.626792650379,56.0
14838.626855147591,94.0
14838.626917644804,139.0
14838.626980142015,115.0
14838.627042639228,147.0
14838.62710513644,142.0
14838.627167633653,134.0
14838.627230130865,88.0
14838.627292628078,131.0
14838.62735512529,209.0
14838.627417622503,273.0
14838.627480119716,345.0
14838.627542616929,254.0
14838.62760511414,260.0
14838.627667611352,280.0
14838.627730108565,261.0
14838.627792605777,351.0
14838.62785510299,382.0
14838.627917600203,471.0
14838.627980097415,540.0
14838.628042594628,434.0
14838.62810509184,265.0
14838.628167589053,66.0
14838.628230086266,-22.0
14838.628292583478,12.0
14838.62835508069,45.0
14838.628417577902,104.0
14838.628480075115,85.0
14838.628542572327,-59.0
14838.62860506954,-147.0
14838.628667566752,-95.0
14838.628730063965,109.0
14838.628792561178,238.0
14838.62885505839,177.0
14838.628917555603,160.0
14838.628980052814,228.0
14838.629042550026,234.0
14838.62910504724,156.0
14838.629167544452,138.0
14838.629230041664,204.0
14838.629292538877,210.0
14838.62935503609,188.0
14838.629417533302,155.0
14838.629480030515,107.0
14838.629542527728,243.0
14838.62960502494,434.0
14838.629667522153,501.0
14838.629730019364,612.0
14838.629792516576,586.0
14838.629855013789,320.0
14838.629917511002,106.0
14838.629980008214,11.0
14838.630042505427,44.0
14838.63010500264,175.0
14838.630167499852,147.0
14838.630229997065,22.0
14838.630292494277,-48.0
14838.630354991488,-98.0
14838.630417488701,-84.0
14838.630479985914,-38.0
14838.630542483126,24.0
14838.630604980339,8.0
14838.630667477551,-37.0
14838.630729974764,62.0
14838.630792471977,93.0
14838.63085496919,178.0
14838.630917466402,351.0
14838.630979963615,457.0
14838.631042460827,509.0
14838.631104958038,454.0
14838.63116745525,452.0
14838.631229952463,457.0
14838.631292449676,399.0
14838.631354946889,344.0
14838.631417444101,360.0
14838.631479941314,464.0
14838.631542438527,468.0
14838.63160493574,302.0
14838.631667432952,165.0
14838.631729930163,164.0
14838.631792427375,196.0
14838.631854924588,241.0
14838.6319174218,236.0
14838.631979919013,103.0
14838.632042416226,-78.0
14838.632104913439,-174.0
14838.632167410651,-177.0
14838.632229907864,-17.0
14838.632292405076,179.0
14838.632354902289,282.0
14838.632417399502,378.0
14838.632479896713,316.0
14838.632542393925,215.0
14838.632604891138,240.0
14838.63266738835,276.0
14838.632729885563,363.0
14838.632792382776,466.0
14838.632854879988,356.0
14838.632917377201,255.0
14838.632979874414,222.0
14838.633042371624,206.0
14838.633104868837,274.0
14838.63316736605,344.0
14838.633229863262,308.0
14838.633292360475,208.0
14838.633354857688,272.0
14838.6334173549,306.0
14838.633479852113,201.0
14838.633542349326,179.0
14838.633604846538,154.0
14838.63366734375,113.0
14838.633729840963,184.0
14838.633792338176,228.0
14838.633854835387,223.0
14838.6339173326,95.0
14838.633979829812,-63.0
14838.634042327025,26.0
14838.634104824238,95.0
14838.63416732145,86.0
14838.634229818663,78.0
14838.634292315875,6.0
14838.634354813088,-28.0
14838.634417310299,-9.0
14838.634479807512,8.0
14838.634542304724,19.0
14838.634604801937,87.0
14838.63466729915,110.0
14838.634729796362,142.0
14838.634792293575,149.0
14838.634854790787,141.0
14838.634917288,291.0
14838.634979785213,361.0
14838.635042282425,375.0
14838.635104779638,455.0
14838.63516727685,443.0
14838.635229774061,366.0
14838.635292271274,362.0
14838.635354768487,360.0
14838.6354172657,361.0
14838.635479762912,324.0
14838.635542260125,353.0
14838.635604757337,426.0
14838.63566725455,428.0
14838.635729751762,479.0
14838.635792248973,427.0
14838.635854746186,297.0
14838.635917243399,298.0
14838.635979740611,281.0
14838.636042237824,300.0
14838.636104735036,402.0
14838.63616723225,392.0
14838.636229729462,299.0
14838.636292226674,188.0
14838.636354723887,273.0
14838.6364172211,505.0
14838.636479718312,593.0
14838.636542215523,714.0
14838.636604712736,813.0
14838.636667209948,706.0
14838.636729707161,652.0
14838.636792204374,722.0
14838.636854701586,770.0
14838.636917198799,758.0
14838.636979696012,791.0
14838.637042193224,857.0
14838.637104690437,755.0
14838.637167187648,529.0
14838.63722968486,436.0
14838.637292182073,426.0
14838.637354679286,400.0
14838.637417176498,427.0
14838.637479673711,324.0
14838.637542170924,143.0
14838.637604668136,74.0
14838.637667165349,57.0
14838.637729662561,214.0
14838.637792159774,299.0
14838.637854656987,268.0
14838.637917154198,216.0
14838.63797965141,28.0
14838.638042148623,-134.0
14838.638104645835,-230.0
14838.638167143048,-237.0
14838.63822964026,-256.0
14838.638292137473,-193.0
14838.638354634686,51.0
14838.638417131899,164.0
14838.638479629111,179.0
14838.638542126322,155.0
14838.638604623535,76.0
14838.638667120747,70.0
14838.63872961796,196.0
14838.638792115173,335.0
14838.638854612385,279.0
14838.638917109598,149.0
14838.63897960681,206.0
14838.639042104023,288.0
14838.639104601236,339.0
14838.639167098449,452.0
14838.639229595661,438.0
14838.639292092872,429.0
14838.639354590085,345.0
14838.639417087297,138.0
14838.63947958451,111.0
14838.639542081723,112.0
14838.639604578935,96.0
14838.639667076148,50.0
14838.63972957336,149.0
14838.639792070573,172.0
14838.639854567786,24.0
14838.639917064997,29.0
14838.63997956221,203.0
14838.640042059422,370.0
14838.640104556634,309.0
14838.640167053847,262.0
14838.64022955106,227.0
14838.640292048272,166.0
14838.640354545485,249.0
14838.640417042698,315.0
14838.64047953991,369.0
14838.640542037123,577.0
14838.640604534336,666.0
14838.640667031546,487.0
14838.640729528759,406.0
14838.640792025972,369.0
14838.640854523184,276.0
14838.640917020397,264.0
14838.64097951761,226.0
14838.641042014822,254.0
14838.641104512035,225.0
14838.641167009248,123.0
14838.64122950646,251.0
14838.641292003671,404.0
14838.641354500884,474.0
14838.641416998096,500.0
14838.641479495309,406.0
14838.641541992522,280.0
14838.641604489734,173.0
14838.641666986947,74.0
14838.64172948416,66.0
14838.641791981372,87.0
14838.641854478585,71.0
14838.641916975797,131.0
14838.64197947301,150.0
14838.64204197022,237.0
14838.642104467433,439.0
14838.642166964646,532.0
14838.642229461859,563.0
14838.642291959071,536.0
14838.642354456284,550.0
14838.642416953497,552.0
14838.64247945071,426.0
14838.642541947922,440.0
14838.642604445135,491.0
14838.642666942345,359.0
14838.642729439558,326.0
14838.64279193677,320.0
14838.642854433983,311.0
14838.642916931196,365.0
14838.642979428409,337.0
14838.643041925621,162.0
14838.643104422834,17.0
14838.643166920046,50.0
14838.64322941726,118.0
14838.643291914472,240.0
14838.643354411684,357.0
14838.643416908895,378.0
14838.643479406108,439.0
14838.64354190332,444.0
14838.643604400533,275.0
14838.643666897746,243.0
14838.643729394958,403.0
14838.643791892171,428.0
14838.643854389384,502.0
14838.643916886596,526.0
14838.643979383807,398.0
14838.64404188102,334.0
14838.644104378232,195.0
14838.644166875445,283.0
14838.644229372658,508.0
14838.64429186987,503.0
14838.644354367083,313.0
14838.644416864296,84.0
14838.644479361508,25.0
14838.644541858721,92.0
14838.644604355934,260.0
14838.644666853146,348.0
14838.644729350359,370.0
14838.64479184757,320.0
14838.644854344782,200.0
14838.644916841995,175.0
14838.644979339208,125.0
14838.64504183642,161.0
14838.645104333633,206.0
14838.645166830845,216.0
14838.645229328058,247.0
14838.64529182527,128.0
14838.645354322482,-42.0
14838.645416819694,2.0
14838.645479316907,159.0
14838.64554181412,196.0
14838.645604311332,223.0
14838.645666808545,216.0
14838.645729305757,263.0
14838.64579180297,336.0
14838.645854300183,335.0
14838.645916797395,382.0
14838.645979294608,428.0
14838.64604179182,540.0
14838.646104289033,599.0
14838.646166786244,402.0
14838.646229283457,201.0
14838.64629178067,154.0
14838.646354277882,117.0
14838.646416775095,0.0
14838.646479272307,-103.0
14838.64654176952,-20.0
14838.646604266733,-45.0
14838.646666763945,-324.0
14838.646729261156,-357.0
14838.646791758369,-177.0
14838.646854255581,10.0
14838.646916752794,128.0
14838.646979250007,178.0
14838.64704174722,122.0
14838.647104244432,82.0
14838.647166741644,171.0
14838.647229238857,167.0
14838.64729173607,304.0
14838.647354233282,472.0
14838.647416730495,513.0
14838.647479227706,514.0
14838.647541724918,476.0
14838.647604222131,469.0
14838.647666719344,389.0
14838.647729216556,285.0
14838.647791713769,312.0
14838.647854210982,357.0
14838.647916708194,378.0
14838.647979205407,373.0
14838.64804170262,321.0
14838.64810419983,310.0
14838.648166697043,248.0
14838.648229194256,85.0
14838.648291691468,-26.0
14838.648354188681,-124.0
14838.648416685894,-78.0
14838.648479183106,38.0
14838.648541680319,83.0
14838.648604177532,242.0
14838.648666674744,315.0
14838.648729171957,312.0
14838.64879166917,369.0
14838.64885416638,315.0
14838.648916663593,189.0
14838.648979160806,112.0
14838.649041658018,163.0
14838.64910415523,296.0
14838.649166652443,304.0
14838.649229149656,275.0
14838.649291646869,283.0
14838.649354144081,371.0
14838.649416641294,455.0
14838.649479138505,490.0
14838.649541635717,532.0
14838.64960413293,451.0
14838.649666630143,291.0
14838.649729127355,108.0
14838.649791624568,-60.0
14838.64985412178,57.0
14838.649916618993,204.0
14838.649979116206,261.0
14838.650041613419,292.0
14838.650104110631,213.0
14838.650166607844,306.0
14838.650229105055,356.0
14838.650291602267,238.0
14838.65035409948,123.0
14838.650416596693,33.0
14838.650479093905,112.0
14838.650541591118,234.0
14838.65060408833,123.0
14838.650666585543,56.0
14838.650729082756,348.0
14838.650791579968,460.0
14838.65085407718,394.0
14838.650916574392,526.0
14838.650979071605,564.0
14838.651041568817,395.0
14838.65110406603,137.0
14838.651166563242,43.0
14838.651229060455,158.0
14838.651291557668,268.0
14838.65135405488,331.0
14838.651416552093,476.0
14838.651479049306,709.0
14838.651541546518,705.0
14838.65160404373,516.0
14838.651666540942,447.0
14838.651729038154,597.0
14838.651791535367,589.0
14838.65185403258,431.0
14838.651916529792,329.0
14838.651979027005,161.0
14838.652041524218,133.0
14838.65210402143,133.0
14838.652166518643,100.0
14838.652229015854,220.0
14838.652291513066,438.0
14838.652354010279,567.0
14838.652416507492,433.0
14838.652479004704,296.0
14838.652541501917,466.0
14838.65260399913,574.0
14838.652666496342,530.0
14838.652728993555,608.0
14838.652791490767,583.0
14838.65285398798,517.0
14838.652916485193,454.0
14838.652978982404,374.0
14838.653041479616,484.0
14838.653103976829,497.0
14838.653166474041,421.0
14838.653228971254,416.0
14838.653291468467,268.0
14838.65335396568,162.0
14838.653416462892,193.0
14838.653478960105,159.0
14838.653541457317,189.0
14838.653603954528,365.0
14838.65366645174,416.0
14838.653728948953,373.0
14838.653791446166,441.0
14838.653853943379,599.0
14838.653916440591,594.0
14838.653978937804,395.0
14838.654041435017,298.0
14838.65410393223,245.0
14838.654166429442,247.0
14838.654228926654,365.0
14838.654291423867,408.0
14838.654353921078,314.0
14838.65441641829,223.0
14838.654478915503,261.0
14838.654541412716,329.0
14838.654603909928,307.0
14838.654666407141,260.0
14838.654728904354,307.0
14838.654791401566,224.0
14838.654853898779,135.0
14838.65491639599,220.0
14838.654978893202,450.0
14838.655041390415,509.0
14838.655103887628,322.0
14838.65516638484,177.0
14838.655228882053,-45.0
14838.655291379266,-23.0
14838.655353876478,141.0
14838.655416373691,313.0
14838.655478870904,435.0
14838.655541368116,442.0
14838.655603865329,456.0
14838.655666362542,309.0
14838.655728859752,342.0
14838.655791356965,529.0
14838.655853854178,566.0
14838.65591635139,471.0
14838.655978848603,433.0
14838.656041345816,469.0
14838.656103843028,377.0
14838.65616634024,270.0
14838.656228837453,265.0
14838.656291334664,226.0
14838.656353831877,99.0
14838.65641632909,-6.0
14838.656478826302,-54.0
14838.656541323515,-33.0
14838.656603820727,-132.0
14838.65666631794,-302.0
14838.656728815153,-156.0
14838.656791312365,117.0
14838.656853809578,223.0
14838.65691630679,194.0
14838.656978804003,160.0
14838.657041301216,147.0
14838.657103798427,192.0
14838.65716629564,247.0
14838.657228792852,293.0
14838.657291290065,342.0
14838.657353787277,347.0
14838.65741628449,276.0
14838.657478781703,135.0
14838.657541278915,143.0
14838.657603776128,150.0
14838.657666273339,-2.0
14838.657728770551,100.0
14838.657791267764,204.0
14838.657853764977,0.0
14838.65791626219,-268.0
14838.657978759402,-350.0
14838.658041256615,-115.0
14838.658103753827,88.0
14838.65816625104,165.0
14838.658228748252,172.0
14838.658291245465,91.0
14838.658353742678,-154.0
14838.65841623989,-221.0
14838.658478737101,-39.0
14838.658541234314,65.0
14838.658603731526,120.0
14838.65866622874,-22.0
14838.658728725952,-190.0
14838.658791223164,-252.0
14838.658853720377,-159.0
14838.65891621759,82.0
14838.658978714802,276.0
14838.659041212013,326.0
14838.659103709226,278.0
14838.659166206438,176.0
14838.659228703651,-47.0
14838.659291200864,-165.0
14838.659353698076,63.0
14838.659416195289,396.0
14838.659478692502,695.0
14838.659541189714,823.0
14838.659603686927,729.0
14838.65966618414,375.0
14838.659728681352,131.0
14838.659791178563,156.0
14838.659853675776,152.0
14838.659916172988,374.0
14838.6599786702,535.0
14838.660041167414,353.0
14838.660103664626,139.0
14838.660166161839,94.0
14838.660228659051,92.0
14838.660291156264,87.0
14838.660353653477,196.0
14838.660416150688,221.0
14838.6604786479,46.0
14838.660541145113,34.0
14838.660603642325,116.0
14838.660666139538,179.0
14838.66072863675,312.0
14838.660791133963,346.0
14838.660853631176,354.0
14838.660916128389,335.0
14838.660978625601,293.0
14838.661041122814,206.0
14838.661103620027,96.0
14838.661166117237,300.0
14838.66122861445,605.0
14838.661291111663,607.0
14838.661353608875,495.0
14838.661416106088,413.0
14838.6614786033,318.0
14838.661541100513,259.0
14838.661603597726,209.0
14838.661666094938,143.0
14838.661728592151,273.0
14838.661791089362,371.0
14838.661853586575,199.0
14838.661916083787,124.0
14838.661978581,69.0
14838.662041078212,-77.0
14838.662103575425,-67.0
14838.662166072638,-35.0
14838.66222856985,-14.0
14838.662291067063,-24.0
14838.662353564276,-56.0
14838.662416061488,-85.0
14838.662478558701,-97.0
14838.662541055912,-25.0
14838.662603553124,-10.0
14838.662666050337,75.0
14838.66272854755,185.0
14838.662791044762,93.0
14838.662853541975,43.0
14838.662916039188,27.0
14838.6629785364,122.0
14838.663041033613,408.0
14838.663103530826,478.0
14838.663166028036,459.0
14838.663228525249,548.0
14838.663291022462,436.0
14838.663353519674,323.0
14838.663416016887,446.0
14838.6634785141,455.0
14838.663541011312,349.0
14838.663603508525,313.0
14838.663666005737,203.0
14838.66372850295,130.0
14838.663791000163,75.0
14838.663853497375,22.0
14838.663915994586,157.0
14838.663978491799,303.0
14838.664040989011,226.0
14838.664103486224,181.0
14838.664165983437,49.0
14838.66422848065,-243.0
14838.664290977862,-328.0
14838.664353475075,-412.0
14838.664415972287,-425.0
14838.6644784695,-192.0
14838.66454096671,42.0
14838.664603463923,233.0
14838.664665961136,280.0
14838.664728458349,407.0
14838.664790955561,516.0
14838.664853452774,382.0
14838.664915949987,324.0
14838.6649784472,317.0
14838.665040944412,206.0
14838.665103441625,56.0
14838.665165938837,-47.0
14838.66522843605,-49.0
14838.66529093326,55.0
14838.665353430473,196.0
14838.665415927686,220.0
14838.665478424899,28.0
14838.665540922111,-163.0
14838.665603419324,-124.0
14838.665665916536,-23.0
14838.66572841375,57.0
14838.665790910962,90.0
14838.665853408173,35.0
14838.665915905385,72.0
14838.665978402598,196.0
14838.66604089981,240.0
14838.666103397023,170.0
14838.666165894236,35.0
14838.666228391448,-57.0
14838.666290888661,-86.0
14838.666353385874,-164.0
14838.666415883086,-120.0
14838.666478380299,-23.0
14838.666540877512,133.0
14838.666603374724,214.0
14838.666665871935,69.0
14838.666728369148,149.0
14838.66679086636,285.0
14838.666853363573,196.0
14838.666915860786,215.0
14838.666978357998,329.0
14838.66704085521,372.0
14838.667103352424,530.0
14838.667165849636,610.0
14838.667228346847,383.0
14838.66729084406,128.0
14838.667353341272,56.0
14838.667415838485,198.0
14838.667478335698,439.0
14838.66754083291,477.0
14838.667603330123,277.0
14838.667665827335,10.0
14838.667728324548,-185.0
14838.66779082176,-328.0
14838.667853318973,-307.0
14838.667915816186,-167.0
14838.667978313399,-188.0
14838.66804081061,-212.0
14838.668103307822,-261.0
14838.668165805035,-306.0
14838.668228302247,-256.0
14838.66829079946,-158.0
14838.668353296673,-1.0
14838.668415793885,-7.0
14838.668478291098,-67.0
14838.66854078831,-52.0
14838.668603285521,-241.0
14838.668665782734,-555.0
14838.668728279947,-504.0
14838.66879077716,-245.0
14838.668853274372,-292.0
14838.668915771585,-355.0
14838.668978268797,-336.0
14838.66904076601,-287.0
14838.669103263222,-81.0
14838.669165760435,112.0
14838.669228257648,236.0
14838.66929075486,237.0
14838.669353252073,87.0
14838.669415749284,-82.0
14838.669478246497,-162.0
14838.66954074371,-175.0
14838.669603240922,-218.0
14838.669665738134,-177.0
14838.669728235347,75.0
14838.66979073256,230.0
14838.669853229772,159.0
14838.669915726985,43.0
14838.669978224196,-152.0
14838.670040721408,-270.0
14838.670103218621,-54.0
14838.670165715834,63.0
14838.670228213046,59.0
14838.670290710259,2.0
14838.670353207472,-236.0
14838.670415704684,-339.0
14838.670478201897,-257.0
14838.67054069911,-180.0
14838.670603196322,-167.0
14838.670665693535,-268.0
14838.670728190746,-339.0
14838.670790687958,-329.0
14838.670853185171,-412.0
14838.670915682384,-331.0
14838.670978179596,-175.0
14838.671040676809,-338.0
14838.671103174021,-297.0
14838.671165671234,36.0
14838.671228168447,106.0
14838.67129066566,-40.0
14838.67135316287,-160.0
14838.671415660083,-136.0
14838.671478157295,-226.0
14838.671540654508,-387.0
14838.67160315172,-404.0
14838.671665648933,-439.0
14838.671728146146,-330.0
14838.671790643359,-353.0
14838.671853140571,-413.0
14838.671915637784,-357.0
14838.671978134997,-380.0
14838.67204063221,-297.0
14838.67210312942,-316.0
14838.672165626633,-511.0
14838.672228123845,-570.0
14838.672290621058,-490.0
14838.67235311827,-344.0
14838.672415615483,-156.0
14838.672478112696,-235.0
14838.672540609909,-364.0
14838.672603107121,-319.0
14838.672665604334,-335.0
14838.672728101545,-292.0
14838.672790598757,-249.0
14838.67285309597,-324.0
14838.672915593183,-247.0
14838.672978090395,-13.0
14838.673040587608,29.0
14838.67310308482,-66.0
14838.673165582033,-100.0
14838.673228079246,52.0
14838.673290576458,297.0
14838.673353073671,307.0
14838.673415570884,136.0
14838.673478068094,37.0
14838.673540565307,84.0
14838.67360306252,115.0
14838.673665559732,69.0
14838.673728056945,118.0
14838.673790554158,4.0
14838.67385305137,-145.0
14838.673915548583,-145.0
14838.673978045796,-294.0
14838.674040543008,-271.0
14838.674103040219,-94.0
14838.674165537432,-167.0
14838.674228034644,-375.0
14838.674290531857,-263.0
14838.67435302907,76.0
14838.674415526282,74.0
14838.674478023495,4.0
14838.674540520708,-67.0
14838.67460301792,-146.0
14838.674665515133,-179.0
14838.674728012345,-281.0
14838.674790509558,-202.0
14838.674853006769,-210.0
14838.674915503982,-317.0
14838.674978001194,-267.0
14838.675040498407,-379.0
14838.67510299562,-394.0
14838.675165492832,-255.0
14838.675227990045,-348.0
14838.675290487257,-433.0
14838.67535298447,-531.0
14838.675415481683,-505.0
14838.675477978893,-367.0
14838.675540476106,-332.0
14838.675602973319,-244.0
14838.675665470531,-126.0
14838.675727967744,-249.0
14838.675790464957,-514.0
14838.67585296217,-583.0
14838.675915459382,-562.0
14838.675977956595,-464.0
14838.676040453807,-249.0
14838.67610295102,-120.0
14838.676165448232,-47.0
14838.676227945443,-134.0
14838.676290442656,-245.0
14838.676352939869,-207.0
14838.676415437081,-96.0
14838.676477934294,48.0
14838.676540431507,173.0
14838.67660292872,190.0
14838.676665425932,26.0
14838.676727923144,-147.0
14838.676790420355,-234.0
14838.676852917568,-168.0
14838.67691541478,-173.0
14838.676977911993,-100.0
14838.677040409206,28.0
14838.677102906418,-161.0
14838.677165403631,-325.0
14838.677227900844,-281.0
14838.677290398056,-87.0
14838.677352895269,167.0
14838.677415392482,160.0
14838.677477889694,-147.0
14838.677540386907,-364.0
14838.677602884118,-364.0
14838.67766538133,-254.0
14838.677727878543,-123.0
14838.677790375756,-88.0
14838.677852872968,-64.0
14838.677915370181,-24.0
14838.677977867394,-76.0
14838.678040364606,-97.0
14838.678102861819,53.0
14838.67816535903,91.0
14838.678227856242,-149.0
14838.678290353455,-258.0
14838.678352850668,-129.0
14838.67841534788,-107.0
14838.678477845093,-348.0
14838.678540342305,-470.0
14838.678602839518,-194.0
14838.67866533673,107.0
14838.678727833943,180.0
14838.678790331156,18.0
14838.678852828369,-229.0
14838.678915325581,-311.0
14838.678977822792,-237.0
14838.679040320005,-42.0
14838.679102817217,66.0
14838.67916531443,-72.0
14838.679227811643,-271.0
14838.679290308855,-402.0
14838.679352806068,-316.0
14838.67941530328,-144.0
14838.679477800493,-115.0
14838.679540297704,-239.0
14838.679602794917,-370.0
14838.67966529213,-509.0
14838.679727789342,-589.0
14838.679790286555,-605.0
14838.679852783767,-503.0
14838.67991528098,-386.0
14838.679977778193,-337.0
14838.680040275405,-314.0
14838.680102772618,-363.0
14838.68016526983,-370.0
14838.680227767043,-300.0
14838.680290264256,-284.0
14838.680352761467,-357.0
14838.68041525868,-375.0
14838.680477755892,-431.0
14838.680540253104,-474.0
14838.680602750317,-406.0
14838.68066524753,-284.0
14838.680727744742,-218.0
14838.680790241955,-203.0
14838.680852739168,-156.0
14838.680915236378,-304.0
14838.680977733591,-538.0
14838.681040230804,-588.0
14838.681102728016,-531.0
14838.681165225229,-381.0
14838.681227722442,-269.0
14838.681290219654,-260.0
14838.681352716867,-283.0
14838.68141521408,-403.0
14838.681477711292,-588.0
14838.681540208505,-621.0
14838.681602705718,-417.0
14838.681665202928,-323.0
14838.681727700141,-477.0
14838.681790197354,-688.0
14838.681852694566,-764.0
14838.681915191779,-589.0
14838.681977688992,-374.0
14838.682040186204,-335.0
14838.682102683417,-486.0
14838.68216518063,-622.0
14838.682227677842,-653.0
14838.682290175053,-592.0
14838.682352672266,-489.0
14838.682415169478,-230.0
14838.68247766669,-35.0
14838.682540163903,-102.0
14838.682602661116,-252.0
14838.682665158329,-374.0
14838.682727655541,-249.0
14838.682790152754,-35.0
14838.682852649967,-228.0
14838.68291514718,-447.0
14838.682977644392,-389.0
14838.683040141603,-474.0
14838.683102638815,-529.0
14838.683165136028,-477.0
14838.68322763324,-572.0
14838.683290130453,-711.0
14838.683352627666,-822.0
14838.683415124879,-757.0
14838.683477622091,-617.0
14838.683540119304,-584.0
14838.683602616517,-526.0
14838.683665113727,-552.0
14838.68372761094,-517.0
14838.683790108153,-591.0
14838.683852605365,-615.0
14838.683915102578,-356.0
14838.68397759979,-196.0
14838.684040097003,-129.0
14838.684102594216,-66.0
14838.684165091428,44.0
14838.684227588641,102.0
14838.684290085854,-10.0
14838.684352583066,-112.0
14838.684415080277,-146.0
14838.68447757749,-224.0
14838.684540074702,-214.0
14838.684602571915,-147.0
14838.684665069128,-111.0
14838.68472756634,10.0
14838.684790063553,-29.0
14838.684852560766,-149.0
14838.684915057978,-218.0
14838.684977555191,-272.0
14838.685040052402,-192.0
14838.685102549614,-135.0
14838.685165046827,-125.0
14838.68522754404,-51.0
14838.685290041252,-68.0
14838.685352538465,-59.0
14838.685415035678,15.0
14838.68547753289,-39.0
14838.685540030103,-30.0
14838.685602527315,129.0
14838.685665024528,162.0
14838.68572752174,124.0
14838.685790018952,60.0
14838.685852516164,-119.0
14838.685915013377,-210.0
14838.68597751059,-201.0
14838.686040007802,-394.0
14838.686102505015,-713.0
14838.686165002227,-712.0
14838.68622749944,-521.0
14838.686289996653,-445.0
14838.686352493865,-403.0
14838.686414991076,-373.0
14838.686477488289,-417.0
14838.686539985501,-635.0
14838.686602482714,-851.0
14838.686664979927,-805.0
14838.68672747714,-626.0
14838.686789974352,-671.0
14838.686852471565,-733.0
14838.686914968777,-468.0
14838.68697746599,-451.0
14838.687039963203,-516.0
14838.687102460415,-412.0
14838.687164957626,-237.0
14838.687227454839,4.0
14838.687289952051,54.0
14838.687352449264,-178.0
14838.687414946477,-334.0
14838.68747744369,-120.0
14838.687539940902,-50.0
14838.687602438114,-103.0
14838.687664935327,36.0
14838.68772743254,-35.0
14838.68778992975,-385.0
14838.687852426963,-734.0
14838.687914924176,-708.0
14838.687977421388,-392.0
14838.688039918601,-309.0
14838.688102415814,-677.0
14838.688164913026,-1066.0
14838.688227410239,-1111.0
14838.688289907452,-1022.0
14838.688352404664,-965.0
14838.688414901877,-905.0
14838.68847739909,-919.0
14838.6885398963,-974.0
14838.688602393513,-834.0
14838.688664890726,-709.0
14838.688727387938,-724.0
14838.688789885151,-733.0
14838.688852382364,-834.0
14838.688914879576,-777.0
14838.688977376789,-456.0
14838.689039874002,-489.0
14838.689102371212,-643.0
14838.689164868425,-666.0
14838.689227365638,-644.0
14838.68928986285,-313.0
14838.689352360063,-19.0
14838.689414857276,-50.0
14838.689477354488,-270.0
14838.6895398517,-501.0
14838.689602348913,-650.0
14838.689664846126,-734.0
14838.689727343339,-682.0
14838.689789840551,-513.0
14838.689852337764,-407.0
14838.689914834975,-259.0
14838.689977332187,-221.0
14838.6900398294,-261.0
14838.690102326613,-193.0
14838.690164823825,-336.0
14838.690227321038,-438.0
14838.69028981825,-368.0
14838.690352315463,-288.0
14838.690414812676,-341.0
14838.690477309887,-547.0
14838.6905398071,-461.0
14838.690602304312,-365.0
14838.690664801525,-501.0
14838.690727298737,-557.0
14838.69078979595,-557.0
14838.690852293163,-570.0
14838.690914790375,-544.0
14838.690977287588,-431.0
14838.6910397848,-336.0
14838.691102282013,-206.0
14838.691164779226,-127.0
14838.691227276438,-223.0
14838.69128977365,-248.0
14838.691352270862,-158.0
14838.691414768075,-205.0
14838.691477265287,-313.0
14838.6915397625,-266.0
14838.691602259712,-179.0
14838.691664756925,-57.0
14838.691727254138,-23.0
14838.69178975135,-201.0
14838.691852248561,-232.0
14838.691914745774,-219.0
14838.691977242986,-187.0
14838.6920397402,-16.0
14838.692102237412,12.0
14838.692164734624,-41.0
14838.692227231837,-149.0
14838.69228972905,-209.0
14838.692352226262,-207.0
14838.692414723475,-118.0
14838.692477220688,-196.0
14838.6925397179,-392.0
14838.692602215111,-362.0
14838.692664712324,-360.0
14838.692727209536,-263.0
14838.692789706749,-153.0
14838.692852203962,-44.0
14838.692914701174,72.0
14838.692977198387,11.0
14838.6930396956,-216.0
14838.693102192812,-341.0
14838.693164690025,-209.0
14838.693227187236,-157.0
14838.693289684448,-243.0
14838.69335218166,-351.0
14838.693414678874,-381.0
14838.693477176086,-245.0
14838.693539673299,-99.0
14838.693602170511,-217.0
14838.693664667724,-440.0
14838.693727164937,-663.0
14838.69378966215,-782.0
14838.693852159362,-707.0
14838.693914656575,-643.0
14838.693977153785,-519.0
14838.694039650998,-380.0
14838.69410214821,-525.0
14838.694164645423,-672.0
14838.694227142636,-684.0
14838.694289639849,-622.0
14838.694352137061,-493.0
14838.694414634274,-570.0
14838.694477131487,-862.0
14838.6945396287,-909.0
14838.69460212591,-776.0
14838.694664623123,-904.0
14838.694727120335,-888.0
14838.694789617548,-618.0
14838.69485211476,-646.0
14838.694914611973,-815.0
14838.694977109186,-760.0
14838.695039606398,-608.0
14838.695102103611,-630.0
14838.695164600824,-686.0
14838.695227098036,-645.0
14838.695289595249,-712.0
14838.69535209246,-828.0
14838.695414589673,-801.0
14838.695477086885,-659.0
14838.695539584098,-565.0
14838.69560208131,-434.0
14838.695664578523,-322.0
14838.695727075736,-313.0
14838.695789572948,-256.0
14838.695852070161,-262.0
14838.695914567374,-392.0
14838.695977064584,-462.0
14838.696039561797,-495.0
14838.69610205901,-488.0
14838.696164556222,-269.0
14838.696227053435,76.0
14838.696289550648,53.0
14838.69635204786,-273.0
14838.696414545073,-415.0
14838.696477042286,-546.0
14838.696539539498,-545.0
14838.69660203671,-372.0
14838.696664533923,-306.0
14838.696727031134,-245.0
14838.696789528347,-216.0
14838.69685202556,-247.0
14838.696914522772,-336.0
14838.696977019985,-362.0
14838.697039517197,-422.0
14838.69710201441,-550.0
14838.697164511623,-639.0
14838.697227008835,-780.0
14838.697289506048,-903.0
14838.697352003259,-947.0
14838.697414500471,-849.0
14838.697476997684,-455.0
14838.697539494897,-219.0
14838.69760199211,-322.0
14838.697664489322,-335.0
14838.697726986535,-318.0
14838.697789483747,-403.0
14838.69785198096,-358.0
14838.697914478173,-140.0
14838.697976975385,-203.0
14838.698039472598,-360.0
14838.698101969809,-292.0
14838.698164467021,-257.0
14838.698226964234,-223.0
14838.698289461447,-213.0
14838.69835195866,-235.0
14838.698414455872,-411.0
14838.698476953085,-673.0
14838.698539450297,-701.0
14838.69860194751,-776.0
14838.698664444722,-897.0
14838.698726941933,-816.0
14838.698789439146,-750.0
14838.698851936359,-694.0
14838.698914433571,-683.0
14838.698976930784,-805.0
14838.699039427996,-885.0
14838.69910192521,-921.0
14838.699164422422,-768.0
14838.699226919634,-573.0
14838.699289416847,-586.0
14838.69935191406,-554.0
14838.699414411272,-603.0
14838.699476908483,-708.0
14838.699539405696,-721.0
14838.699601902908,-592.0
14838.699664400121,-254.0
14838.699726897334,-46.0
14838.699789394546,-120.0
14838.699851891759,-196.0
14838.699914388972,-319.0
14838.699976886184,-444.0
14838.700039383395,-206.0
14838.700101880608,-193.0
14838.70016437782,-422.0
14838.700226875033,-421.0
14838.700289372246,-486.0
14838.700351869458,-469.0
14838.70041436667,-370.0
14838.700476863884,-332.0
14838.700539361096,-403.0
14838.700601858309,-669.0
14838.700664355521,-989.0
14838.700726852734,-1064.0
14838.700789349947,-913.0
14838.700851847158,-764.0
14838.70091434437,-568.0
14838.700976841583,-400.0
14838.701039338795,-226.0
14838.701101836008,-36.0
14838.70116433322,129.0
14838.701226830433,387.0
14838.701289327646,593.0
14838.701351824859,651.0
14838.70141432207,508.0
14838.701476819282,349.0
14838.701539316495,226.0
14838.701601813707,104.0
14838.70166431092,13.0
14838.701726808133,-71.0
14838.701789305345,-66.0
14838.701851802558,-89.0
14838.70191429977,-276.0
14838.701976796983,-441.0
14838.702039294196,-480.0
14838.702101791408,-627.0
14838.702164288621,-833.0
14838.702226785832,-973.0
14838.702289283045,-944.0
14838.702351780257,-739.0
14838.70241427747,-642.0
14838.702476774683,-752.0
14838.702539271895,-819.0
14838.702601769108,-713.0
14838.70266426632,-541.0
14838.702726763533,-360.0
14838.702789260744,-287.0
14838.702851757957,-436.0
14838.70291425517,-469.0
14838.702976752382,-75.0
14838.703039249594,437.0
14838.703101746807,726.0
14838.70316424402,690.0
14838.703226741232,452.0
14838.703289238445,274.0
14838.703351735658,257.0
14838.70341423287,450.0
14838.703476730083,504.0
14838.703539227294,408.0
14838.703601724506,295.0
14838.703664221719,-13.0
14838.703726718932,-141.0
14838.703789216144,117.0
14838.703851713357,239.0
14838.70391421057,116.0
14838.703976707782,-63.0
14838.704039204995,-349.0
14838.704101702207,-450.0
14838.704164199418,-507.0
14838.704226696631,-666.0
14838.704289193844,-526.0
14838.704351691056,-377.0
14838.704414188269,-340.0
14838.704476685481,-167.0
14838.704539182694,-115.0
14838.704601679907,-121.0
14838.70466417712,20.0
14838.704726674332,-29.0
14838.704789171545,-250.0
14838.704851668757,-343.0
14838.704914165968,-462.0
14838.70497666318,-513.0
14838.705039160393,-417.0
14838.705101657606,-274.0
14838.705164154819,-5.0
14838.705226652031,112.0
14838.705289149244,3.0
14838.705351646457,-29.0
14838.70541414367,-104.0
14838.705476640882,-236.0
14838.705539138093,-272.0
14838.705601635305,-308.0
14838.705664132518,-260.0
14838.70572662973,-216.0
14838.705789126943,-319.0
14838.705851624156,-516.0
14838.705914121369,-712.0
14838.705976618581,-705.0
14838.706039115794,-575.0
14838.706101613006,-454.0
14838.70616411022,-351.0
14838.706226607432,-433.0
14838.706289104643,-555.0
14838.706351601855,-604.0
14838.706414099068,-473.0
14838.70647659628,-232.0
14838.706539093493,-168.0
14838.706601590706,-262.0
14838.706664087918,-414.0
14838.706726585131,-431.0
14838.706789082344,-297.0
14838.706851579556,-183.0
14838.706914076767,-61.0
14838.70697657398,136.0
14838.707039071192,234.0
14838.707101568405,59.0
14838.707164065618,-205.0
14838.70722656283,-283.0
14838.707289060043,-121.0
14838.707351557256,84.0
14838.707414054468,-62.0
14838.70747655168,-264.0
14838.707539048894,-356.0
14838.707601546106,-492.0
14838.707664043317,-584.0
14838.70772654053,-533.0
14838.707789037742,-438.0
14838.707851534955,-523.0
14838.707914032168,-566.0
14838.70797652938,-602.0
14838.708039026593,-656.0
14838.708101523805,-717.0
14838.708164021018,-917.0
14838.70822651823,-945.0
14838.708289015442,-769.0
14838.708351512654,-721.0
14838.708414009867,-790.0
14838.70847650708,-886.0
14838.708539004292,-667.0
14838.708601501505,-252.0
14838.708663998717,-122.0
14838.70872649593,-3.0
14838.708788993143,98.0
14838.708851490355,-17.0
14838.708913987568,-112.0
14838.70897648478,73.0
14838.709038981991,111.0
14838.709101479204,-89.0
14838.709163976417,-134.0
14838.70922647363,-254.0
14838.709288970842,-258.0
14838.709351468055,-22.0
14838.709413965267,19.0
14838.70947646248,94.0
14838.709538959693,9.0
14838.709601456905,-338.0
14838.709663954116,-424.0
14838.709726451329,-612.0
14838.709788948541,-871.0
14838.709851445754,-776.0
14838.709913942967,-630.0
14838.70997644018,-473.0
14838.710038937392,-265.0
14838.710101434604,-216.0
14838.710163931817,-30.0
14838.71022642903,185.0
14838.710288926242,141.0
14838.710351423455,39.0
14838.710413920666,161.0
14838.710476417878,233.0
14838.710538915091,86.0
14838.710601412304,98.0
14838.710663909516,-70.0
14838.710726406729,-122.0
14838.710788903942,96.0
14838.710851401154,220.0
14838.710913898367,331.0
14838.710976395578,181.0
14838.71103889279,31.0
14838.711101390003,66.0
14838.711163887216,129.0
14838.711226384428,180.0
14838.711288881641,14.0
14838.711351378854,-327.0
14838.711413876066,-474.0
14838.711476373279,-399.0
14838.711538870491,-204.0
14838.711601367704,10.0
14838.711663864917,-50.0
14838.71172636213,-278.0
14838.71178885934,-440.0
14838.711851356553,-514.0
14838.711913853766,-517.0
14838.711976350978,-506.0
14838.71203884819,-378.0
14838.712101345403,-273.0
14838.712163842616,-291.0
14838.712226339829,-312.0
14838.712288837041,-297.0
14838.712351334252,-227.0
14838.712413831465,-212.0
14838.712476328677,-196.0
14838.71253882589,-46.0
14838.712601323103,-6.0
14838.712663820315,-65.0
14838.712726317528,-67.0
14838.71278881474,-61.0
14838.712851311953,23.0
14838.712913809166,137.0
14838.712976306379,179.0
14838.713038803591,269.0
14838.713101300804,355.0
14838.713163798015,188.0
14838.713226295227,-132.0
14838.71328879244,-314.0
14838.713351289653,-223.0
14838.713413786865,-83.0
14838.713476284078,-153.0
14838.71353878129,-361.0
14838.713601278503,-329.0
14838.713663775716,-294.0
14838.713726272927,-269.0
14838.71378877014,-255.0
14838.713851267352,-406.0
14838.713913764564,-458.0
14838.713976261777,-522.0
14838.71403875899,-511.0
14838.714101256202,-423.0
14838.714163753415,-260.0
14838.714226250628,-117.0
14838.71428874784,-190.0
14838.714351245053,-103.0
14838.714413742266,45.0
14838.714476239478,40.0
14838.714538736689,-19.0
14838.714601233902,-123.0
14838.714663731114,-92.0
14838.714726228327,-39.0
14838.71478872554,-117.0
14838.714851222752,-135.0
14838.714913719965,-29.0
14838.714976217178,-30.0
14838.71503871439,52.0
14838.715101211601,51.0
14838.715163708814,-155.0
14838.715226206026,-128.0
14838.715288703239,-24.0
14838.715351200452,-136.0
14838.715413697664,-239.0
14838.715476194877,-208.0
14838.71553869209,-143.0
14838.715601189302,-143.0
14838.715663686515,-110.0
14838.715726183727,45.0
14838.71578868094,33.0
14838.71585117815,-89.0
14838.715913675363,-196.0
14838.715976172576,-230.0
14838.716038669789,-162.0
14838.716101167001,-95.0
14838.716163664214,12.0
14838.716226161427,55.0
14838.71628865864,102.0
14838.716351155852,114.0
14838.716413653065,279.0
14838.716476150275,613.0
14838.716538647488,676.0
14838.7166011447,493.0
14838.716663641913,200.0
14838.716726139126,128.0
14838.716788636339,185.0
14838.716851133551,183.0
14838.716913630764,161.0
14838.716976127977,146.0
14838.71703862519,201.0
14838.717101122402,126.0
14838.717163619614,48.0
14838.717226116825,42.0
14838.717288614038,-92.0
14838.71735111125,-190.0
14838.717413608463,-202.0
14838.717476105676,-313.0
14838.717538602888,-397.0
14838.717601100101,-379.0
14838.717663597314,-313.0
14838.717726094526,-120.0
14838.717788591739,159.0
14838.71785108895,50.0
14838.717913586162,-168.0
14838.717976083375,-364.0
14838.718038580588,-630.0
14838.7181010778,-512.0
14838.718163575013,-336.0
14838.718226072226,-203.0
14838.718288569438,-98.0
14838.718351066651,-268.0
14838.718413563864,-377.0
14838.718476061076,-193.0
14838.718538558289,79.0
14838.7186010555,102.0
14838.718663552712,-119.0
14838.718726049925,-246.0
14838.718788547138,-356.0
14838.71885104435,-293.0
14838.718913541563,51.0
14838.718976038776,214.0
14838.719038535988,210.0
14838.7191010332,242.0
14838.719163530413,101.0
14838.719226027624,-112.0
14838.719288524837,-182.0
14838.71935102205,-304.0
14838.719413519262,-274.0
14838.719476016475,-82.0
14838.719538513687,-113.0
14838.7196010109,-136.0
14838.719663508113,-190.0
14838.719726005325,-207.0
14838.719788502538,-18.0
14838.71985099975,237.0
14838.719913496963,340.0
14838.719975994174,344.0
14838.720038491387,262.0
14838.7201009886,-86.0
14838.720163485812,-286.0
14838.720225983025,-191.0
14838.720288480237,-66.0
14838.72035097745,-60.0
14838.720413474663,-150.0
14838.720475971875,-173.0
14838.720538469088,-62.0
14838.720600966299,-144.0
14838.720663463511,-324.0
14838.720725960724,-140.0
14838.720788457937,-114.0
14838.72085095515,-209.0
14838.720913452362,-73.0
14838.720975949574,-27.0
14838.721038446787,150.0
14838.721100944,290.0
14838.721163441212,148.0
14838.721225938425,212.0
14838.721288435638,322.0
14838.721350932849,135.0
14838.721413430061,-145.0
14838.721475927274,-275.0
14838.721538424486,-276.0
14838.721600921699,-350.0
14838.721663418912,-327.0
14838.721725916124,-193.0
14838.721788413337,-121.0
14838.72185091055,-163.0
14838.72191340776,-209.0
14838.721975904973,-224.0
14838.722038402186,-310.0
14838.722100899398,-367.0
14838.722163396611,-346.0
14838.722225893824,-352.0
14838.722288391036,-337.0
14838.722350888249,-83.0
14838.722413385462,41.0
14838.722475882674,-29.0
14838.722538379887,188.0
14838.7226008771,328.0
14838.722663374312,220.0
14838.722725871523,191.0
14838.722788368736,72.0
14838.722850865948,-56.0
14838.72291336316,-37.0
14838.722975860373,-160.0
14838.723038357586,-164.0
14838.723100854799,64.0
14838.723163352011,136.0
14838.723225849224,189.0
14838.723288346435,286.0
14838.723350843647,252.0
14838.72341334086,282.0
14838.723475838073,397.0
14838.723538335285,150.0
14838.723600832498,-120.0
14838.72366332971,-88.0
14838.723725826923,-87.0
14838.723788324136,-97.0
14838.723850821349,-133.0
14838.723913318561,-164.0
14838.723975815774,-204.0
14838.724038312987,-358.0
14838.724100810197,-508.0
14838.72416330741,-460.0
14838.724225804623,-349.0
14838.724288301835,-334.0
14838.724350799048,-286.0
14838.72441329626,-167.0
14838.724475793473,-50.0
14838.724538290686,170.0
14838.724600787898,337.0
14838.72466328511,447.0
14838.724725782322,513.0
14838.724788279535,437.0
14838.724850776747,352.0
14838.72491327396,240.0
14838.724975771172,173.0
14838.725038268385,185.0
14838.725100765598,118.0
14838.72516326281,73.0
14838.725225760023,-54.0
14838.725288257236,-253.0
14838.725350754448,-197.0
14838.725413251661,-20.0
14838.725475748872,170.0
14838.725538246084,255.0
14838.725600743297,108.0
14838.72566324051,-61.0
14838.725725737722,-64.0
14838.725788234935,50.0
14838.725850732148,142.0
14838.72591322936,142.0
14838.725975726573,113.0
14838.726038223784,70.0
14838.726100720996,20.0
14838.726163218209,-12.0
14838.726225715422,-83.0
14838.726288212634,-267.0
14838.726350709847,-495.0
14838.72641320706,-578.0
14838.726475704272,-592.0
14838.726538201485,-640.0
14838.726600698697,-533.0
14838.72666319591,-363.0
14838.726725693123,-290.0
14838.726788190334,-230.0
14838.726850687546,-126.0
14838.726913184759,39.0
14838.726975681971,48.0
14838.727038179184,149.0
14838.727100676397,370.0
14838.72716317361,391.0
14838.727225670822,415.0
14838.727288168035,272.0
14838.727350665247,104.0
14838.727413162458,130.0
14838.72747565967,87.0
14838.727538156883,-80.0
14838.727600654096,-143.0
14838.727663151309,-88.0
14838.727725648521,-161.0
14838.727788145734,-200.0
14838.727850642947,-1.0
14838.72791314016,131.0
14838.727975637372,53.0
14838.728038134584,23.0
14838.728100631797,-1.0
14838.728163129008,-95.0
14838.72822562622,-11.0
14838.728288123433,92.0
14838.728350620646,84.0
14838.728413117859,-61.0
14838.728475615071,-101.0
14838.728538112284,-87.0
14838.728600609496,-159.0
14838.728663106709,7.0
14838.728725603922,204.0
14838.728788101133,132.0
14838.728850598345,-24.0
14838.728913095558,10.0
14838.72897559277,161.0
14838.729038089983,217.0
14838.729100587196,251.0
14838.729163084408,286.0
14838.729225581621,341.0
14838.729288078834,399.0
14838.729350576046,246.0
14838.729413073259,90.0
14838.729475570472,51.0
14838.729538067682,-34.0
14838.729600564895,-46.0
14838.729663062108,-71.0
14838.72972555932,-127.0
14838.729788056533,-239.0
14838.729850553746,-467.0
14838.729913050958,-514.0
14838.72997554817,-400.0
14838.730038045383,-178.0
14838.730100542596,-88.0
14838.730163039807,-31.0
14838.73022553702,113.0
14838.730288034232,58.0
14838.730350531445,66.0
14838.730413028657,139.0
14838.73047552587,167.0
14838.730538023083,219.0
14838.730600520295,201.0
14838.730663017508,186.0
14838.73072551472,106.0
14838.730788011933,-26.0
14838.730850509146,-82.0
14838.730913006357,-59.0
14838.73097550357,-54.0
14838.731038000782,-159.0
14838.731100497995,-338.0
14838.731162995207,-321.0
14838.73122549242,-51.0
14838.731287989633,146.0
14838.731350486845,424.0
14838.731412984058,751.0
14838.73147548127,570.0
14838.731537978481,297.0
14838.731600475694,106.0
14838.731662972907,-245.0
14838.73172547012,-122.0
14838.731787967332,216.0
14838.731850464545,200.0
14838.731912961757,132.0
14838.73197545897,255.0
14838.732037956182,400.0
14838.732100453395,342.0
14838.732162950608,123.0
14838.73222544782,-44.0
14838.732287945031,-39.0
14838.732350442244,-46.0
14838.732412939456,-33.0
14838.73247543667,-28.0
14838.732537933882,0.0
14838.732600431094,88.0
14838.732662928307,120.0
14838.73272542552,169.0
14838.732787922732,212.0
14838.732850419945,67.0
14838.732912917156,-84.0
14838.732975414368,-111.0
14838.733037911581,-225.0
14838.733100408794,-140.0
14838.733162906006,-77.0
14838.733225403219,-190.0
14838.733287900432,-23.0
14838.733350397644,153.0
14838.733412894857,204.0
14838.73347539207,314.0
14838.733537889282,469.0
14838.733600386495,529.0
14838.733662883706,375.0
14838.733725380918,259.0
14838.73378787813,100.0
14838.733850375344,-11.0
14838.733912872556,45.0
14838.733975369769,67.0
14838.734037866981,148.0
14838.734100364194,180.0
14838.734162861407,142.0
14838.734225358618,109.0
14838.73428785583,-18.0
14838.734350353043,-42.0
14838.734412850255,99.0
14838.734475347468,70.0
14838.73453784468,76.0
14838.734600341893,248.0
14838.734662839106,298.0
14838.734725336319,322.0
14838.734787833531,325.0
14838.734850330744,344.0
14838.734912827957,422.0
14838.73497532517,443.0
14838.73503782238,385.0
14838.735100319593,112.0
14838.735162816805,-126.0
14838.735225314018,-16.0
14838.73528781123,8.0
14838.735350308443,-88.0
14838.735412805656,-60.0
14838.735475302869,26.0
14838.735537800081,237.0
14838.735600297292,391.0
14838.735662794505,409.0
14838.735725291717,427.0
14838.73578778893,386.0
14838.735850286143,390.0
14838.735912783355,447.0
14838.735975280568,334.0
14838.73603777778,217.0
14838.736100274993,318.0
14838.736162772206,272.0
14838.736225269418,175.0
14838.736287766631,206.0
14838.736350263844,94.0
14838.736412761054,52.0
14838.736475258267,48.0
14838.73653775548,14.0
14838.736600252692,-49.0
14838.736662749905,-168.0
14838.736725247118,-65.0
14838.73678774433,97.0
14838.736850241543,246.0
14838.736912738756,362.0
14838.736975235966,337.0
14838.737037733179,204.0
14838.737100230392,190.0
14838.737162727604,98.0
14838.737225224817,-34.0
14838.73728772203,73.0
14838.737350219242,241.0
14838.737412716455,425.0
14838.737475213667,427.0
14838.73753771088,272.0
14838.737600208093,94.0
14838.737662705305,-153.0
14838.737725202516,-157.0
14838.737787699729,-77.0
14838.737850196942,-124.0
14838.737912694154,-36.0
14838.737975191367,29.0
14838.73803768858,-68.0
14838.738100185792,-55.0
14838.738162683005,46.0
14838.738225180217,103.0
14838.73828767743,245.0
14838.73835017464,439.0
14838.738412671853,378.0
14838.738475169066,194.0
14838.738537666279,225.0
14838.738600163491,331.0
14838.738662660704,418.0
14838.738725157917,489.0
14838.73878765513,401.0
14838.738850152342,153.0
14838.738912649555,-51.0
14838.738975146767,-153.0
14838.73903764398,-134.0
14838.73910014119,-111.0
14838.739162638403,56.0
14838.739225135616,377.0
14838.739287632829,398.0
14838.739350130041,285.0
14838.739412627254,198.0
14838.739475124466,294.0
14838.73953762168,610.0
14838.739600118892,761.0
14838.739662616104,759.0
14838.739725113315,651.0
14838.739787610528,443.0
14838.73985010774,228.0
14838.739912604953,173.0
14838.739975102166,216.0
14838.740037599378,189.0
14838.740100096591,51.0
14838.740162593804,9.0
14838.740225091016,148.0
14838.740287588229,322.0
14838.740350085442,444.0
14838.740412582654,444.0
14838.740475079865,490.0
14838.740537577078,435.0
14838.74060007429,226.0
14838.740662571503,78.0
14838.740725068716,44.0
14838.740787565928,91.0
14838.74085006314,180.0
14838.740912560354,112.0
14838.740975057566,-81.0
14838.741037554779,-131.0
14838.74110005199,-185.0
14838.741162549202,-127.0
14838.741225046415,114.0
14838.741287543628,155.0
14838.74135004084,78.0
14838.741412538053,77.0
14838.741475035265,12.0
14838.741537532478,147.0
14838.74160002969,393.0
14838.741662526903,348.0
14838.741725024116,347.0
14838.741787521329,470.0
14838.74185001854,452.0
14838.741912515752,169.0
14838.741975012965,-197.0
14838.742037510177,-323.0
14838.74210000739,-254.0
14838.742162504603,-127.0
14838.742225001815,-28.0
14838.742287499028,92.0
14838.74234999624,114.0
14838.742412493453,-52.0
14838.742474990664,-203.0
14838.742537487877,23.0
14838.74259998509,418.0
14838.742662482302,488.0
14838.742724979515,389.0
14838.742787476727,245.0
14838.74284997394,190.0
14838.742912471153,125.0
14838.742974968365,-8.0
14838.743037465578,21.0
14838.74309996279,48.0
14838.743162460003,-33.0
14838.743224957214,-119.0
14838.743287454427,-66.0
14838.74334995164,64.0
14838.743412448852,185.0
14838.743474946064,224.0
14838.743537443277,39.0
14838.74359994049,-111.0
14838.743662437702,-203.0
14838.743724934915,-9.0
14838.743787432128,188.0
14838.743849929338,197.0
14838.743912426551,304.0
14838.743974923764,109.0
14838.744037420976,-192.0
14838.744099918189,-189.0
14838.744162415402,-122.0
14838.744224912614,-105.0
14838.744287409827,26.0
14838.74434990704,131.0
14838.744412404252,234.0
14838.744474901465,333.0
14838.744537398677,298.0
14838.744599895888,254.0
14838.744662393101,250.0
14838.744724890314,189.0
14838.744787387526,-13.0
14838.744849884739,-105.0
14838.744912381952,46.0
14838.744974879164,216.0
14838.745037376377,259.0
14838.74509987359,275.0
14838.7451623708,263.0
14838.745224868013,167.0
14838.745287365226,82.0
14838.745349862438,88.0
14838.74541235965,105.0
14838.745474856863,135.0
14838.745537354076,132.0
14838.745599851289,16.0
14838.745662348501,-12.0
14838.745724845714,120.0
14838.745787342927,140.0
14838.74584984014,67.0
14838.745912337352,190.0
14838.745974834563,312.0
14838.746037331775,255.0
14838.746099828988,199.0
14838.7461623262,341.0
14838.746224823413,611.0
14838.746287320626,682.0
14838.746349817839,504.0
14838.746412315051,361.0
14838.746474812264,373.0
14838.746537309475,465.0
14838.746599806687,546.0
14838.7466623039,482.0
14838.746724801113,521.0
14838.746787298325,505.0
14838.746849795538,339.0
14838.74691229275,407.0
14838.746974789963,452.0
14838.747037287176,380.0
14838.747099784388,264.0
14838.747162281601,222.0
14838.747224778814,378.0
14838.747287276026,517.0
14838.747349773237,471.0
14838.74741227045,220.0
14838.747474767662,-38.0
14838.747537264875,-49.0
14838.747599762088,33.0
14838.7476622593,-97.0
14838.747724756513,-48.0
14838.747787253726,127.0
14838.747849750938,171.0
14838.747912248149,270.0
14838.747974745362,465.0
14838.748037242574,638.0
14838.748099739787,717.0
14838.748162237,648.0
14838.748224734212,417.0
14838.748287231425,361.0
14838.748349728638,305.0
14838.74841222585,192.0
14838.748474723063,321.0
14838.748537220275,395.0
14838.748599717488,332.0
14838.748662214699,276.0
14838.748724711912,288.0
14838.748787209124,242.0
14838.748849706337,141.0
14838.74891220355,332.0
14838.748974700762,375.0
14838.749037197975,81.0
14838.749099695187,-175.0
14838.7491621924,-436.0
14838.749224689613,-446.0
14838.749287186823,-199.0
14838.749349684036,30.0
14838.749412181249,228.0
14838.749474678461,175.0
14838.749537175674,167.0
14838.749599672887,311.0
14838.7496621701,200.0
14838.749724667312,180.0
14838.749787164525,307.0
14838.749849661737,298.0
14838.74991215895,316.0
14838.749974656163,389.0
14838.750037153373,404.0
14838.750099650586,383.0
14838.750162147799,376.0
14838.750224645011,437.0
14838.750287142224,457.0
14838.750349639437,386.0
14838.75041213665,266.0
14838.750474633862,169.0
14838.750537131074,88.0
14838.750599628287,-31.0
14838.750662125498,-18.0
14838.75072462271,77.0
14838.750787119923,190.0
14838.750849617136,288.0
14838.750912114348,242.0
14838.750974611561,84.0
14838.751037108774,-50.0
14838.751099605986,-51.0
14838.751162103199,66.0
14838.751224600412,107.0
14838.751287097624,93.0
14838.751349594837,60.0
14838.751412092048,23.0
14838.75147458926,90.0
14838.751537086473,272.0
14838.751599583686,338.0
14838.751662080898,302.0
14838.751724578111,331.0
14838.751787075324,138.0
14838.751849572536,-160.0
14838.751912069749,-122.0
14838.751974566962,218.0
14838.752037064172,581.0
14838.752099561385,582.0
14838.752162058598,242.0
14838.75222455581,-46.0
14838.752287053023,-165.0
14838.752349550236,112.0
14838.752412047448,457.0
14838.75247454466,371.0
14838.752537041873,232.0
14838.752599539086,98.0
14838.752662036299,-22.0
14838.752724533511,105.0
14838.752787030722,216.0
14838.752849527935,227.0
14838.752912025147,82.0
14838.75297452236,-107.0
14838.753037019573,-148.0
14838.753099516785,-100.0
14838.753162013998,-58.0
14838.75322451121,5.0
14838.753287008423,190.0
14838.753349505636,370.0
14838.753412002847,331.0
14838.75347450006,114.0
14838.753536997272,80.0
14838.753599494485,313.0
14838.753661991697,511.0
14838.75372448891,653.0
14838.753786986123,564.0
14838.753849483335,343.0
14838.753911980548,183.0
14838.75397447776,-37.0
14838.754036974973,-28.0
14838.754099472186,133.0
14838.754161969397,220.0
14838.75422446661,129.0
14838.754286963822,-69.0
14838.754349461035,-173.0
14838.754411958247,-68.0
14838.75447445546,68.0
14838.754536952672,229.0
14838.754599449885,336.0
14838.754661947098,256.0
14838.75472444431,252.0
14838.754786941521,127.0
14838.754849438734,38.0
14838.754911935946,237.0
14838.754974433159,258.0
14838.755036930372,218.0
14838.755099427584,214.0
14838.755161924797,72.0
14838.75522442201,50.0
14838.755286919222,135.0
14838.755349416435,152.0
14838.755411913648,82.0
14838.75547441086,158.0
14838.755536908071,265.0
14838.755599405284,135.0
14838.755661902496,117.0
14838.755724399709,347.0
14838.755786896922,470.0
14838.755849394134,247.0
14838.755911891347,32.0
14838.75597438856,124.0
14838.756036885772,217.0
14838.756099382983,219.0
14838.756161880196,130.0
14838.756224377408,67.0
14838.75628687462,25.0
14838.756349371833,-31.0
14838.756411869046,152.0
14838.756474366259,405.0
14838.756536863471,378.0
14838.756599360684,243.0
14838.756661857897,211.0
14838.75672435511,338.0
14838.756786852322,495.0
14838.756849349535,559.0
14838.756911846745,653.0
14838.756974343958,492.0
14838.75703684117,187.0
14838.757099338383,18.0
14838.757161835596,-86.0
14838.757224332809,34.0
14838.757286830021,263.0
14838.757349327234,231.0
14838.757411824447,67.0
14838.757474321657,-96.0
14838.75753681887,-167.0
14838.757599316083,-91.0
14838.757661813295,5.0
14838.757724310508,282.0
14838.75778680772,394.0
14838.757849304933,244.0
14838.757911802146,139.0
14838.757974299358,181.0
14838.758036796571,451.0
14838.758099293784,600.0
14838.758161790996,432.0
14838.758224288209,408.0
14838.75828678542,361.0
14838.758349282632,176.0
14838.758411779845,300.0
14838.758474277058,336.0
14838.75853677427,269.0
14838.758599271483,298.0
14838.758661768696,230.0
14838.758724265908,236.0
14838.758786763121,168.0
14838.758849260332,2.0
14838.758911757544,-23.0
14838.758974254757,149.0
14838.75903675197,405.0
14838.759099249182,551.0
14838.759161746395,625.0
14838.759224243608,682.0
14838.75928674082,645.0
14838.759349238033,596.0
14838.759411735246,629.0
14838.759474232458,789.0
14838.75953672967,879.0
14838.759599226883,680.0
14838.759661724094,423.0
14838.759724221307,276.0
14838.75978671852,181.0
14838.759849215732,249.0
14838.759911712945,395.0
14838.759974210157,478.0
14838.76003670737,603.0
14838.760099204583,636.0
14838.760161701795,548.0
14838.760224199006,396.0
14838.760286696219,300.0
14838.760349193431,244.0
14838.760411690644,167.0
14838.760474187857,226.0
14838.76053668507,265.0
14838.760599182282,257.0
14838.760661679495,307.0
14838.760724176707,545.0
14838.76078667392,685.0
14838.760849171133,643.0
14838.760911668345,689.0
14838.760974165556,564.0
14838.761036662769,391.0
14838.761099159981,301.0
14838.761161657194,270.0
14838.761224154407,361.0
14838.76128665162,332.0
14838.761349148832,229.0
14838.761411646045,258.0
14838.761474143257,173.0
14838.76153664047,98.0
14838.76159913768,208.0
14838.761661634893,165.0
14838.761724132106,199.0
14838.761786629319,357.0
14838.761849126531,227.0
14838.761911623744,25.0
14838.761974120956,84.0
14838.762036618169,158.0
14838.762099115382,79.0
14838.762161612594,125.0
14838.762224109807,218.0
14838.76228660702,231.0
14838.76234910423,156.0
14838.762411601443,204.0
14838.762474098656,337.0
14838.762536595868,187.0
14838.762599093081,73.0
14838.762661590294,277.0
14838.762724087506,636.0
14838.762786584719,834.0
14838.762849081932,638.0
14838.762911579144,418.0
14838.762974076355,240.0
14838.763036573568,115.0
14838.76309907078,325.0
14838.763161567993,666.0
14838.763224065206,774.0
14838.763286562418,615.0
14838.76334905963,469.0
14838.763411556843,443.0
14838.763474054056,501.0
14838.763536551269,463.0
14838.763599048481,383.0
14838.763661545694,376.0
14838.763724042905,326.0
14838.763786540118,205.0
14838.76384903733,-39.0
14838.763911534543,-140.0
14838.763974031755,90.0
14838.764036528968,356.0
14838.76409902618,582.0
14838.764161523393,737.0
14838.764224020606,645.0
14838.764286517819,301.0
14838.76434901503,236.0
14838.764411512242,502.0
14838.764474009455,509.0
14838.764536506667,233.0
14838.76459900388,38.0
14838.764661501093,-7.0
14838.764723998305,122.0
14838.764786495518,282.0
14838.76484899273,260.0
14838.764911489943,268.0
14838.764973987156,375.0
14838.765036484368,517.0
14838.76509898158,377.0
14838.765161478792,21.0
14838.765223976005,-24.0
14838.765286473217,161.0
14838.76534897043,282.0
14838.765411467642,265.0
14838.765473964855,400.0
14838.765536462068,385.0
14838.76559895928,95.0
14838.765661456493,108.0
14838.765723953704,394.0
14838.765786450916,464.0
14838.76584894813,190.0
14838.765911445342,-71.0
14838.765973942554,-106.0
14838.766036439767,-35.0
14838.76609893698,34.0
14838.766161434192,50.0
14838.766223931405,50.0
14838.766286428618,100.0
14838.76634892583,16.0
14838.766411423043,-19.0
14838.766473920254,70.0
14838.766536417466,110.0
14838.766598914679,154.0
14838.766661411892,149.0
14838.766723909104,91.0
14838.766786406317,105.0
14838.76684890353,87.0
14838.766911400742,-26.0
14838.766973897955,-65.0
14838.767036395166,-64.0
14838.767098892378,-132.0
14838.767161389591,-153.0
14838.767223886804,-137.0
14838.767286384016,-151.0
14838.767348881229,-101.0
14838.767411378441,-64.0
14838.767473875654,-91.0
14838.767536372867,-18.0
14838.76759887008,164.0
14838.767661367292,292.0
14838.767723864505,362.0
14838.767786361717,345.0
14838.767848858928,358.0
14838.76791135614,396.0
14838.767973853353,249.0
14838.768036350566,150.0
14838.768098847779,293.0
14838.768161344991,399.0
14838.768223842204,231.0
14838.768286339417,69.0
14838.76834883663,27.0
14838.76841133384,75.0
14838.768473831053,58.0
14838.768536328265,-46.0
14838.768598825478,-71.0
14838.76866132269,-96.0
14838.768723819903,80.0
14838.768786317116,187.0
14838.768848814329,90.0
14838.768911311541,39.0
14838.768973808754,-29.0
14838.769036305966,54.0
14838.769098803179,276.0
14838.769161300392,413.0
14838.769223797603,457.0
14838.769286294815,444.0
14838.769348792028,526.0
14838.76941128924,628.0
14838.769473786453,458.0
14838.769536283666,362.0
14838.769598780878,462.0
14838.769661278091,291.0
14838.769723775304,128.0
14838.769786272514,245.0
14838.769848769727,310.0
14838.76991126694,147.0
14838.769973764152,-79.0
14838.770036261365,-85.0
14838.770098758578,80.0
14838.77016125579,111.0
14838.770223753003,-62.0
14838.770286250216,-161.0
14838.770348747428,-90.0
14838.77041124464,-234.0
14838.770473741853,-322.0
14838.770536239066,-35.0
14838.770598736277,135.0
14838.77066123349,-62.0
14838.770723730702,-283.0
14838.770786227915,-292.0
14838.770848725128,-144.0
14838.77091122234,2.0
14838.770973719553,62.0
14838.771036216765,136.0
14838.771098713978,231.0
14838.771161211189,185.0
14838.771223708402,69.0
14838.771286205614,207.0
14838.771348702827,346.0
14838.77141120004,222.0
14838.771473697252,201.0
14838.771536194465,225.0
14838.771598691677,149.0
14838.77166118889,112.0
14838.771723686103,23.0
14838.771786183315,74.0
14838.771848680528,108.0
14838.771911177739,-69.0
14838.771973674951,-123.0
14838.772036172164,-273.0
14838.772098669377,-450.0
14838.77216116659,-240.0
14838.772223663802,-69.0
14838.772286161015,64.0
14838.772348658227,364.0
14838.77241115544,488.0
14838.772473652652,418.0
14838.772536149863,347.0
14838.772598647076,395.0
14838.772661144289,452.0
14838.772723641501,563.0
14838.772786138714,554.0
14838.772848635926,278.0
14838.77291113314,111.0
14838.772973630352,215.0
14838.773036127564,383.0
14838.773098624777,529.0
14838.77316112199,590.0
14838.773223619202,472.0
14838.773286116413,226.0
14838.773348613626,22.0
14838.773411110838,-17.0
14838.773473608051,-12.0
14838.773536105264,92.0
14838.773598602476,180.0
14838.773661099689,51.0
14838.773723596902,-25.0
14838.773786094114,-187.0
14838.773848591327,-348.0
14838.773911088538,-325.0
14838.77397358575,-344.0
14838.774036082963,-317.0
14838.774098580176,-24.0
14838.774161077388,178.0
14838.774223574601,203.0
14838.774286071814,331.0
14838.774348569026,258.0
14838.774411066239,272.0
14838.774473563451,147.0
14838.774536060664,-211.0
14838.774598557877,-244.0
14838.774661055088,-44.0
14838.7747235523,124.0
14838.774786049513,24.0
14838.774848546725,68.0
14838.774911043938,217.0
14838.77497354115,40.0
14838.775036038363,-82.0
14838.775098535576,-170.0
14838.775161032789,-239.0
14838.775223530001,-151.0
14838.775286027212,42.0
14838.775348524425,286.0
14838.775411021637,299.0
14838.77547351885,195.0
14838.775536016063,201.0
14838.775598513275,130.0
14838.775661010488,32.0
14838.7757235077,54.0
14838.775786004913,-29.0
14838.775848502126,-12.0
14838.775910999339,205.0
14838.775973496551,394.0
14838.776035993762,346.0
14838.776098490975,15.0
14838.776160988187,14.0
14838.7762234854,59.0
14838.776285982613,-166.0
14838.776348479825,-227.0
14838.776410977038,-206.0
14838.77647347425,-276.0
14838.776535971463,-286.0
14838.776598468676,-206.0
14838.776660965887,-156.0
14838.7767234631,-144.0
14838.776785960312,-170.0
14838.776848457524,-254.0
14838.776910954737,-170.0
14838.77697345195,16.0
14838.777035949162,207.0
14838.777098446375,447.0
14838.777160943588,410.0
14838.7772234408,175.0
14838.777285938013,-78.0
14838.777348435226,-332.0
14838.777410932436,-365.0
14838.777473429649,-251.0
14838.777535926862,-89.0
14838.777598424074,78.0
14838.777660921287,123.0
14838.7777234185,68.0
14838.777785915712,38.0
14838.777848412925,-28.0
14838.777910910138,-176.0
14838.777973407348,-294.0
14838.778035904561,-243.0
14838.778098401774,-76.0
14838.778160898986,37.0
14838.778223396199,92.0
14838.778285893412,122.0
14838.778348390624,-60.0
14838.778410887837,-257.0
14838.77847338505,-193.0
14838.778535882262,-195.0
14838.778598379475,-270.0
14838.778660876687,-309.0
14838.7787233739,-260.0
14838.77878587111,-153.0
14838.778848368323,-26.0
14838.778910865536,50.0
14838.778973362749,52.0
14838.779035859961,162.0
14838.779098357174,90.0
14838.779160854387,128.0
14838.7792233516,443.0
14838.779285848812,479.0
14838.779348346023,466.0
14838.779410843235,438.0
14838.779473340448,247.0
14838.77953583766,91.0
14838.779598334873,-6.0
14838.779660832086,54.0
14838.779723329299,213.0
14838.779785826511,306.0
14838.779848323724,240.0
14838.779910820936,116.0
14838.77997331815,-81.0
14838.780035815362,-311.0
14838.780098312574,-242.0
14838.780160809785,-160.0
14838.780223306998,-349.0
14838.78028580421,-350.0
14838.780348301423,-298.0
14838.780410798636,-311.0
14838.780473295848,-162.0
14838.780535793061,43.0
14838.780598290274,201.0
14838.780660787486,-82.0
14838.780723284697,-331.0
14838.78078578191,-362.0
14838.780848279122,-427.0
14838.780910776335,-229.0
14838.780973273548,61.0
14838.78103577076,107.0
14838.781098267973,-170.0
14838.781160765186,-342.0
14838.781223262398,-218.0
14838.781285759611,-23.0
14838.781348256824,128.0
14838.781410754036,204.0
14838.781473251249,136.0
14838.78153574846,-122.0
14838.781598245672,-429.0
14838.781660742885,-534.0
14838.781723240098,-493.0
14838.78178573731,-454.0
14838.781848234523,-310.0
14838.781910731735,-187.0
14838.781973228948,-245.0
14838.78203572616,-330.0
14838.782098223372,-404.0
14838.782160720584,-343.0
14838.782223217797,-211.0
14838.78228571501,-321.0
14838.782348212222,-475.0
14838.782410709435,-556.0
14838.782473206647,-337.0
14838.78253570386,-96.0
14838.782598201073,-204.0
14838.782660698285,-273.0
14838.782723195498,-306.0
14838.78278569271,-370.0
14838.782848189921,-577.0
14838.782910687134,-780.0
14838.782973184347,-768.0
14838.78303568156,-669.0
14838.783098178772,-630.0
14838.783160675985,-517.0
14838.783223173197,-356.0
14838.78328567041,-288.0
14838.783348167623,-316.0
14838.783410664835,-267.0
14838.783473162046,-233.0
14838.783535659259,-227.0
14838.783598156471,-143.0
14838.783660653684,-125.0
14838.783723150897,-84.0
14838.78378564811,-21.0
14838.783848145322,-142.0
14838.783910642534,-380.0
14838.783973139747,-424.0
14838.78403563696,-381.0
14838.784098134172,-395.0
14838.784160631385,-374.0
14838.784223128596,-347.0
14838.784285625808,-446.0
14838.784348123021,-388.0
14838.784410620234,-359.0
14838.784473117446,-443.0
14838.784535614659,-173.0
14838.784598111872,23.0
14838.784660609084,-128.0
14838.784723106297,-145.0
14838.78478560351,-63.0
14838.78484810072,-201.0
14838.784910597933,-426.0
14838.784973095146,-530.0
14838.785035592358,-542.0
14838.785098089571,-593.0
14838.785160586784,-646.0
14838.785223083996,-697.0
14838.785285581209,-691.0
14838.785348078422,-511.0
14838.785410575634,-297.0
14838.785473072847,-278.0
14838.78553557006,-110.0
14838.78559806727,150.0
14838.785660564483,5.0
14838.785723061696,-207.0
14838.785785558908,-335.0
14838.78584805612,-448.0
14838.785910553333,-397.0
14838.785973050546,-120.0
14838.786035547759,195.0
14838.786098044971,142.0
14838.786160542184,-102.0
14838.786223039395,-197.0
14838.786285536607,-219.0
14838.78634803382,-318.0
14838.786410531033,-235.0
14838.786473028245,28.0
14838.786535525458,7.0
14838.78659802267,-251.0
14838.786660519883,-390.0
14838.786723017096,-403.0
14838.786785514309,-444.0
14838.786848011521,-457.0
14838.786910508734,-355.0
14838.786973005945,-206.0
14838.787035503157,-90.0
14838.78709800037,-152.0
14838.787160497583,-200.0
14838.787222994795,-101.0
14838.787285492008,28.0
14838.78734798922,-59.0
14838.787410486433,-103.0
14838.787472983646,-108.0
14838.787535480858,-224.0
14838.78759797807,-186.0
14838.787660475282,19.0
14838.787722972495,172.0
14838.787785469707,95.0
14838.78784796692,-77.0
14838.787910464132,-302.0
14838.787972961345,-415.0
14838.788035458558,-262.0
14838.78809795577,-101.0
14838.788160452983,-46.0
14838.788222950196,-34.0
14838.788285447408,-54.0
14838.788347944619,-111.0
14838.788410441832,-256.0
14838.788472939044,-305.0
14838.788535436257,-284.0
14838.78859793347,-320.0
14838.788660430682,-418.0
14838.788722927895,-425.0
14838.788785425108,-491.0
14838.78884792232,-613.0
14838.788910419533,-492.0
14838.788972916744,-303.0
14838.789035413956,-212.0
14838.789097911169,-200.0
14838.789160408382,-180.0
14838.789222905594,-200.0
14838.789285402807,-379.0
14838.78934790002,-450.0
14838.789410397232,-498.0
14838.789472894445,-672.0
14838.789535391657,-739.0
14838.78959788887,-714.0
14838.789660386083,-623.0
14838.789722883294,-563.0
14838.789785380506,-622.0
14838.789847877719,-560.0
14838.789910374931,-397.0
14838.789972872144,-312.0
14838.790035369357,-447.0
14838.79009786657,-753.0
14838.790160363782,-900.0
14838.790222860995,-880.0
14838.790285358205,-875.0
14838.790347855418,-885.0
14838.79041035263,-816.0
14838.790472849843,-813.0
14838.790535347056,-806.0
14838.790597844269,-712.0
14838.790660341481,-806.0
14838.790722838694,-985.0
14838.790785335907,-846.0
14838.79084783312,-530.0
14838.790910330332,-361.0
14838.790972827544,-335.0
14838.791035324757,-390.0
14838.791097821968,-582.0
14838.79116031918,-628.0
14838.791222816393,-323.0
14838.791285313606,-200.0
14838.791347810818,-281.0
14838.791410308031,-338.0
14838.791472805244,-504.0
14838.791535302456,-632.0
14838.791597799669,-656.0
14838.79166029688,-517.0
14838.791722794092,-294.0
14838.791785291305,-409.0
14838.791847788518,-509.0
14838.79191028573,-495.0
14838.791972782943,-508.0
14838.792035280156,-416.0
14838.792097777368,-268.0
14838.792160274581,-139.0
14838.792222771794,-273.0
14838.792285269006,-267.0
14838.792347766219,-276.0
14838.792410263432,-498.0
14838.792472760642,-657.0
14838.792535257855,-605.0
14838.792597755068,-445.0
14838.79266025228,-375.0
14838.792722749493,-368.0
14838.792785246706,-399.0
14838.792847743918,-358.0
14838.79291024113,-330.0
14838.792972738343,-240.0
14838.793035235554,-158.0
14838.793097732767,-291.0
14838.79316022998,-507.0
14838.793222727192,-479.0
14838.793285224405,-347.0
14838.793347721617,-380.0
14838.79341021883,-364.0
14838.793472716043,-354.0
14838.793535213255,-367.0
14838.793597710468,-287.0
14838.79366020768,-275.0
14838.793722704893,-249.0
14838.793785202104,-189.0
14838.793847699317,-235.0
14838.79391019653,-395.0
14838.793972693742,-505.0
14838.794035190955,-459.0
14838.794097688167,-450.0
14838.79416018538,-447.0
14838.794222682593,-333.0
14838.794285179805,-267.0
14838.794347677018,-342.0
14838.794410174229,-429.0
14838.794472671441,-452.0
14838.794535168654,-420.0
14838.794597665867,-222.0
14838.79466016308,-189.0
14838.794722660292,-444.0
14838.794785157505,-666.0
14838.794847654717,-643.0
14838.79491015193,-321.0
14838.794972649142,-52.0
14838.795035146355,18.0
14838.795097643568,-111.0
14838.795160140779,-288.0
14838.795222637991,-409.0
14838.795285135204,-370.0
14838.795347632416,-186.0
14838.795410129629,-89.0
14838.795472626842,-169.0
14838.795535124054,-463.0
14838.795597621267,-680.0
14838.79566011848,-645.0
14838.795722615692,-618.0
14838.795785112903,-624.0
14838.795847610116,-685.0
14838.795910107328,-607.0
14838.795972604541,-494.0
14838.796035101754,-552.0
14838.796097598966,-534.0
14838.796160096179,-621.0
14838.796222593392,-667.0
14838.796285090604,-490.0
14838.796347587817,-299.0
14838.79641008503,-82.0
14838.796472582242,55.0
14838.796535079453,-66.0
14838.796597576666,-182.0
14838.796660073878,-145.0
14838.79672257109,-99.0
14838.796785068304,-167.0
14838.796847565516,-284.0
14838.796910062729,-335.0
14838.796972559941,-356.0
14838.797035057154,-368.0
14838.797097554367,-351.0
14838.797160051578,-291.0
14838.79722254879,-149.0
14838.797285046003,-101.0
14838.797347543215,-198.0
14838.797410040428,-273.0
14838.79747253764,-279.0
14838.797535034853,-332.0
14838.797597532066,-437.0
14838.797660029279,-405.0
14838.797722526491,-404.0
14838.797785023704,-618.0
14838.797847520917,-724.0
14838.797910018127,-496.0
14838.79797251534,-430.0
14838.798035012553,-432.0
14838.798097509765,-267.0
14838.798160006978,-203.0
14838.79822250419,-338.0
14838.798285001403,-455.0
14838.798347498616,-329.0
14838.798409995828,-220.0
14838.798472493041,-171.0
14838.798534990252,-160.0
14838.798597487465,-225.0
14838.798659984677,-290.0
14838.79872248189,-390.0
14838.798784979102,-483.0
14838.798847476315,-488.0
14838.798909973528,-395.0
14838.79897247074,-259.0
14838.799034967953,-84.0
14838.799097465166,-16.0
14838.799159962378,-40.0
14838.799222459591,-12.0
14838.799284956802,-133.0
14838.799347454014,-116.0
14838.799409951227,63.0
14838.79947244844,-69.0
14838.799534945652,-116.0
14838.799597442865,-19.0
14838.799659940078,-83.0
14838.79972243729,-35.0
14838.799784934503,22.0
14838.799847431716,-34.0
14838.799909928926,9.0
14838.799972426139,-63.0
14838.800034923352,-149.0
14838.800097420564,-79.0
14838.800159917777,-142.0
14838.80022241499,-182.0
14838.800284912202,-88.0
14838.800347409415,-42.0
14838.800409906627,8.0
14838.80047240384,106.0
14838.800534901053,7.0
14838.800597398265,-146.0
14838.800659895476,-206.0
14838.800722392689,-236.0
14838.800784889901,-129.0
14838.800847387114,163.0
14838.800909884327,267.0
14838.80097238154,114.0
14838.801034878752,9.0
14838.801097375965,-105.0
14838.801159873177,-73.0
14838.801222370388,8.0
14838.8012848676,-59.0
14838.801347364813,-195.0
14838.801409862026,-390.0
14838.801472359239,-426.0
14838.801534856451,-369.0
14838.801597353664,-226.0
14838.801659850877,7.0
14838.80172234809,71.0
14838.801784845302,-82.0
14838.801847342515,-235.0
14838.801909839727,-315.0
14838.80197233694,-296.0
14838.80203483415,-103.0
14838.802097331363,59.0
14838.802159828576,-2.0
14838.802222325789,-141.0
14838.802284823001,-64.0
14838.802347320214,137.0
14838.802409817426,156.0
14838.802472314639,84.0
14838.802534811852,-45.0
14838.802597309063,-343.0
14838.802659806275,-393.0
14838.802722303488,-242.0
14838.8027848007,-101.0
14838.802847297913,103.0
14838.802909795126,225.0
14838.802972292338,299.0
14838.803034789551,219.0
14838.803097286764,11.0
14838.803159783976,-121.0
14838.803222281189,-13.0
14838.803284778402,116.0
14838.803347275614,-38.0
14838.803409772825,-170.0
14838.803472270038,-243.0
14838.80353476725,-329.0
14838.803597264463,-411.0
14838.803659761676,-439.0
14838.803722258888,-355.0
14838.8037847561,-286.0
14838.803847253314,-273.0
14838.803909750526,-283.0
14838.803972247737,-312.0
14838.80403474495,-374.0
14838.804097242162,-195.0
14838.804159739375,67.0
14838.804222236588,-100.0
14838.8042847338,-254.0
14838.804347231013,-208.0
14838.804409728225,-340.0
14838.804472225438,-396.0
14838.80453472265,-456.0
14838.804597219863,-379.0
14838.804659717076,-137.0
14838.804722214287,-11.0
14838.8047847115,107.0
14838.804847208712,122.0
14838.804909705925,29.0
14838.804972203137,-139.0
14838.80503470035,-119.0
14838.805097197563,31.0
14838.805159694775,14.0
14838.805222191988,121.0
14838.8052846892,160.0
14838.805347186411,-70.0
14838.805409683624,-263.0
14838.805472180837,-437.0
14838.80553467805,-624.0
14838.805597175262,-546.0
14838.805659672475,-374.0
14838.805722169687,-279.0
14838.8057846669,-410.0
14838.805847164112,-507.0
14838.805909661325,-322.0
14838.805972158538,-212.0
14838.80603465575,-63.0
14838.806097152961,70.0
14838.806159650174,263.0
14838.806222147387,254.0
14838.8062846446,-232.0
14838.806347141812,-466.0
14838.806409639024,-283.0
14838.806472136237,163.0
14838.80653463345,509.0
14838.806597130662,400.0
14838.806659627875,-124.0
14838.806722125086,-624.0
14838.806784622298,-576.0
14838.806847119511,-329.0
14838.806909616724,-45.0
14838.806972113936,-19.0
14838.807034611149,-335.0
14838.807097108362,-608.0
14838.807159605574,-765.0
14838.807222102787,-572.0
14838.8072846,-239.0
14838.807347097212,-13.0
14838.807409594425,185.0
14838.807472091636,188.0
14838.807534588848,-88.0
14838.807597086061,-268.0
14838.807659583274,-303.0
14838.807722080486,-218.0
14838.807784577699,5.0
14838.807847074911,-1.0
14838.807909572124,-248.0
14838.807972069337,-536.0
14838.80803456655,-687.0
14838.80809706376,-647.0
14838.808159560973,-480.0
14838.808222058185,-362.0
14838.808284555398,-374.0
14838.80834705261,-540.0
14838.808409549823,-660.0
14838.808472047036,-548.0
14838.808534544249,-409.0
14838.808597041461,-295.0
14838.808659538674,-233.0
14838.808722035887,-247.0
14838.8087845331,-358.0
14838.80884703031,-517.0
14838.808909527523,-536.0
14838.808972024735,-257.0
14838.809034521948,83.0
14838.80909701916,146.0
14838.809159516373,58.0
14838.809222013586,-98.0
14838.809284510799,-424.0
14838.809347008011,-661.0
14838.809409505224,-473.0
14838.809472002435,-46.0
14838.809534499647,115.0
14838.80959699686,-109.0
14838.809659494073,-238.0
14838.809721991285,-120.0
14838.809784488498,-194.0
14838.80984698571,-241.0
14838.809909482923,-88.0
14838.809971980136,79.0
14838.810034477348,152.0
14838.810096974561,28.0
14838.810159471774,-140.0
14838.810221968984,-275.0
14838.810284466197,-323.0
14838.81034696341,-283.0
14838.810409460622,-204.0
14838.810471957835,-184.0
14838.810534455048,-266.0
14838.81059695226,-392.0
14838.810659449473,-417.0
14838.810721946686,-350.0
14838.810784443898,-202.0
14838.810846941109,-8.0
14838.810909438322,-9.0
14838.810971935534,-129.0
14838.811034432747,-230.0
14838.81109692996,-189.0
14838.811159427172,-15.0
14838.811221924385,81.0
14838.811284421598,123.0
14838.81134691881,8.0
14838.811409416023,-246.0
14838.811471913235,-196.0
14838.811534410448,-57.0
14838.811596907659,-93.0
14838.811659404872,-106.0
14838.811721902084,-139.0
14838.811784399297,-200.0
14838.81184689651,-390.0
14838.811909393722,-475.0
14838.811971890935,-310.0
14838.812034388147,-207.0
14838.81209688536,-247.0
14838.81215938257,-165.0
14838.812221879783,-60.0
14838.812284376996,-145.0
14838.812346874209,-161.0
14838.812409371421,-108.0
14838.812471868634,12.0
14838.812534365847,-26.0
14838.81259686306,-93.0
14838.812659360272,24.0
14838.812721857485,54.0
14838.812784354697,55.0
14838.81284685191,61.0
14838.812909349122,209.0
14838.812971846333,471.0
14838.813034343546,413.0
14838.813096840759,335.0
14838.813159337971,411.0
14838.813221835184,287.0
14838.813284332397,192.0
14838.81334682961,334.0
14838.813409326822,513.0
14838.813471824034,481.0
14838.813534321245,422.0
14838.813596818458,453.0
14838.81365931567,183.0
14838.813721812883,99.0
14838.813784310096,191.0
14838.813846807308,120.0
14838.813909304521,126.0
14838.813971801734,29.0
14838.814034298946,-30.0
14838.814096796159,44.0
14838.814159293372,151.0
14838.814221790584,42.0
14838.814284287797,-118.0
14838.814346785008,-105.0
14838.81440928222,-204.0
14838.814471779433,-175.0
14838.814534276646,-156.0
14838.814596773858,-101.0
14838.814659271071,82.0
14838.814721768284,30.0
14838.814784265496,-44.0
14838.814846762709,4.0
14838.81490925992,-105.0
14838.814971757132,-358.0
14838.815034254345,-260.0
14838.815096751558,-10.0
14838.81515924877,-29.0
14838.815221745983,-94.0
14838.815284243195,-188.0
14838.815346740408,-199.0
14838.81540923762,-124.0
14838.815471734833,-277.0
14838.815534232046,-183.0
14838.815596729259,-264.0
14838.815659226471,-598.0
14838.815721723682,-571.0
14838.815784220895,-610.0
14838.815846718107,-618.0
14838.81590921532,-408.0
14838.815971712533,-369.0
14838.816034209745,-423.0
14838.816096706958,-550.0
14838.81615920417,-664.0
14838.816221701383,-653.0
14838.816284198594,-610.0
14838.816346695807,-421.0
14838.81640919302,-231.0
14838.816471690232,-292.0
14838.816534187445,-315.0
14838.816596684657,-246.0
14838.81665918187,-121.0
14838.816721679083,135.0
14838.816784176295,197.0
14838.816846673508,83.0
14838.81690917072,128.0
14838.816971667933,202.0
14838.817034165144,123.0
14838.817096662357,141.0
14838.81715915957,265.0
14838.817221656782,222.0
14838.817284153994,69.0
14838.817346651207,18.0
14838.81740914842,91.0
14838.817471645632,43.0
14838.817534142845,-106.0
14838.817596640058,-213.0
14838.817659137268,-193.0
14838.817721634481,-132.0
14838.817784131694,-208.0
14838.817846628906,-242.0
14838.817909126119,-166.0
14838.817971623332,-207.0
14838.818034120544,-165.0
14838.818096617757,-160.0
14838.81815911497,-390.0
14838.818221612182,-538.0
14838.818284109395,-689.0
14838.818346606608,-736.0
14838.818409103818,-469.0
14838.818471601031,-184.0
14838.818534098244,-217.0
14838.818596595456,-351.0
14838.818659092669,-357.0
14838.818721589882,-324.0
14838.818784087094,-217.0
14838.818846584307,-136.0
14838.81890908152,-89.0
14838.818971578732,15.0
14838.819034075943,161.0
14838.819096573156,185.0
14838.819159070368,94.0
14838.81922156758,54.0
14838.819284064793,-15.0
14838.819346562006,15.0
14838.819409059219,-9.0
14838.819471556431,-145.0
14838.819534053644,-57.0
14838.819596550857,-25.0
14838.81965904807,-23.0
14838.819721545282,138.0
14838.819784042493,200.0
14838.819846539705,180.0
14838.819909036918,89.0
14838.81997153413,76.0
14838.820034031343,195.0
14838.820096528556,215.0
14838.820159025769,146.0
14838.820221522981,108.0
14838.820284020194,-2.0
14838.820346517407,-192.0
14838.820409014617,-263.0
14838.82047151183,-212.0
14838.820534009043,-99.0
14838.820596506255,-23.0
14838.820659003468,-1.0
14838.82072150068,102.0
14838.820783997893,53.0
14838.820846495106,-37.0
14838.820908992318,107.0
14838.820971489531,201.0
14838.821033986744,194.0
14838.821096483956,139.0
14838.821158981167,106.0
14838.82122147838,105.0
14838.821283975592,131.0
14838.821346472805,120.0
14838.821408970018,31.0
14838.82147146723,-225.0
14838.821533964443,-408.0
14838.821596461656,-475.0
14838.821658958868,-600.0
14838.821721456081,-286.0
14838.821783953292,-140.0
14838.821846450504,-285.0
14838.821908947717,-126.0
14838.82197144493,-36.0
14838.822033942142,21.0
14838.822096439355,23.0
14838.822158936568,-128.0
14838.82222143378,-57.0
14838.822283930993,79.0
14838.822346428205,0.0
14838.822408925418,-211.0
14838.82247142263,-312.0
14838.822533919842,-307.0
14838.822596417054,-365.0
14838.822658914267,-308.0
14838.82272141148,-99.0
14838.822783908692,0.0
14838.822846405905,-85.0
14838.822908903117,-56.0
14838.82297140033,-70.0
14838.823033897543,-239.0
14838.823096394754,-381.0
14838.823158891966,-331.0
14838.823221389179,-111.0
14838.823283886391,-86.0
14838.823346383604,-162.0
14838.823408880817,-285.0
14838.82347137803,-461.0
14838.823533875242,-399.0
14838.823596372455,-178.0
14838.823658869667,-78.0
14838.82372136688,-24.0
14838.823783864093,-52.0
14838.823846361305,-86.0
14838.823908858516,-47.0
14838.823971355729,-34.0
14838.824033852941,176.0
14838.824096350154,462.0
14838.824158847367,451.0
14838.82422134458,192.0
14838.824283841792,70.0
14838.824346339004,47.0
14838.824408836217,70.0
14838.824471333428,278.0
14838.82453383064,504.0
14838.824596327853,554.0
14838.824658825066,334.0
14838.824721322278,170.0
14838.824783819491,308.0
14838.824846316704,425.0
14838.824908813916,410.0
14838.824971311129,452.0
14838.825033808342,485.0
14838.825096305554,257.0
14838.825158802767,137.0
14838.82522129998,147.0
14838.82528379719,16.0
14838.825346294403,101.0
14838.825408791616,135.0
14838.825471288828,-64.0
14838.825533786041,-131.0
14838.825596283254,-143.0
14838.825658780466,-142.0
14838.825721277679,39.0
14838.825783774892,79.0
14838.825846272102,-29.0
14838.825908769315,-86.0
14838.825971266528,-183.0
14838.82603376374,-34.0
14838.826096260953,137.0
14838.826158758166,194.0
14838.826221255378,279.0
14838.82628375259,298.0
14838.826346249803,359.0
14838.826408747016,267.0
14838.826471244229,-108.0
14838.826533741441,-301.0
14838.826596238654,-67.0
14838.826658735865,165.0
14838.826721233077,212.0
14838.82678373029,245.0
14838.826846227503,59.0
14838.826908724715,-196.0
14838.826971221928,-125.0
14838.82703371914,-70.0
14838.827096216353,-113.0
14838.827158713566,2.0
14838.827221210777,96.0
14838.82728370799,-80.0
14838.827346205202,-162.0
14838.827408702415,-28.0
14838.827471199627,163.0
14838.82753369684,340.0
14838.827596194053,224.0
14838.827658691265,125.0
14838.827721188478,193.0
14838.82778368569,233.0
14838.827846182903,442.0
14838.827908680116,486.0
14838.827971177327,178.0
14838.82803367454,242.0
14838.828096171752,261.0
14838.828158668965,21.0
14838.828221166177,108.0
14838.82828366339,269.0
14838.828346160602,401.0
14838.828408657815,435.0
14838.828471155028,377.0
14838.82853365224,333.0
14838.828596149451,241.0
14838.828658646664,167.0
14838.828721143876,314.0
14838.82878364109,391.0
14838.828846138302,411.0
14838.828908635514,538.0
14838.828971132727,347.0
14838.82903362994,164.0
14838.829096127152,195.0
14838.829158624365,177.0
14838.829221121578,171.0
14838.82928361879,250.0
14838.829346116001,272.0
14838.829408613214,188.0
14838.829471110426,63.0
14838.829533607639,-53.0
14838.829596104852,70.0
14838.829658602064,255.0
14838.829721099277,328.0
14838.82978359649,311.0
14838.829846093702,233.0
14838.829908590915,129.0
14838.829971088126,4.0
14838.830033585338,-19.0
14838.83009608255,51.0
14838.830158579764,3.0
14838.830221076976,-188.0
14838.830283574189,-336.0
14838.830346071401,-353.0
14838.830408568614,-219.0
14838.830471065827,-115.0
14838.83053356304,-161.0
14838.830596060252,-115.0
14838.830658557465,-16.0
14838.830721054675,-40.0
14838.830783551888,-242.0
14838.8308460491,-349.0
14838.830908546313,-134.0
14838.830971043526,26.0
14838.831033540739,213.0
14838.831096037951,401.0
14838.831158535164,312.0
14838.831221032377,114.0
14838.83128352959,-46.0
14838.8313460268,-54.0
14838.831408524013,-67.0
14838.831471021225,-49.0
14838.831533518438,3.0
14838.83159601565,-52.0
14838.831658512863,-145.0
14838.831721010076,-155.0
14838.831783507288,-9.0
14838.831846004501,117.0
14838.831908501714,117.0
14838.831970998926,51.0
14838.832033496139,-47.0
14838.83209599335,-142.0
14838.832158490563,-143.0
14838.832220987775,-70.0
14838.832283484988,67.0
14838.8323459822,155.0
14838.832408479413,168.0
14838.832470976626,40.0
14838.832533473838,-124.0
14838.832595971051,-176.0
14838.832658468264,-146.0
14838.832720965474,98.0
14838.832783462687,200.0
14838.8328459599,62.0
14838.832908457112,-37.0
14838.832970954325,-58.0
14838.833033451538,-107.0
14838.83309594875,-129.0
14838.833158445963,188.0
14838.833220943176,415.0
14838.833283440388,277.0
14838.8333459376,95.0
14838.833408434813,-73.0
14838.833470932024,-223.0
14838.833533429237,-252.0
14838.83359592645,-197.0
14838.833658423662,-55.0
14838.833720920875,221.0
14838.833783418087,230.0
14838.8338459153,111.0
14838.833908412513,152.0
14838.833970909725,225.0
14838.834033406938,317.0
14838.834095904149,225.0
14838.834158401361,239.0
14838.834220898574,472.0
14838.834283395787,613.0
14838.834345893,592.0
14838.834408390212,478.0
14838.834470887425,415.0
14838.834533384637,373.0
14838.83459588185,308.0
14838.834658379063,177.0
14838.834720876275,167.0
14838.834783373488,266.0
14838.834845870699,224.0
14838.834908367911,215.0
14838.834970865124,347.0
14838.835033362337,434.0
14838.83509585955,413.0
14838.835158356762,397.0
14838.835220853975,321.0
14838.835283351187,273.0
14838.8353458484,270.0
14838.83540834561,255.0
14838.835470842823,248.0
14838.835533340036,371.0
14838.835595837249,539.0
14838.835658334461,532.0
14838.835720831674,519.0
14838.835783328886,395.0
14838.8358458261,246.0
14838.835908323312,320.0
14838.835970820524,429.0
14838.836033317737,526.0
14838.83609581495,533.0
14838.836158312162,386.0
14838.836220809373,247.0
14838.836283306586,205.0
14838.836345803798,190.0
14838.836408301011,155.0
14838.836470798224,120.0
14838.836533295436,108.0
14838.836595792649,8.0
14838.836658289862,-45.0
14838.836720787074,55.0
14838.836783284285,160.0
14838.836845781498,316.0
14838.83690827871,332.0
14838.836970775923,163.0
14838.837033273136,37.0
14838.837095770348,49.0
14838.83715826756,144.0
14838.837220764774,189.0
14838.837283261986,104.0
14838.837345759199,-72.0
14838.837408256411,-109.0
14838.837470753624,-86.0
14838.837533250837,-105.0
14838.837595748048,-91.0
14838.83765824526,-202.0
14838.837720742473,-340.0
14838.837783239685,-168.0
14838.837845736898,24.0
14838.83790823411,20.0
14838.837970731323,-30.0
14838.838033228536,-14.0
14838.838095725749,-65.0
14838.83815822296,-57.0
14838.838220720172,181.0
14838.838283217385,339.0
14838.838345714597,388.0
14838.83840821181,396.0
14838.838470709023,301.0
14838.838533206235,226.0
14838.838595703448,188.0
14838.83865820066,240.0
14838.838720697873,445.0
14838.838783195086,442.0
14838.838845692298,357.0
14838.83890818951,473.0
14838.838970686722,424.0
14838.839033183935,250.0
14838.839095681147,203.0
14838.83915817836,163.0
14838.839220675573,22.0
14838.839283172785,-79.0
14838.839345669998,-19.0
14838.83940816721,71.0
14838.839470664423,58.0
14838.839533161634,-36.0
14838.839595658847,19.0
14838.83965815606,138.0
14838.839720653272,236.0
14838.839783150484,350.0
14838.839845647697,334.0
14838.83990814491,356.0
14838.839970642122,466.0
14838.840033139335,509.0
14838.840095636548,481.0
14838.84015813376,359.0
14838.840220630973,417.0
14838.840283128184,541.0
14838.840345625396,714.0
14838.840408122609,915.0
14838.840470619822,661.0
14838.840533117034,393.0
14838.840595614247,298.0
14838.84065811146,318.0
14838.840720608672,512.0
14838.840783105885,317.0
14838.840845603097,60.0
14838.840908100308,-57.0
14838.840970597521,-121.0
14838.841033094734,-35.0
14838.841095591946,-25.0
14838.841158089159,-19.0
14838.841220586371,-120.0
14838.841283083584,-267.0
14838.841345580797,-266.0
14838.84140807801,-213.0
14838.841470575222,62.0
14838.841533072435,460.0
14838.841595569647,492.0
14838.841658066858,329.0
14838.84172056407,351.0
14838.841783061283,614.0
14838.841845558496,756.0
14838.841908055709,758.0
14838.841970552921,730.0
14838.842033050134,593.0
14838.842095547347,510.0
14838.84215804456,492.0
14838.842220541772,426.0
14838.842283038983,354.0
14838.842345536195,445.0
14838.842408033408,424.0
14838.84247053062,345.0
14838.842533027833,457.0
14838.842595525046,476.0
14838.842658022259,413.0
14838.842720519471,381.0
14838.842783016684,336.0
14838.842845513896,266.0
14838.84290801111,114.0
14838.842970508322,-69.0
14838.843033005533,-119.0
14838.843095502745,-198.0
14838.843157999958,-248.0
14838.84322049717,-187.0
14838.843282994383,-146.0
14838.843345491596,94.0
14838.843407988808,324.0
14838.843470486021,244.0
14838.843532983234,175.0
14838.843595480446,121.0
14838.843657977657,144.0
14838.84372047487,280.0
14838.843782972082,337.0
14838.843845469295,565.0
14838.843907966508,678.0
14838.84397046372,531.0
14838.844032960933,467.0
14838.844095458146,422.0
14838.844157955358,425.0
14838.84422045257,421.0
14838.844282949784,335.0
14838.844345446996,267.0
14838.844407944207,249.0
14838.84447044142,195.0
14838.844532938632,165.0
14838.844595435845,197.0
14838.844657933058,153.0
14838.84472043027,157.0
14838.844782927483,170.0
14838.844845424695,77.0
14838.844907921908,54.0
14838.84497041912,12.0
14838.845032916332,-42.0
14838.845095413544,-13.0
14838.845157910757,100.0
14838.84522040797,313.0
14838.845282905182,386.0
14838.845345402395,356.0
14838.845407899607,375.0
14838.84547039682,290.0
14838.845532894033,381.0
14838.845595391245,597.0
14838.845657888458,626.0
14838.84572038567,637.0
14838.845782882881,585.0
14838.845845380094,525.0
14838.845907877307,505.0
14838.84597037452,476.0
14838.846032871732,626.0
14838.846095368945,679.0
14838.846157866157,592.0
14838.84622036337,455.0
14838.846282860583,117.0
14838.846345357793,-5.0
14838.846407855006,96.0
14838.846470352219,94.0
14838.846532849431,113.0
14838.846595346644,101.0
14838.846657843857,92.0
14838.84672034107,169.0
14838.846782838282,233.0
14838.846845335494,238.0
14838.846907832707,200.0
14838.84697032992,91.0
14838.847032827132,-69.0
14838.847095324345,-4.0
14838.847157821556,131.0
14838.847220318768,100.0
14838.847282815981,82.0
14838.847345313194,98.0
14838.847407810406,150.0
14838.847470307619,212.0
14838.847532804832,244.0
14838.847595302044,285.0
14838.847657799257,76.0
14838.847720296468,-82.0
14838.84778279368,-59.0
14838.847845290893,44.0
