time,X_NOSE,Y_NOSE,Z_NOSE,visibility_NOSE,X_LEFT_EYE_INNER,Y_LEFT_EYE_INNER,Z_LEFT_EYE_INNER,visibility_LEFT_EYE_INNER,X_LEFT_EYE,Y_LEFT_EYE,Z_LEFT_EYE,visibility_LEFT_EYE,X_LEFT_EYE_OUTER,Y_LEFT_EYE_OUTER,Z_LEFT_EYE_OUTER,visibility_LEFT_EYE_OUTER,X_RIGHT_EYE_OUTER,Y_RIGHT_EYE_OUTER,Z_RIGHT_EYE_OUTER,visibility_RIGHT_EYE_OUTER,X_RIGHT_EYE,Y_RIGHT_EYE,Z_RIGHT_EYE,visibility_RIGHT_EYE,X_RIGHT_EYE_OUTER,Y_RIGHT_EYE_OUTER,Z_RIGHT_EYE_OUTER,visibility_RIGHT_EYE_OUTER,X_LEFT_EAR,Y_LEFT_EAR,Z_LEFT_EAR,visibility_LEFT_EAR,X_RIGHT_EAR,Y_RIGHT_EAR,Z_RIGHT_EAR,visibility_RIGHT_EAR,X_MOUTH_LEFT,Y_MOUTH_LEFT,Z_MOUTH_LEFT,visibility_MOUTH_LEFT,X_MOUTH_RIGHT,Y_MOUTH_RIGHT,Z_MOUTH_RIGHT,visibility_MOUTH_RIGHT,X_LEFT_SHOULDER,Y_LEFT_SHOULDER,Z_LEFT_SHOULDER,visibility_LEFT_SHOULDER,X_RIGHT_SHOULDER,Y_RIGHT_SHOULDER,Z_RIGHT_SHOULDER,visibility_RIGHT_SHOULDER,X_LEFT_ELBOW,Y_LEFT_ELBOW,Z_LEFT_ELBOW,visibility_LEFT_ELBOW,X_RIGHT_ELBOW,Y_RIGHT_ELBOW,Z_RIGHT_ELBOW,visibility_RIGHT_ELBOW,X_LEFT_WRIST,Y_LEFT_WRIST,Z_LEFT_WRIST,visibility_LEFT_WRIST,X_RIGHT_WRIST,Y_RIGHT_WRIST,Z_RIGHT_WRIST,visibility_RIGHT_WRIST,X_LEFT_PINKY,Y_LEFT_PINKY,Z_LEFT_PINKY,visibility_LEFT_PINKY,X_RIGHT_PINKY,Y_RIGHT_PINKY,Z_RIGHT_PINKY,visibility_RIGHT_PINKY,X_LEFT_INDEX,Y_LEFT_INDEX,Z_LEFT_INDEX,visibility_LEFT_INDEX,X_RIGHT_INDEX,Y_RIGHT_INDEX,Z_RIGHT_INDEX,visibility_RIGHT_INDEX,X_LEFT_THUMB,Y_LEFT_THUMB,Z_LEFT_THUMB,visibility_LEFT_THUMB,X_RIGHT_THUMB,Y_RIGHT_THUMB,Z_RIGHT_THUMB,visibility_RIGHT_THUMB,X_LEFT_HIP,Y_LEFT_HIP,Z_LEFT_HIP,visibility_LEFT_HIP,X_RIGHT_HIP,Y_RIGHT_HIP,Z_RIGHT_HIP,visibility_RIGHT_HIP,X_LEFT_KNEE,Y_LEFT_KNEE,Z_LEFT_KNEE,visibility_LEFT_KNEE,X_RIGHT_KNEE,Y_RIGHT_KNEE,Z_RIGHT_KNEE,visibility_RIGHT_KNEE,X_LEFT_ANKLE,Y_LEFT_ANKLE,Z_LEFT_ANKLE,visibility_LEFT_ANKLE,X_RIGHT_ANKLE,Y_RIGHT_ANKLE,Z_RIGHT_ANKLE,visibility_RIGHT_ANKLE,X_LEFT_HEEL,Y_LEFT_HEEL,Z_LEFT_HEEL,visibility_LEFT_HEEL,X_RIGHT_HEEL,Y_RIGHT_HEEL,Z_RIGHT_HEEL,visibility_RIGHT_HEEL,X_LEFT_FOOT_INDEX,Y_LEFT_FOOT_INDEX,Z_LEFT_FOOT_INDEX,visibility_LEFT_FOOT_INDEX,X_RIGHT_FOOT_INDEX,Y_RIGHT_FOOT_INDEX,Z_RIGHT_FOOT_INDEX,visibility_RIGHT_FOOT_INDEX
19057.60698004461,0.42154523730278015,0.22762346267700195,-1.0705366134643555,0.9999866485595703,0.4271462559700012,0.2043817639350891,-1.0210223197937012,0.9999727010726929,0.43648573756217957,0.20339161157608032,-1.0210685729980469,0.9999732971191406,0.44550999999046326,0.20254582166671753,-1.0210057497024536,0.9999614953994751,0.39313647150993347,0.20530405640602112,-1.0456401109695435,0.9999755620956421,0.3740427494049072,0.20509934425354004,-1.045844316482544,0.9999780654907227,0.35561349987983704,0.2052440643310547,-1.0459052324295044,0.9999719858169556,0.4395504891872406,0.21094375848770142,-0.6788064241409302,0.9999760389328003,0.30854931473731995,0.21578198671340942,-0.8007010817527771,0.9999730587005615,0.43011659383773804,0.2517223656177521,-0.9389644265174866,0.9999886751174927,0.3942234218120575,0.25412437319755554,-0.9729046821594238,0.9999909400939941,0.5243535041809082,0.3448661267757416,-0.42436113953590393,0.9998952150344849,0.1602979153394699,0.36689767241477966,-0.6079121232032776,0.9997468590736389,0.5688478946685791,0.5107022523880005,-0.15423060953617096,0.9827651381492615,0.1602036952972412,0.5532845854759216,-0.9368786215782166,0.9876042604446411,0.6321860551834106,0.6411445140838623,-0.3136730492115021,0.9855656027793884,0.25228941440582275,0.46192461252212524,-1.5798330307006836,0.9910752773284912,0.6491891145706177,0.6828436851501465,-0.35898688435554504,0.9709022641181946,0.27859997749328613,0.4248853921890259,-1.7039985656738281,0.9847651720046997,0.6349675059318542,0.6825104355812073,-0.44441744685173035,0.9721804857254028,0.26449206471443176,0.4051511883735657,-1.7097063064575195,0.9842953681945801,0.6237052083015442,0.6736645102500916,-0.3445791006088257,0.9729244112968445,0.25997090339660645,0.4131450653076172,-1.5914353132247925,0.9768050312995911,0.4834253489971161,0.6299475431442261,0.0678800642490387,0.9981556534767151,0.30044305324554443,0.6503995656967163,-0.06771460920572281,0.9984835982322693,0.4817253351211548,0.838524580001831,0.3322068750858307,0.963645339012146,0.33775386214256287,0.8731792569160461,0.14430245757102966,0.9778277277946472,0.4854212701320648,0.9569039940834045,1.1166337728500366,0.9040239453315735,0.35605180263519287,0.9859139919281006,0.7794761061668396,0.9198125600814819,0.46451056003570557,0.9671251177787781,1.1754744052886963,0.8514794707298279,0.3612792193889618,0.9852801561355591,0.8303551077842712,0.746643602848053,0.5423436760902405,1.0215953588485718,0.9030185341835022,0.8557929396629333,0.3891293704509735,1.0811209678649902,0.46561184525489807,0.8242328763008118
19074.273646711277,0.4199100136756897,0.22791406512260437,-1.082486867904663,0.9999845027923584,0.4262405335903168,0.2048320174217224,-1.0357071161270142,0.9999673366546631,0.4359147548675537,0.20409083366394043,-1.0357428789138794,0.9999681711196899,0.44556117057800293,0.2035764753818512,-1.0357041358947754,0.9999552965164185,0.3919459581375122,0.20489436388015747,-1.059443712234497,0.9999713897705078,0.3728750944137573,0.20450562238693237,-1.0596400499343872,0.999974250793457,0.35412031412124634,0.20462766289710999,-1.0596760511398315,0.9999676942825317,0.44124045968055725,0.21166640520095825,-0.7013230919837952,0.9999711513519287,0.30700916051864624,0.21520200371742249,-0.8189486861228943,0.9999672174453735,0.4279031753540039,0.2527996897697449,-0.9531670808792114,0.9999856948852539,0.39134761691093445,0.2541821599006653,-0.9859471321105957,0.9999884366989136,0.5229918956756592,0.3442726731300354,-0.45011064410209656,0.9998586177825928,0.16111692786216736,0.36505597829818726,-0.620628297328949,0.999699592590332,0.5687865018844604,0.5091410875320435,-0.18407635390758514,0.9798508286476135,0.1605314463376999,0.5503718852996826,-0.93487948179245,0.9847784638404846,0.6301627159118652,0.6417229175567627,-0.33072400093078613,0.9785646200180054,0.25713157653808594,0.46135473251342773,-1.5569148063659668,0.9866225123405457,0.6472421288490295,0.6825661659240723,-0.3747028112411499,0.9577341079711914,0.2836316227912903,0.42290979623794556,-1.677407145500183,0.9779161810874939,0.633612334728241,0.6826205849647522,-0.45962515473365784,0.9594130516052246,0.2710166573524475,0.40243828296661377,-1.6841026544570923,0.9771429300308228,0.6225459575653076,0.6735339164733887,-0.3614327907562256,0.9611351490020752,0.26741498708724976,0.4114256799221039,-1.568867802619934,0.9670922160148621,0.4826129674911499,0.6256639957427979,0.06161084771156311,0.9977957010269165,0.29864072799682617,0.6443914771080017,-0.061396628618240356,0.9982854723930359,0.4823283553123474,0.8363528251647949,0.327503502368927,0.9652795195579529,0.3366697430610657,0.8669634461402893,0.14742495119571686,0.9794754981994629,0.4858013391494751,0.9562651515007019,1.0636566877365112,0.9079602956771851,0.3537686765193939,0.9847529530525208,0.7471939921379089,0.9218805432319641,0.46500125527381897,0.9664900302886963,1.1172914505004883,0.849056601524353,0.359022319316864,0.9852269887924194,0.7939857244491577,0.7447464466094971,0.5408347249031067,1.0225629806518555,0.8411896824836731,0.855046808719635,0.3863216042518616,1.0757079124450684,0.43229159712791443,0.8210635781288147
19090.940313377945,0.4225073754787445,0.2281336784362793,-1.0628352165222168,0.999985933303833,0.42891669273376465,0.20488226413726807,-1.0128986835479736,0.999971866607666,0.43802157044410706,0.20404601097106934,-1.0129419565200806,0.9999719858169556,0.4466211497783661,0.20332983136177063,-1.0128870010375977,0.9999600648880005,0.394046813249588,0.2054632306098938,-1.0395711660385132,0.9999752044677734,0.37439650297164917,0.20504716038703918,-1.039773941040039,0.999977707862854,0.355810284614563,0.2050732672214508,-1.0398510694503784,0.999971866607666,0.4401542842388153,0.21179869771003723,-0.670018196105957,0.999975323677063,0.3085484504699707,0.21588420867919922,-0.8004090189933777,0.9999746084213257,0.4307474195957184,0.252388060092926,-0.9308680295944214,0.9999887943267822,0.3943064510822296,0.25456032156944275,-0.9673174619674683,0.9999912977218628,0.5226306915283203,0.34601157903671265,-0.41226184368133545,0.9998899698257446,0.16316232085227966,0.3659285306930542,-0.6156636476516724,0.9997550845146179,0.568575382232666,0.5111483335494995,-0.1381121575832367,0.9805790781974792,0.1597365289926529,0.551452100276947,-0.9423298835754395,0.9878729581832886,0.6303906440734863,0.6412990689277649,-0.296553373336792,0.9831937551498413,0.25593531131744385,0.4621305465698242,-1.570937156677246,0.9900786876678467,0.6492477059364319,0.6816978454589844,-0.342582643032074,0.9667375683784485,0.2802489995956421,0.42737460136413574,-1.6939140558242798,0.9831515550613403,0.633834719657898,0.6816404461860657,-0.4269808828830719,0.9683482050895691,0.2681412398815155,0.4071136713027954,-1.702905297279358,0.9827086329460144,0.6224249601364136,0.6724507212638855,-0.32750776410102844,0.9692202210426331,0.2646322250366211,0.4151592254638672,-1.5833436250686646,0.9747023582458496,0.48466432094573975,0.6285936236381531,0.07219348102807999,0.9982225298881531,0.3017740547657013,0.6471602916717529,-0.07199309766292572,0.9985470175743103,0.4808379113674164,0.8392024636268616,0.324990838766098,0.9620600938796997,0.3378015160560608,0.8682808876037598,0.13714498281478882,0.9756795763969421,0.48257049918174744,0.9578949809074402,1.1037747859954834,0.8976202607154846,0.3526518642902374,0.9854598641395569,0.7712597846984863,0.9107612371444702,0.46159735321998596,0.967048704624176,1.1620134115219116,0.8471037745475769,0.3531135618686676,0.9856730103492737,0.8218638300895691,0.7333864569664001,0.5414100289344788,1.0209555625915527,0.885600745677948,0.8470022678375244,0.3912068009376526,1.0770131349563599,0.45541006326675415,0.8076474070549011
19107.606980044613,0.4330228865146637,0.22860097885131836,-1.0464552640914917,0.9999858140945435,0.43731001019477844,0.2056172788143158,-0.9977580904960632,0.9999715089797974,0.4450395405292511,0.20482215285301208,-0.9977666735649109,0.9999724626541138,0.45199981331825256,0.20408254861831665,-0.9977177977561951,0.9999603033065796,0.4045346975326538,0.20594996213912964,-1.033403992652893,0.9999756813049316,0.3859931230545044,0.20508241653442383,-1.0336277484893799,0.99997878074646,0.36556631326675415,0.20446109771728516,-1.0336908102035522,0.9999722242355347,0.43891796469688416,0.21244484186172485,-0.6610733270645142,0.999976396560669,0.3106304407119751,0.21516922116279602,-0.8323806524276733,0.9999748468399048,0.437757283449173,0.2513517737388611,-0.9152576923370361,0.9999886751174927,0.40313902497291565,0.25551536679267883,-0.9636051654815674,0.9999905824661255,0.521591067314148,0.34710493683815,-0.4087488651275635,0.9998980760574341,0.1582806557416916,0.36837610602378845,-0.656042754650116,0.9997305274009705,0.5702594518661499,0.5104935169219971,-0.12517327070236206,0.9833974242210388,0.16317787766456604,0.553273618221283,-0.9830228686332703,0.9899500608444214,0.6334390044212341,0.6441292762756348,-0.25767281651496887,0.9864696264266968,0.26179125905036926,0.45937201380729675,-1.5667327642440796,0.9927735924720764,0.6499378681182861,0.6851998567581177,-0.29519593715667725,0.9717736840248108,0.2870596945285797,0.423206090927124,-1.682883620262146,0.9874562621116638,0.6338449716567993,0.6838818192481995,-0.37636303901672363,0.9732916355133057,0.27305126190185547,0.40326547622680664,-1.6871378421783447,0.987103283405304,0.6226205825805664,0.6748363971710205,-0.2866850197315216,0.9738845229148865,0.2687270939350128,0.4117988049983978,-1.575842261314392,0.9803430438041687,0.4850988984107971,0.6273180246353149,0.07278910279273987,0.9980904459953308,0.299302875995636,0.6478821039199829,-0.07263460010290146,0.9983568787574768,0.47908952832221985,0.838159441947937,0.32747456431388855,0.9623417854309082,0.33853960037231445,0.8678657412528992,0.13360558450222015,0.9713782668113708,0.4840468764305115,0.959113359451294,1.094770073890686,0.8950128555297852,0.35601314902305603,0.9836955666542053,0.7587287425994873,0.9054752588272095,0.4637984335422516,0.9677606821060181,1.1526771783828735,0.8460221886634827,0.3609119951725006,0.9828732013702393,0.8090435862541199,0.733059823513031,0.543014645576477,1.0251264572143555,0.8887481689453125,0.8440563678741455,0.3899518847465515,1.0771983861923218,0.4522411525249481,0.8033294677734375
19124.27364671128,0.43192753195762634,0.22783133387565613,-1.0527502298355103,0.9999861717224121,0.43615686893463135,0.20405280590057373,-1.0016403198242188,0.9999725818634033,0.444114625453949,0.20304477214813232,-1.0016953945159912,0.999972939491272,0.4511948525905609,0.20216676592826843,-1.0016480684280396,0.9999613761901855,0.4027652442455292,0.2049696147441864,-1.0330228805541992,0.9999761581420898,0.3836239278316498,0.2044258713722229,-1.0332605838775635,0.99997878074646,0.363559752702713,0.2042044699192047,-1.0333621501922607,0.9999731779098511,0.4393160939216614,0.21085545420646667,-0.6582784056663513,0.9999771118164062,0.3104756474494934,0.2152327299118042,-0.8093810677528381,0.9999760389328003,0.43818607926368713,0.25080588459968567,-0.9202993512153625,0.9999897480010986,0.4020903706550598,0.25503480434417725,-0.9628493785858154,0.9999918937683105,0.5238217115402222,0.34762895107269287,-0.4045611023902893,0.9998975992202759,0.15834537148475647,0.3690447509288788,-0.6306459307670593,0.9997509121894836,0.5710579752922058,0.5138188600540161,-0.12744754552841187,0.9831157326698303,0.16208501160144806,0.5561680793762207,-0.9561807513237,0.9904102087020874,0.6333059072494507,0.6450059413909912,-0.2813613712787628,0.9866381883621216,0.2541975677013397,0.4657106101512909,-1.5678067207336426,0.9931643605232239,0.6493911743164062,0.6861053109169006,-0.3266417980194092,0.9726386070251465,0.28003302216529846,0.4281633496284485,-1.6892081499099731,0.987976610660553,0.6324446201324463,0.6848446130752563,-0.4086897075176239,0.9740788340568542,0.26614105701446533,0.4084124267101288,-1.69652259349823,0.9876803159713745,0.6210724115371704,0.675540566444397,-0.31103745102882385,0.9745674729347229,0.2622303068637848,0.4170224070549011,-1.5785670280456543,0.9813656806945801,0.4852137267589569,0.6318174600601196,0.07285083830356598,0.9981315732002258,0.30038487911224365,0.6513375639915466,-0.07267872244119644,0.998439610004425,0.4786170721054077,0.8452481031417847,0.32943230867385864,0.9604241847991943,0.3392447829246521,0.872721254825592,0.14014147222042084,0.9710170030593872,0.4835595190525055,0.9614740610122681,1.133877158164978,0.8850364089012146,0.3587794601917267,0.989163875579834,0.7896142601966858,0.8978725671768188,0.46333351731300354,0.9685144424438477,1.1955081224441528,0.835381269454956,0.3643094599246979,0.9864276051521301,0.8425377011299133,0.7175522446632385,0.5390499830245972,1.027011752128601,0.9269044995307922,0.8343026041984558,0.3958059549331665,1.0853201150894165,0.477455735206604,0.7908861041069031
19140.94031337795,0.4272862374782562,0.22813671827316284,-1.0697487592697144,0.9999876022338867,0.43228569626808167,0.20476225018501282,-1.0211150646209717,0.9999747276306152,0.4406758248806,0.20367231965065002,-1.0211457014083862,0.999975323677063,0.4483926594257355,0.2026396095752716,-1.0211044549942017,0.9999645948410034,0.398724764585495,0.2059813141822815,-1.0505802631378174,0.9999781847000122,0.3794901967048645,0.20555910468101501,-1.0508073568344116,0.9999806880950928,0.36039161682128906,0.20549637079238892,-1.0508726835250854,0.999975323677063,0.4390827417373657,0.2113504707813263,-0.6833036541938782,0.9999786615371704,0.31056198477745056,0.2165323793888092,-0.8265333771705627,0.9999771118164062,0.434607595205307,0.2516528367996216,-0.9387003183364868,0.9999896287918091,0.39915037155151367,0.25518569350242615,-0.9789589047431946,0.999991774559021,0.524273157119751,0.3461352586746216,-0.4316980540752411,0.9998959302902222,0.1577785611152649,0.3686486482620239,-0.6410043239593506,0.9997498393058777,0.5708667635917664,0.513710618019104,-0.15694671869277954,0.982698380947113,0.1616659164428711,0.5557097792625427,-0.9682219624519348,0.9894066452980042,0.6330365538597107,0.644345223903656,-0.29997798800468445,0.985895037651062,0.25427675247192383,0.4633327126502991,-1.5788301229476929,0.9921533465385437,0.6496505737304688,0.6852975487709045,-0.3418908715248108,0.9712349772453308,0.2798420786857605,0.42621365189552307,-1.6988563537597656,0.9863811135292053,0.6325918436050415,0.684126615524292,-0.4251512587070465,0.9725415110588074,0.2664946913719177,0.405875027179718,-1.7035988569259644,0.9859296679496765,0.6210203766822815,0.6748706698417664,-0.3296235203742981,0.973074197769165,0.2627495229244232,0.41434186697006226,-1.5888757705688477,0.9788128137588501,0.48449838161468506,0.6298426985740662,0.06647329032421112,0.9982141256332397,0.30085843801498413,0.6493819952011108,-0.06633376330137253,0.9985396862030029,0.47903332114219666,0.8417887687683105,0.3381440043449402,0.9656418561935425,0.3377705216407776,0.8712955713272095,0.15553908050060272,0.9766571521759033,0.4838046133518219,0.960350751876831,1.1169170141220093,0.9055270552635193,0.35664841532707214,0.9858092069625854,0.7882834672927856,0.9190152883529663,0.46337243914604187,0.9687696695327759,1.1759891510009766,0.8556305766105652,0.3620496690273285,0.9843993186950684,0.8395774960517883,0.7509632110595703,0.5447275638580322,1.0244290828704834,0.9112124443054199,0.8607375025749207,0.3914027810096741,1.081002116203308,0.4827011525630951,0.8254266381263733
19157.606980044617,0.4278673827648163,0.23011687397956848,-1.0353379249572754,0.9999881982803345,0.4342641234397888,0.20594561100006104,-0.9847318530082703,0.999976634979248,0.4427335560321808,0.2048332393169403,-0.9847816824913025,0.9999771118164062,0.450142502784729,0.20396625995635986,-0.9847407341003418,0.9999674558639526,0.4001538157463074,0.20723283290863037,-1.0143378973007202,0.9999790191650391,0.38127201795578003,0.2069317102432251,-1.0145329236984253,0.9999809265136719,0.3622744381427765,0.20699119567871094,-1.0146000385284424,0.9999754428863525,0.4401788115501404,0.212602436542511,-0.6392533183097839,0.9999806880950928,0.31151023507118225,0.21750220656394958,-0.7833063006401062,0.9999779462814331,0.4358977675437927,0.2522267699241638,-0.901885986328125,0.9999910593032837,0.3995226323604584,0.2564137578010559,-0.9423985481262207,0.9999926090240479,0.5200947523117065,0.3468031585216522,-0.3845752775669098,0.999916672706604,0.16205231845378876,0.3684581518173218,-0.5948312282562256,0.9997572302818298,0.5719704627990723,0.511593759059906,-0.11175081878900528,0.9848228693008423,0.15863654017448425,0.5512570738792419,-0.9179816246032715,0.9876244068145752,0.6324465274810791,0.6429300308227539,-0.2739052176475525,0.987240731716156,0.2491682916879654,0.46230795979499817,-1.5458346605300903,0.9905034303665161,0.6495160460472107,0.6846824288368225,-0.320549875497818,0.9736549258232117,0.2741418480873108,0.4279639720916748,-1.6676725149154663,0.9841879606246948,0.6332390308380127,0.6837689876556396,-0.4040461480617523,0.9750290513038635,0.2621019780635834,0.4066181480884552,-1.6792815923690796,0.9838166236877441,0.6219655275344849,0.674328088760376,-0.304273396730423,0.9752596616744995,0.2584541141986847,0.4148046374320984,-1.5591180324554443,0.9760991930961609,0.4838648736476898,0.6295505166053772,0.0726042166352272,0.9981826543807983,0.30099302530288696,0.6482898592948914,-0.07238192856311798,0.9984269142150879,0.4802519679069519,0.8401694297790527,0.31527358293533325,0.9621403217315674,0.33614370226860046,0.8687657117843628,0.12394547462463379,0.9738181829452515,0.4826773703098297,0.9593164324760437,1.0752393007278442,0.8957476019859314,0.35784509778022766,0.9886894822120667,0.7411221265792847,0.9060003161430359,0.46105536818504333,0.9676592946052551,1.1315538883209229,0.8438695073127747,0.3692503571510315,1.013302206993103,0.789779782295227,0.7261806130409241,0.5617504119873047,1.0280768871307373,0.8566063046455383,0.8444371223449707,0.3964102268218994,1.0794137716293335,0.42313721776008606,0.8000934720039368
19174.273646711285,0.4320763945579529,0.22731748223304749,-1.0828245878219604,0.9999905824661255,0.4362073242664337,0.20340615510940552,-1.0327887535095215,0.9999810457229614,0.44394612312316895,0.20241829752922058,-1.0328137874603271,0.9999812841415405,0.45087358355522156,0.20159927010536194,-1.0327597856521606,0.999972939491272,0.40367391705513,0.2039940059185028,-1.0654799938201904,0.9999843835830688,0.3853045701980591,0.20339226722717285,-1.0657159090042114,0.9999862909317017,0.36544448137283325,0.20312732458114624,-1.0657989978790283,0.9999827146530151,0.43818342685699463,0.21009328961372375,-0.69004887342453,0.999983549118042,0.3117516040802002,0.21405038237571716,-0.847465991973877,0.9999843835830688,0.4377673864364624,0.24973918497562408,-0.95001220703125,0.9999924898147583,0.4027456045150757,0.2540394067764282,-0.9944453239440918,0.9999945163726807,0.5236529111862183,0.34747785329818726,-0.42745107412338257,0.9999059438705444,0.15675552189350128,0.3692395091056824,-0.6638567447662354,0.9997943043708801,0.573403537273407,0.5124993324279785,-0.139226034283638,0.9851856827735901,0.15821197628974915,0.556185245513916,-0.9825634956359863,0.9921411275863647,0.6347163319587708,0.6443365216255188,-0.2853894829750061,0.9883280396461487,0.2534058094024658,0.4669767916202545,-1.5898813009262085,0.9943379759788513,0.6504522562026978,0.6860982775688171,-0.32810914516448975,0.9753488898277283,0.27908968925476074,0.43055260181427,-1.711885929107666,0.9897486567497253,0.6340175867080688,0.6845158934593201,-0.41101229190826416,0.9766530990600586,0.26526668667793274,0.41056182980537415,-1.7188100814819336,0.989504337310791,0.6230698823928833,0.6746744513511658,-0.3149239718914032,0.9768184423446655,0.2616236209869385,0.4192555546760559,-1.5999360084533691,0.9837853908538818,0.48297858238220215,0.6300874948501587,0.0735049843788147,0.9981604218482971,0.29916441440582275,0.6485018134117126,-0.07339893281459808,0.9985128045082092,0.479627400636673,0.8415975570678711,0.34646111726760864,0.9655297994613647,0.3376741409301758,0.8708394169807434,0.14289672672748566,0.9757869243621826,0.48446884751319885,0.9618797898292542,1.1235133409500122,0.9034099578857422,0.35910841822624207,0.9926140904426575,0.7717093825340271,0.9156038761138916,0.4639786183834076,0.9686751961708069,1.1823607683181763,0.8540814518928528,0.3690324127674103,1.0186820030212402,0.8225540518760681,0.7437037825584412,0.564016580581665,1.0322130918502808,0.9134275317192078,0.8601011633872986,0.40250250697135925,1.0861128568649292,0.4573271870613098,0.8193742036819458
19190.940313377952,0.43238821625709534,0.22829556465148926,-1.1093242168426514,0.999990701675415,0.43644675612449646,0.20468151569366455,-1.0595697164535522,0.9999814033508301,0.44421789050102234,0.20365408062934875,-1.0595629215240479,0.9999815225601196,0.4511520564556122,0.20270341634750366,-1.0594772100448608,0.9999728202819824,0.40418457984924316,0.20550823211669922,-1.094678521156311,0.9999845027923584,0.38629579544067383,0.20481061935424805,-1.0949127674102783,0.9999866485595703,0.3661888837814331,0.2043115496635437,-1.0949825048446655,0.9999828338623047,0.437639445066452,0.21141564846038818,-0.71159827709198,0.9999839067459106,0.3123398721218109,0.21441742777824402,-0.8807393908500671,0.9999852180480957,0.43762052059173584,0.2506343424320221,-0.974159836769104,0.9999920129776001,0.4036681652069092,0.25493595004081726,-1.021946668624878,0.9999938011169434,0.5211076140403748,0.34610646963119507,-0.43601855635643005,0.9999079704284668,0.1565702259540558,0.3682645261287689,-0.6957762241363525,0.9998030066490173,0.5703659057617188,0.5114320516586304,-0.1315094381570816,0.984100878238678,0.1594804972410202,0.5544780492782593,-1.0379129648208618,0.9922099113464355,0.6296008825302124,0.6413033604621887,-0.26583775877952576,0.986877977848053,0.25022780895233154,0.4641285836696625,-1.6643997430801392,0.9941014647483826,0.6493079662322998,0.6828253269195557,-0.3020864725112915,0.9719266891479492,0.2761234939098358,0.4269939064979553,-1.789110541343689,0.9891813397407532,0.6324030756950378,0.6822770237922668,-0.38738885521888733,0.9733558893203735,0.2624058127403259,0.40684735774993896,-1.7964462041854858,0.9889101982116699,0.6200621128082275,0.6729034781455994,-0.29623502492904663,0.9739393591880798,0.2577076256275177,0.41580983996391296,-1.6755614280700684,0.9829482436180115,0.48232656717300415,0.6260339021682739,0.07495781034231186,0.9986530542373657,0.3002963662147522,0.6456261277198792,-0.07483925670385361,0.9989138841629028,0.4800463616847992,0.8353097438812256,0.35395124554634094,0.9715580344200134,0.33585500717163086,0.8657436370849609,0.14609462022781372,0.9792647361755371,0.4851272404193878,0.955712080001831,1.1263096332550049,0.9247479438781738,0.3539516031742096,0.9832136631011963,0.7866241931915283,0.9314367771148682,0.4657536447048187,0.9661277532577515,1.1833827495574951,0.8820757269859314,0.3597925007343292,0.9851198792457581,0.8375489711761475,0.7691916227340698,0.5417549014091492,1.0210909843444824,0.9042487740516663,0.8883388042449951,0.38687029480934143,1.076120376586914,0.4668289124965668,0.8511925339698792
19207.60698004462,0.4268004894256592,0.23129120469093323,-1.0696098804473877,0.9999892711639404,0.43288537859916687,0.20752188563346863,-1.0192326307296753,0.9999784231185913,0.4414435029029846,0.20649075508117676,-1.0192639827728271,0.9999783039093018,0.44917672872543335,0.20550617575645447,-1.0192251205444336,0.9999690055847168,0.3991814851760864,0.2083732783794403,-1.0497539043426514,0.9999817609786987,0.3793371319770813,0.20776203274726868,-1.0499613285064697,0.9999837875366211,0.3602704405784607,0.2075616419315338,-1.0500596761703491,0.9999796152114868,0.43944665789604187,0.2132471203804016,-0.6684783697128296,0.9999818801879883,0.31052276492118835,0.21786504983901978,-0.8161424994468689,0.999982476234436,0.4342139959335327,0.2538137137889862,-0.9337396025657654,0.9999915361404419,0.39815399050712585,0.25740113854408264,-0.9753575325012207,0.9999934434890747,0.5195810794830322,0.3477242588996887,-0.39019739627838135,0.9999138116836548,0.16065673530101776,0.367837131023407,-0.6284772157669067,0.9997947812080383,0.57362961769104,0.5117567181587219,-0.08059666305780411,0.98465895652771,0.15724192559719086,0.5547707676887512,-0.9602713584899902,0.9897782206535339,0.6349215507507324,0.6421803832054138,-0.2153327316045761,0.986858606338501,0.24123108386993408,0.4677157700061798,-1.601201057434082,0.9920791983604431,0.6519725322723389,0.6840455532073975,-0.2543370723724365,0.9725399017333984,0.2676994502544403,0.4318453371524811,-1.7262061834335327,0.9861958026885986,0.6349064111709595,0.6832066178321838,-0.3392519950866699,0.974181056022644,0.25568661093711853,0.4105094075202942,-1.7386140823364258,0.9859985113143921,0.6237201690673828,0.673486053943634,-0.2453768104314804,0.974777102470398,0.25188079476356506,0.4186634421348572,-1.6146641969680786,0.9791146516799927,0.48641306161880493,0.6302183270454407,0.07652290165424347,0.9982966780662537,0.3029993176460266,0.6485512852668762,-0.07633070647716522,0.998620867729187,0.4808763265609741,0.8391374349594116,0.308034747838974,0.9642747640609741,0.3375466465950012,0.86956387758255,0.10939576476812363,0.974032461643219,0.48333755135536194,0.9574762582778931,1.093717098236084,0.896912693977356,0.3554805517196655,0.9879857897758484,0.7452570199966431,0.9076570272445679,0.4634246230125427,0.9662222266197205,1.1523200273513794,0.8484000563621521,0.36837345361709595,1.0168721675872803,0.7957203984260559,0.7143344879150391,0.5413844585418701,1.0204010009765625,0.8693527579307556,0.8487256169319153,0.39256104826927185,1.0851691961288452,0.4164271950721741,0.8027915358543396
19224.273646711288,0.42846181988716125,0.22987818717956543,-1.0920445919036865,0.9999879598617554,0.43441396951675415,0.20658612251281738,-1.0403028726577759,0.9999759197235107,0.44258207082748413,0.20569267868995667,-1.0403153896331787,0.9999755620956421,0.44977518916130066,0.20492461323738098,-1.040245532989502,0.9999651908874512,0.4018150866031647,0.20706060528755188,-1.0720067024230957,0.99997878074646,0.38297927379608154,0.2063320279121399,-1.0721962451934814,0.9999805688858032,0.3636378347873688,0.20600280165672302,-1.072258472442627,0.9999750852584839,0.43923574686050415,0.21300280094146729,-0.6836432218551636,0.9999785423278809,0.3127829432487488,0.21652725338935852,-0.8389284014701843,0.9999778270721436,0.43543434143066406,0.25175684690475464,-0.9543903470039368,0.9999898672103882,0.4004984200000763,0.2554263174533844,-0.9982821941375732,0.9999920129776001,0.5206608176231384,0.3466201722621918,-0.4141213595867157,0.999915599822998,0.16142219305038452,0.3663891553878784,-0.6440359354019165,0.9997766613960266,0.5683058500289917,0.510502278804779,-0.12139949947595596,0.9835732579231262,0.15184369683265686,0.5467768311500549,-0.9790095090866089,0.9877778887748718,0.6308600902557373,0.6405717134475708,-0.2805555760860443,0.9862707853317261,0.2465367615222931,0.4638621509075165,-1.620924472808838,0.9895622134208679,0.6491146087646484,0.6825228333473206,-0.32544466853141785,0.9713733196258545,0.27349725365638733,0.42971861362457275,-1.748724341392517,0.9822841286659241,0.6335464715957642,0.6823919415473938,-0.41424572467803955,0.9727528095245361,0.26118749380111694,0.4074278771877289,-1.7596477270126343,0.9817526340484619,0.6218562126159668,0.673835039138794,-0.3129519820213318,0.9729403257369995,0.2574094831943512,0.4147357940673828,-1.6344271898269653,0.9728294610977173,0.4821268320083618,0.6269082427024841,0.07515393942594528,0.9986383318901062,0.29944929480552673,0.644524872303009,-0.07495027780532837,0.9988453388214111,0.47962209582328796,0.8333505392074585,0.3377057909965515,0.9689221382141113,0.3352307379245758,0.863963782787323,0.13825367391109467,0.9803988337516785,0.4848896265029907,0.954215407371521,1.1405398845672607,0.9177224040031433,0.3562054932117462,0.9824657440185547,0.8036215901374817,0.9317237734794617,0.4651915431022644,0.9672248959541321,1.2003250122070312,0.8710522651672363,0.36033889651298523,0.9834674000740051,0.8567195534706116,0.7638111114501953,0.5444279909133911,1.0170180797576904,0.9164902567863464,0.879729151725769,0.3875974714756012,1.0696338415145874,0.48280811309814453,0.8506408333778381
19240.940313377956,0.43302205204963684,0.22960010170936584,-1.0496935844421387,0.9999887943267822,0.43637335300445557,0.20636555552482605,-0.9982540607452393,0.9999780654907227,0.4437696933746338,0.20526298880577087,-0.9982679486274719,0.9999783039093018,0.45034879446029663,0.20427006483078003,-0.9981967806816101,0.9999685287475586,0.40484195947647095,0.2076394259929657,-1.0336270332336426,0.999981164932251,0.387593537569046,0.20723110437393188,-1.0338212251663208,0.9999831914901733,0.3675604462623596,0.20699140429496765,-1.0338839292526245,0.9999781847000122,0.4360460042953491,0.21188291907310486,-0.6497173309326172,0.999981164932251,0.31420591473579407,0.21694955229759216,-0.8213945627212524,0.9999814033508301,0.4383201003074646,0.251313716173172,-0.9149085879325867,0.9999909400939941,0.405258446931839,0.2561796009540558,-0.9634785652160645,0.9999929666519165,0.5205954313278198,0.34630852937698364,-0.39096707105636597,0.999916672706604,0.16231374442577362,0.3674198091030121,-0.6371374726295471,0.9997616410255432,0.5699925422668457,0.5107793211936951,-0.09597570449113846,0.9844714999198914,0.1511181741952896,0.5489023923873901,-0.9759169220924377,0.9896723031997681,0.6287564039230347,0.639782726764679,-0.23681031167507172,0.9877618551254272,0.24444760382175446,0.46486055850982666,-1.5952471494674683,0.9914645552635193,0.6479206085205078,0.6811844110488892,-0.27597635984420776,0.9740835428237915,0.2714395821094513,0.4288221001625061,-1.7177497148513794,0.9851030707359314,0.6324481964111328,0.6810211539268494,-0.3599275052547455,0.9753555655479431,0.25964200496673584,0.4074631929397583,-1.7245885133743286,0.9846624135971069,0.619837760925293,0.672509491443634,-0.2668345868587494,0.9755380749702454,0.2557174861431122,0.41537246108055115,-1.606272578239441,0.97686767578125,0.48243898153305054,0.6267113089561462,0.07543686032295227,0.9985678195953369,0.3009461760520935,0.6458768844604492,-0.07525157183408737,0.9987215399742126,0.4792783260345459,0.832727313041687,0.3369556665420532,0.9716956615447998,0.33494532108306885,0.866619348526001,0.1346406787633896,0.9793767929077148,0.4858548939228058,0.9527305364608765,1.1230137348175049,0.9238279461860657,0.35883620381355286,0.9845250844955444,0.7810130715370178,0.9301435947418213,0.46684765815734863,0.9644553661346436,1.1818292140960693,0.8780379891395569,0.3617868423461914,0.9851511716842651,0.8326996564865112,0.7630279660224915,0.5432788729667664,1.01704740524292,0.9073655009269714,0.8853335380554199,0.39594602584838867,1.0720643997192383,0.46437638998031616,0.8467957973480225
19257.606980044624,0.43140897154808044,0.22882133722305298,-1.1368052959442139,0.9999921321868896,0.4361385405063629,0.20521575212478638,-1.0862632989883423,0.9999839067459106,0.44383716583251953,0.2042267918586731,-1.086240530014038,0.9999840259552002,0.45067867636680603,0.20337459444999695,-1.0861250162124634,0.999976396560669,0.40388023853302,0.20607990026474,-1.1194586753845215,0.9999865293502808,0.38561445474624634,0.2056429088115692,-1.1196701526641846,0.9999881982803345,0.3657072186470032,0.2054891288280487,-1.1197209358215332,0.999984860420227,0.4379079341888428,0.21160206198692322,-0.7367694973945618,0.9999855756759644,0.3124139606952667,0.21627509593963623,-0.8977476358413696,0.9999862909317017,0.43683087825775146,0.2514648735523224,-1.0018908977508545,0.999992847442627,0.40252047777175903,0.255707323551178,-1.0473750829696655,0.9999946355819702,0.5226274132728577,0.34841546416282654,-0.46293091773986816,0.9999021291732788,0.15906262397766113,0.3694119155406952,-0.7110286951065063,0.999795138835907,0.5684976577758789,0.5109791159629822,-0.1554088294506073,0.982611894607544,0.1574414223432541,0.5537134408950806,-1.0502938032150269,0.9918566942214966,0.6299046277999878,0.6408106684684753,-0.28196465969085693,0.9864440560340881,0.251930832862854,0.46764689683914185,-1.674293875694275,0.9932435154914856,0.6484718918800354,0.6816806197166443,-0.3177835941314697,0.9712893962860107,0.2781403362751007,0.43058153986930847,-1.799072027206421,0.9876314997673035,0.6337813138961792,0.6817452907562256,-0.4017687737941742,0.9725533127784729,0.2658405005931854,0.40892884135246277,-1.8063478469848633,0.9872036576271057,0.6221644878387451,0.6729307174682617,-0.3116600811481476,0.9729440808296204,0.261587917804718,0.417154997587204,-1.6856437921524048,0.9804469347000122,0.4822731614112854,0.6273497343063354,0.07474160939455032,0.998706579208374,0.29855257272720337,0.6452134847640991,-0.07464811205863953,0.9989527463912964,0.47832050919532776,0.8297158479690552,0.38317522406578064,0.971631646156311,0.33506476879119873,0.8591457605361938,0.1720137745141983,0.9826055765151978,0.4829094409942627,0.9521112442016602,1.1672056913375854,0.9300405979156494,0.356413871049881,0.9810648560523987,0.8249059319496155,0.9407458305358887,0.46263638138771057,0.9645835757255554,1.2256994247436523,0.8887150287628174,0.35837122797966003,0.9823867082595825,0.8772185444831848,0.7921894192695618,0.5414188504219055,1.0162487030029297,0.9522759318351746,0.9011512398719788,0.39936918020248413,1.0688868761062622,0.5115364193916321,0.8700738549232483
19274.27364671129,0.43500322103500366,0.2270914614200592,-1.1224322319030762,0.9999862909317017,0.4384738504886627,0.20257431268692017,-1.071804404258728,0.9999727010726929,0.4459490478038788,0.20156586170196533,-1.0717953443527222,0.9999728202819824,0.45272085070610046,0.20072811841964722,-1.0717194080352783,0.9999608993530273,0.40621399879455566,0.20395812392234802,-1.108521580696106,0.9999780654907227,0.38826730847358704,0.2036798596382141,-1.1087864637374878,0.9999814033508301,0.36756759881973267,0.20345538854599,-1.1088858842849731,0.9999767541885376,0.4375857412815094,0.21043378114700317,-0.7224470973014832,0.9999746084213257,0.3117366433143616,0.21451058983802795,-0.897344172000885,0.9999796152114868,0.44026604294776917,0.24943311512470245,-0.9868860840797424,0.9999886751174927,0.40582168102264404,0.254542738199234,-1.0363425016403198,0.9999920129776001,0.5218444466590881,0.3467464745044708,-0.4392979145050049,0.9998762607574463,0.1571914255619049,0.36932024359703064,-0.7241207361221313,0.9997851252555847,0.5714328289031982,0.5117462873458862,-0.14095284044742584,0.9799025654792786,0.15944837033748627,0.5564181804656982,-1.0464589595794678,0.9931642413139343,0.6318368911743164,0.6422176957130432,-0.28014159202575684,0.9833000898361206,0.2598641514778137,0.463237464427948,-1.6244052648544312,0.994087815284729,0.6486392021179199,0.6838843822479248,-0.3192625045776367,0.9649669528007507,0.28713589906692505,0.42807021737098694,-1.7446106672286987,0.9888641834259033,0.6331854462623596,0.6829341053962708,-0.40134283900260925,0.9668052792549133,0.27252131700515747,0.40756168961524963,-1.7511203289031982,0.9885374307632446,0.6223223209381104,0.6735274195671082,-0.31003090739250183,0.9672796726226807,0.2682856321334839,0.4165230691432953,-1.6335891485214233,0.9821946024894714,0.48086968064308167,0.6272215247154236,0.08903238922357559,0.9981846213340759,0.29991891980171204,0.6462571620941162,-0.08897051215171814,0.9985815286636353,0.48131561279296875,0.8370864391326904,0.385929673910141,0.9598478078842163,0.33709022402763367,0.8669878244400024,0.1449163556098938,0.9744296073913574,0.48193493485450745,0.9575258493423462,1.1498010158538818,0.9013187885284424,0.3538672924041748,0.9851092100143433,0.7810777425765991,0.9123312830924988,0.46035727858543396,0.9671738147735596,1.2069509029388428,0.8511162996292114,0.35455837845802307,0.9852696061134338,0.8319234848022461,0.7333229184150696,0.5452060103416443,1.0220861434936523,0.9277952313423157,0.8635331392288208,0.40462443232536316,1.0801633596420288,0.45783403515815735,0.8209673166275024
19290.94031337796,0.43345728516578674,0.22984915971755981,-1.085486650466919,0.999991774559021,0.4377855956554413,0.20631107687950134,-1.0349915027618408,0.9999829530715942,0.44519540667533875,0.2053009271621704,-1.034986138343811,0.9999830722808838,0.4517606496810913,0.20442873239517212,-1.0349141359329224,0.9999756813049316,0.40577614307403564,0.20750951766967773,-1.0691481828689575,0.999985933303833,0.38833311200141907,0.2071412205696106,-1.0693507194519043,0.9999876022338867,0.3679690361022949,0.2068985402584076,-1.0693939924240112,0.9999842643737793,0.43826940655708313,0.21199023723602295,-0.6885796189308167,0.9999842643737793,0.3143022060394287,0.21660158038139343,-0.8522320985794067,0.9999858140945435,0.43813997507095337,0.25191596150398254,-0.9513649344444275,0.9999932050704956,0.4041871130466461,0.2565467655658722,-0.9974856972694397,0.9999949932098389,0.5183347463607788,0.3465105891227722,-0.41587844491004944,0.9999127388000488,0.16024084389209747,0.37021946907043457,-0.6763848066329956,0.9998255372047424,0.571017861366272,0.5100823640823364,-0.13154467940330505,0.9825043082237244,0.16293908655643463,0.5568762421607971,-0.9818441271781921,0.9921899437904358,0.6321813464164734,0.6400187015533447,-0.2839718461036682,0.986332356929779,0.2596991956233978,0.46312543749809265,-1.555749535560608,0.9937766790390015,0.6493945121765137,0.683654248714447,-0.3272571265697479,0.9714113473892212,0.2859622836112976,0.426532506942749,-1.6748477220535278,0.9887558817863464,0.6346937417984009,0.6824823021888733,-0.4102396070957184,0.9728223085403442,0.27249079942703247,0.4057731628417969,-1.6843059062957764,0.9883990287780762,0.6243370771408081,0.6729188561439514,-0.3148668706417084,0.9729930758476257,0.26758140325546265,0.41406816244125366,-1.5666104555130005,0.9822326898574829,0.483197420835495,0.6274283528327942,0.08998429030179977,0.9980906844139099,0.3037979006767273,0.6459789276123047,-0.0898580402135849,0.9985186457633972,0.4812237024307251,0.835022509098053,0.38334253430366516,0.9621567726135254,0.33885815739631653,0.8651107549667358,0.13449354469776154,0.97940593957901,0.4829797148704529,0.9573261141777039,1.1178227663040161,0.9059965014457703,0.3575962483882904,0.9907819032669067,0.7381368279457092,0.9240423440933228,0.46102121472358704,0.9678313136100769,1.1722302436828613,0.8568447828292847,0.3632480800151825,1.0133143663406372,0.7854806780815125,0.7594538927078247,0.553383469581604,1.0188045501708984,0.90322345495224,0.8685697317123413,0.41354307532310486,1.079402208328247,0.4187074303627014,0.8346890211105347
19307.606980044628,0.42450693249702454,0.2271750569343567,-1.0869898796081543,0.9999899864196777,0.42972519993782043,0.2029726803302765,-1.034511923789978,0.9999794960021973,0.4385906159877777,0.20194649696350098,-1.0345438718795776,0.9999796152114868,0.44687914848327637,0.20099160075187683,-1.0344593524932861,0.9999703168869019,0.39598867297172546,0.20418903231620789,-1.0626530647277832,0.9999815225601196,0.3769058287143707,0.20388156175613403,-1.0628474950790405,0.9999834299087524,0.35858026146888733,0.20393458008766174,-1.0628972053527832,0.9999784231185913,0.43848273158073425,0.20944222807884216,-0.6817542314529419,0.9999816417694092,0.31044965982437134,0.2148171365261078,-0.819602906703949,0.9999802112579346,0.4322624206542969,0.2505291700363159,-0.9518020153045654,0.9999915361404419,0.3968707323074341,0.25372400879859924,-0.9904462099075317,0.999993085861206,0.5206222534179688,0.3453436493873596,-0.41958683729171753,0.9999164342880249,0.1611458957195282,0.367196261882782,-0.6312586069107056,0.9997804760932922,0.5678972005844116,0.5100488662719727,-0.13323931396007538,0.9831151366233826,0.15747098624706268,0.5532942414283752,-0.9693372845649719,0.9889965057373047,0.6328125,0.6399307250976562,-0.28979164361953735,0.9877277612686157,0.24742959439754486,0.4644629955291748,-1.6198099851608276,0.9923585057258606,0.6504743099212646,0.6819264888763428,-0.33437055349349976,0.9748040437698364,0.27145838737487793,0.42880338430404663,-1.7480592727661133,0.9867528676986694,0.6357942819595337,0.6812832951545715,-0.42120516300201416,0.9759182929992676,0.2571742534637451,0.40581953525543213,-1.7577797174453735,0.9863561391830444,0.6245309114456177,0.6724329590797424,-0.3214069902896881,0.9761766195297241,0.25419002771377563,0.4140375256538391,-1.6333597898483276,0.9796297550201416,0.4844421446323395,0.6295856833457947,0.07332295924425125,0.9987179040908813,0.3015764355659485,0.6484515070915222,-0.07319904118776321,0.9988960027694702,0.48317110538482666,0.8369145393371582,0.3574106991291046,0.9710795879364014,0.3371730446815491,0.8710340261459351,0.1626538634300232,0.9813871383666992,0.4852215647697449,0.957043468952179,1.17874014377594,0.9243448376655579,0.35503143072128296,0.9872757792472839,0.8371999859809875,0.9365367293357849,0.4644564986228943,0.9686518907546997,1.2409110069274902,0.8780873417854309,0.35996511578559875,0.9877156615257263,0.8917320370674133,0.7806017398834229,0.5409359335899353,1.0224851369857788,0.9652778506278992,0.8895345330238342,0.3906286656856537,1.0776827335357666,0.5228819251060486,0.8619378805160522
19324.273646711295,0.4231143891811371,0.22812119126319885,-1.1492806673049927,0.9999924898147583,0.4289640486240387,0.20407462120056152,-1.0983691215515137,0.999984622001648,0.4383811056613922,0.20307034254074097,-1.0983672142028809,0.9999850988388062,0.44710564613342285,0.20223313570022583,-1.0982894897460938,0.9999779462814331,0.39518049359321594,0.2048300802707672,-1.1223706007003784,0.9999860525131226,0.3758082985877991,0.2046205997467041,-1.122544288635254,0.9999877214431763,0.3568435311317444,0.20470952987670898,-1.1225652694702148,0.9999839067459106,0.4400458037853241,0.20959940552711487,-0.7436712980270386,0.9999865293502808,0.3081875443458557,0.21497881412506104,-0.8635415434837341,0.9999850988388062,0.43082788586616516,0.252191960811615,-1.013136625289917,0.9999932050704956,0.39488670229911804,0.2544156014919281,-1.0465298891067505,0.9999945163726807,0.5226391553878784,0.3445509970188141,-0.4730832576751709,0.9999227523803711,0.1646609753370285,0.36568084359169006,-0.6621102094650269,0.9997935891151428,0.5701572895050049,0.5093160271644592,-0.1835828721523285,0.9844658374786377,0.15456737577915192,0.5539186000823975,-1.0075689554214478,0.9892153143882751,0.6363874673843384,0.6414210796356201,-0.33729931712150574,0.9868506789207458,0.2516136169433594,0.46947240829467773,-1.675628900527954,0.99014812707901,0.6524268984794617,0.6834688782691956,-0.38177403807640076,0.9726905822753906,0.2786877453327179,0.4326656758785248,-1.8068125247955322,0.9825648665428162,0.6384900808334351,0.6828873157501221,-0.4712318181991577,0.9741283655166626,0.26456886529922485,0.4103434979915619,-1.8144557476043701,0.9821515083312988,0.6280282735824585,0.6738863587379456,-0.3697531819343567,0.9745423197746277,0.26182132959365845,0.4193454086780548,-1.689003825187683,0.9740381240844727,0.48713910579681396,0.6281756162643433,0.06728623807430267,0.9985805749893188,0.3016849756240845,0.6474782824516296,-0.06713028997182846,0.9987976551055908,0.48316383361816406,0.8340571522712708,0.33745068311691284,0.9687995910644531,0.3377726376056671,0.8663815259933472,0.1550501137971878,0.9824371337890625,0.4840754568576813,0.9541577100753784,1.1546661853790283,0.9188878536224365,0.35054871439933777,0.9798301458358765,0.8178278803825378,0.9350866675376892,0.46427544951438904,0.9652320146560669,1.216030240058899,0.8714228272438049,0.3532279431819916,0.9795196652412415,0.8711756467819214,0.7714053392410278,0.5429864525794983,1.0211009979248047,0.9335516095161438,0.8776512145996094,0.3868280053138733,1.076253056526184,0.49982452392578125,0.8510052561759949
19340.940313377963,0.4261190891265869,0.22694841027259827,-1.0902029275894165,0.9999896287918091,0.4312093257904053,0.203668475151062,-1.039116382598877,0.9999793767929077,0.4398190975189209,0.20285791158676147,-1.0391435623168945,0.9999798536300659,0.44791799783706665,0.2020776867866516,-1.039116621017456,0.9999712705612183,0.3978535234928131,0.20420536398887634,-1.0684617757797241,0.9999815225601196,0.3786020576953888,0.20363253355026245,-1.0686492919921875,0.9999833106994629,0.3598194122314453,0.2034921646118164,-1.068700909614563,0.9999781847000122,0.43854719400405884,0.21036604046821594,-0.6882041096687317,0.9999830722808838,0.3098335266113281,0.21470174193382263,-0.8311587572097778,0.9999810457229614,0.4327602982521057,0.2506568729877472,-0.9547280669212341,0.9999915361404419,0.397353857755661,0.25330397486686707,-0.9949936270713806,0.9999929666519165,0.5222398042678833,0.34521305561065674,-0.423723429441452,0.9999076128005981,0.16175991296768188,0.36583054065704346,-0.6393658518791199,0.9997473359107971,0.5712783932685852,0.5100075006484985,-0.13666945695877075,0.9829356670379639,0.15286996960639954,0.5508708953857422,-0.9657860994338989,0.9865453839302063,0.6345887184143066,0.6419143080711365,-0.28089940547943115,0.9844374656677246,0.2538803815841675,0.4690704941749573,-1.5902248620986938,0.9882704019546509,0.650788426399231,0.6846574544906616,-0.32473739981651306,0.9681007862091064,0.2802159786224365,0.4333764910697937,-1.7144767045974731,0.9802899956703186,0.635259747505188,0.6833793520927429,-0.4120482802391052,0.9697475433349609,0.26490795612335205,0.411336213350296,-1.7261055707931519,0.9797423481941223,0.6249881982803345,0.6737139821052551,-0.3126639127731323,0.9703008532524109,0.26202309131622314,0.41986775398254395,-1.6040575504302979,0.9705162644386292,0.4870339334011078,0.6267053484916687,0.06977531313896179,0.9982662796974182,0.2999727129936218,0.6450911164283752,-0.06953982263803482,0.9985843896865845,0.48214492201805115,0.8383539319038391,0.32237082719802856,0.97316575050354,0.3378757834434509,0.8672701716423035,0.13536860048770905,0.9814531803131104,0.48680615425109863,0.9611035585403442,1.1102594137191772,0.9218651652336121,0.35772955417633057,0.9879243969917297,0.7783293724060059,0.9324368834495544,0.4666326940059662,0.9699080586433411,1.1680322885513306,0.8694009184837341,0.3669537305831909,0.9877150058746338,0.8286798000335693,0.7596903443336487,0.5412380695343018,1.026016354560852,0.8812441825866699,0.8753477334976196,0.3862324655056,1.0807089805603027,0.45140713453292847,0.8447550535202026
19357.60698004463,0.4321966767311096,0.22767412662506104,-1.0912278890609741,0.9999911785125732,0.43671709299087524,0.20404869318008423,-1.0418050289154053,0.9999821186065674,0.44465819001197815,0.20320448279380798,-1.041806697845459,0.9999823570251465,0.45174098014831543,0.202470600605011,-1.041763186454773,0.9999744892120361,0.4037099778652191,0.20462709665298462,-1.0762959718704224,0.9999850988388062,0.3848876953125,0.20399576425552368,-1.0765146017074585,0.999987006187439,0.36469680070877075,0.2036576271057129,-1.076572060585022,0.9999833106994629,0.43943890929222107,0.21125566959381104,-0.6982368230819702,0.999984622001648,0.31085339188575745,0.21451744437217712,-0.8643104434013367,0.9999854564666748,0.43794190883636475,0.2503516972064972,-0.9573990702629089,0.9999923706054688,0.4018775224685669,0.2545371651649475,-1.0043041706085205,0.999994158744812,0.5226048231124878,0.3462541401386261,-0.43219271302223206,0.9999099969863892,0.15616214275360107,0.36898040771484375,-0.683883011341095,0.9997953772544861,0.5711215138435364,0.5122214555740356,-0.13857269287109375,0.9825925827026367,0.16081801056861877,0.5572595596313477,-1.0157599449157715,0.9912387728691101,0.6355444192886353,0.642726719379425,-0.2743819057941437,0.9858925938606262,0.2587093412876129,0.46606332063674927,-1.6171424388885498,0.9933091402053833,0.6518898010253906,0.6845764517784119,-0.31351304054260254,0.9709279537200928,0.28511229157447815,0.4277404546737671,-1.7392663955688477,0.9880183935165405,0.6354751586914062,0.6834994554519653,-0.39869746565818787,0.9723538160324097,0.2718034088611603,0.4079749584197998,-1.7446775436401367,0.9876214861869812,0.6248807311058044,0.6741310954093933,-0.30501776933670044,0.9728273749351501,0.2677547037601471,0.4172408878803253,-1.6269521713256836,0.9809611439704895,0.4859125316143036,0.6286734342575073,0.07373350858688354,0.9984138011932373,0.30231791734695435,0.6472688913345337,-0.0735994279384613,0.9987093210220337,0.48126962780952454,0.8417368531227112,0.34589338302612305,0.9695471525192261,0.34037429094314575,0.8686747550964355,0.14670908451080322,0.978863537311554,0.4855242371559143,0.9597566723823547,1.1285769939422607,0.9166997075080872,0.3582706153392792,0.9861339330673218,0.7873635292053223,0.9298847913742065,0.46478572487831116,0.9687391519546509,1.1874182224273682,0.8714432120323181,0.3645818829536438,0.9849141240119934,0.8388636708259583,0.7700436115264893,0.5460527539253235,1.0230603218078613,0.9187191128730774,0.8767051696777344,0.39309799671173096,1.0786011219024658,0.47660863399505615,0.8457903861999512
19374.2736467113,0.4314636290073395,0.228677898645401,-1.0551345348358154,0.999988317489624,0.43661585450172424,0.20519599318504333,-1.0055547952651978,0.9999767541885376,0.4448637068271637,0.2043900489807129,-1.0055962800979614,0.9999775886535645,0.45203012228012085,0.20365369319915771,-1.0055935382843018,0.9999678134918213,0.40360864996910095,0.20564311742782593,-1.0368878841400146,0.9999797344207764,0.3843136131763458,0.204936683177948,-1.0370874404907227,0.9999821186065674,0.3641512989997864,0.20452797412872314,-1.0371383428573608,0.9999768733978271,0.44123387336730957,0.21204566955566406,-0.6635175943374634,0.9999812841415405,0.3112368881702423,0.21500009298324585,-0.8142316341400146,0.999980092048645,0.43730267882347107,0.2518247067928314,-0.9221059679985046,0.9999905824661255,0.4014394283294678,0.2557641267776489,-0.9645940065383911,0.9999922513961792,0.521519660949707,0.3460722863674164,-0.40725454688072205,0.9999058246612549,0.15637901425361633,0.37007179856300354,-0.625863254070282,0.9997473359107971,0.5728040933609009,0.5096962451934814,-0.13140609860420227,0.9835687279701233,0.15816494822502136,0.5562991499900818,-0.9491565823554993,0.9892134070396423,0.6357484459877014,0.6420398354530334,-0.2834695875644684,0.9844276309013367,0.26171109080314636,0.4640600383281708,-1.560370683670044,0.9914920926094055,0.651534914970398,0.6848276853561401,-0.3269907832145691,0.9679876565933228,0.28959065675735474,0.42701011896133423,-1.6807256937026978,0.9851810932159424,0.6359529495239258,0.6833493113517761,-0.4104289710521698,0.9696546196937561,0.2776360511779785,0.40674498677253723,-1.6879326105117798,0.9847529530525208,0.6260548830032349,0.6739097833633423,-0.3137851059436798,0.9702454209327698,0.27270108461380005,0.41522061824798584,-1.5713305473327637,0.9770826101303101,0.48642539978027344,0.6290509104728699,0.06603195518255234,0.9981008172035217,0.3016860783100128,0.6492304801940918,-0.0658205971121788,0.9983868598937988,0.4799764156341553,0.8459039926528931,0.2909521460533142,0.9691876769065857,0.3401602804660797,0.8739154934883118,0.1195852980017662,0.9763762950897217,0.4890832006931305,0.9668287634849548,1.0576649904251099,0.9069151878356934,0.3603675067424774,0.9925680756568909,0.7411076426506042,0.9148205518722534,0.470623254776001,0.9739813804626465,1.113966941833496,0.8529661297798157,0.36717671155929565,0.9904786348342896,0.7901651263237,0.7341875433921814,0.5392777919769287,1.0321604013442993,0.8354312181472778,0.8518334627151489,0.3911292850971222,1.0836148262023926,0.4242658019065857,0.8138877749443054
19390.940313377967,0.4336448013782501,0.22976312041282654,-1.0400649309158325,0.9999897480010986,0.43846410512924194,0.20641404390335083,-0.9903505444526672,0.9999792575836182,0.44611841440200806,0.20550578832626343,-0.9903683066368103,0.9999794960021973,0.45272329449653625,0.20469969511032104,-0.9903267025947571,0.9999710321426392,0.40596380829811096,0.20701172947883606,-1.025282621383667,0.999982476234436,0.3877198398113251,0.20627880096435547,-1.0254875421524048,0.9999843835830688,0.3671775758266449,0.20570233464241028,-1.0255311727523804,0.999980092048645,0.4393572509288788,0.21255534887313843,-0.6510713696479797,0.9999817609786987,0.31266558170318604,0.21610206365585327,-0.819114625453949,0.9999822378158569,0.43838220834732056,0.252329021692276,-0.9082503914833069,0.9999916553497314,0.4037584662437439,0.25662851333618164,-0.955663800239563,0.9999935626983643,0.5189800262451172,0.3462528586387634,-0.3967590034008026,0.999914288520813,0.15676937997341156,0.3708258867263794,-0.6410431265830994,0.9997884631156921,0.5710428357124329,0.5101870894432068,-0.12065139412879944,0.984288215637207,0.16029366850852966,0.5571690201759338,-0.9540422558784485,0.9908158779144287,0.634127140045166,0.6436685919761658,-0.2736343443393707,0.9866594076156616,0.2643485367298126,0.46471869945526123,-1.5343040227890015,0.9930073022842407,0.6509349346160889,0.6858067512512207,-0.31778809428215027,0.9721335172653198,0.29294726252555847,0.42760902643203735,-1.6519869565963745,0.9877204298973083,0.6350359916687012,0.6847471594810486,-0.40041816234588623,0.973581850528717,0.28141891956329346,0.4075900912284851,-1.6584793329238892,0.9873580932617188,0.6242907047271729,0.6752079725265503,-0.3039514720439911,0.9740118384361267,0.2771451473236084,0.4162450432777405,-1.5439157485961914,0.9807230830192566,0.4834364354610443,0.6296303868293762,0.07767028361558914,0.9982730150222778,0.2998816668987274,0.6490392088890076,-0.07751350849866867,0.9985388517379761,0.48022326827049255,0.8421628475189209,0.33237969875335693,0.9645348787307739,0.34061482548713684,0.8708388805389404,0.1282615065574646,0.9761338233947754,0.48488375544548035,0.9609659910202026,1.092007040977478,0.9036608934402466,0.3566368818283081,0.986645519733429,0.7473539710044861,0.9168115258216858,0.46368369460105896,0.9695146083831787,1.1488898992538452,0.8543093800544739,0.36179864406585693,0.9853034019470215,0.7968760132789612,0.7470702528953552,0.5450376868247986,1.0251226425170898,0.8833580017089844,0.8555710315704346,0.3967115879058838,1.0795106887817383,0.43860048055648804,0.8199363350868225
19407.606980044635,0.42656752467155457,0.2275729775428772,-1.0354818105697632,0.9999878406524658,0.43170270323753357,0.20395058393478394,-0.9848373532295227,0.9999762773513794,0.44000792503356934,0.2031860649585724,-0.9848974347114563,0.9999769926071167,0.4477820098400116,0.20245620608329773,-0.9848889708518982,0.9999680519104004,0.39826837182044983,0.20450258255004883,-1.0117350816726685,0.999977707862854,0.37925076484680176,0.20392870903015137,-1.0118921995162964,0.9999792575836182,0.3606172800064087,0.20374184846878052,-1.0119316577911377,0.9999732971191406,0.4373559057712555,0.2105676829814911,-0.6439391374588013,0.9999808073043823,0.31106123328208923,0.21485251188278198,-0.7759687304496765,0.9999750852584839,0.4324522912502289,0.2512185573577881,-0.9044283628463745,0.9999905824661255,0.397668719291687,0.25408273935317993,-0.9414045214653015,0.9999916553497314,0.5224186778068542,0.34632086753845215,-0.40493419766426086,0.9999191761016846,0.16311100125312805,0.3663923740386963,-0.585104763507843,0.999710738658905,0.5705938339233398,0.5108405947685242,-0.150143563747406,0.9851058721542358,0.1553611308336258,0.5531501770019531,-0.9107552766799927,0.9843066930770874,0.6351433992385864,0.6428732872009277,-0.3224383592605591,0.9857118725776672,0.2522909939289093,0.46996909379959106,-1.5474236011505127,0.9867919683456421,0.6508541107177734,0.6850071549415588,-0.3748781681060791,0.9704816937446594,0.28003019094467163,0.4341837763786316,-1.6720805168151855,0.9784412980079651,0.6339019536972046,0.6837700605392456,-0.45945557951927185,0.9719526171684265,0.26574277877807617,0.4118715524673462,-1.6828685998916626,0.9778103828430176,0.623324990272522,0.6743936538696289,-0.3537127673625946,0.9724555611610413,0.26379886269569397,0.42089617252349854,-1.5613998174667358,0.9680389165878296,0.48886755108833313,0.6311973929405212,0.06184679642319679,0.9983537197113037,0.30280861258506775,0.6510953903198242,-0.06155599281191826,0.9985125660896301,0.47990813851356506,0.8453675508499146,0.2836977243423462,0.9671980142593384,0.3402683734893799,0.8743780255317688,0.12575019896030426,0.976935625076294,0.4862534999847412,0.9638775587081909,1.0747963190078735,0.9038708806037903,0.3541018068790436,0.986091673374176,0.7677679061889648,0.9141172170639038,0.46569567918777466,0.9714120626449585,1.1335309743881226,0.8483371734619141,0.3608672320842743,0.9841110706329346,0.8188361525535583,0.7275342345237732,0.5448716878890991,1.0263805389404297,0.8535367846488953,0.847639799118042,0.38324978947639465,1.0800154209136963,0.45322689414024353,0.8107632398605347
19424.273646711303,0.423018217086792,0.22777187824249268,-1.0322825908660889,0.9999866485595703,0.4290776550769806,0.20436006784439087,-0.9796924591064453,0.9999740123748779,0.4383889138698578,0.20363014936447144,-0.9797893166542053,0.9999749660491943,0.4471267759799957,0.20304837822914124,-0.9798174500465393,0.9999654293060303,0.3946009576320648,0.20461732149124146,-1.0044136047363281,0.9999747276306152,0.3753712475299835,0.2040071189403534,-1.0045709609985352,0.9999762773513794,0.35731568932533264,0.20385244488716125,-1.004616618156433,0.9999693632125854,0.4404202103614807,0.2116786539554596,-0.6339285969734192,0.9999797344207764,0.31030699610710144,0.2146517038345337,-0.7559719681739807,0.9999713897705078,0.4305570125579834,0.25174379348754883,-0.8999308347702026,0.9999896287918091,0.3943163752555847,0.253728985786438,-0.9341731071472168,0.9999904632568359,0.5229206681251526,0.345726877450943,-0.4011284410953522,0.9999130964279175,0.16533316671848297,0.3661210834980011,-0.5547356605529785,0.9996531009674072,0.5703504681587219,0.5110170841217041,-0.1515263020992279,0.985163152217865,0.1530628651380539,0.5536395311355591,-0.8837769031524658,0.98031085729599,0.6343376636505127,0.642641007900238,-0.3340146541595459,0.9856964349746704,0.24509744346141815,0.4736286401748657,-1.5561777353286743,0.9847420454025269,0.6505890488624573,0.6847957968711853,-0.39039507508277893,0.9708722233772278,0.27409109473228455,0.43763160705566406,-1.6856886148452759,0.9758654832839966,0.6337066888809204,0.6836204528808594,-0.47684645652770996,0.9723759889602661,0.25934141874313354,0.4147869348526001,-1.6988860368728638,0.975197970867157,0.6228195428848267,0.674079954624176,-0.3659936785697937,0.9726111888885498,0.2568892538547516,0.4226589798927307,-1.5722736120224,0.9644179940223694,0.48801180720329285,0.6310592293739319,0.052964020520448685,0.9983075857162476,0.3017319440841675,0.650607705116272,-0.05268352851271629,0.9984671473503113,0.48021236062049866,0.845671534538269,0.25721636414527893,0.9713270664215088,0.3391405940055847,0.8743698596954346,0.12594448029994965,0.9782302379608154,0.4897651672363281,0.9656535983085632,1.0716114044189453,0.9115105867385864,0.3602657616138458,0.9915311336517334,0.7827668190002441,0.9217373132705688,0.4720117151737213,0.9734751582145691,1.131829023361206,0.850300133228302,0.3696557283401489,0.9902746081352234,0.8346414566040039,0.7297717332839966,0.540729820728302,1.029371976852417,0.8439914584159851,0.8554681539535522,0.3790934681892395,1.0824109315872192,0.4622378647327423,0.8240776062011719
19440.94031337797,0.42902871966362,0.22718122601509094,-1.089881181716919,0.999990701675415,0.43401914834976196,0.20407778024673462,-1.0384925603866577,0.9999815225601196,0.44215041399002075,0.20326492190361023,-1.0384944677352905,0.9999819993972778,0.44961127638816833,0.20249506831169128,-1.038414716720581,0.9999737739562988,0.4013689160346985,0.20452171564102173,-1.0719902515411377,0.9999836683273315,0.3824808895587921,0.20378610491752625,-1.072182059288025,0.9999854564666748,0.3628886938095093,0.2034371793270111,-1.0722322463989258,0.9999804496765137,0.43865495920181274,0.21109572052955627,-0.6878714561462402,0.9999850988388062,0.311264306306839,0.2147272229194641,-0.8505876660346985,0.9999829530715942,0.4349169433116913,0.2504640817642212,-0.9544832110404968,0.9999923706054688,0.4000854194164276,0.25411689281463623,-1.0003798007965088,0.9999935626983643,0.5216442942619324,0.34620431065559387,-0.424761027097702,0.9999260902404785,0.16068880259990692,0.36719053983688354,-0.6664050817489624,0.9997648596763611,0.5703376531600952,0.5115074515342712,-0.12253246456384659,0.9855400919914246,0.1589164286851883,0.5526266098022461,-1.0161676406860352,0.9891923069953918,0.6334369778633118,0.6408767700195312,-0.25481221079826355,0.9890166521072388,0.25550228357315063,0.4651845097541809,-1.650673747062683,0.99172443151474,0.6504136323928833,0.6836681365966797,-0.2935292422771454,0.976699948310852,0.2786392867565155,0.428225576877594,-1.776680588722229,0.9856577515602112,0.6344188451766968,0.6826223731040955,-0.38025256991386414,0.977910041809082,0.26391923427581787,0.40677472949028015,-1.7839359045028687,0.9852177500724792,0.6231202483177185,0.6734614372253418,-0.2854808568954468,0.9781106114387512,0.2613619565963745,0.4152301251888275,-1.662549376487732,0.977635383605957,0.48649758100509644,0.6286486387252808,0.07287837564945221,0.998690664768219,0.30140483379364014,0.6483445167541504,-0.07269645482301712,0.9988468885421753,0.4821396470069885,0.8332681655883789,0.34622064232826233,0.9699994921684265,0.3380886912345886,0.8659263849258423,0.15364380180835724,0.9786685109138489,0.484104722738266,0.9521976113319397,1.1617051362991333,0.9167559146881104,0.3554510474205017,0.980384111404419,0.8219920992851257,0.9294921159744263,0.4651270806789398,0.9638514518737793,1.2233872413635254,0.8754823207855225,0.36015236377716064,0.9789180159568787,0.8759442567825317,0.7718521356582642,0.5422751903533936,1.0172638893127441,0.9495894908905029,0.8761857748031616,0.3842144012451172,1.0741479396820068,0.5086470246315002,0.8453453779220581
19457.60698004464,0.42844510078430176,0.22762703895568848,-1.0581400394439697,0.999988317489624,0.43302828073501587,0.20459771156311035,-1.0056781768798828,0.999977707862854,0.4409126341342926,0.203913152217865,-1.0057103633880615,0.99997878074646,0.44833478331565857,0.2032393515110016,-1.0056819915771484,0.9999699592590332,0.400243878364563,0.20501035451889038,-1.0365279912948608,0.9999798536300659,0.3815292716026306,0.20441237092018127,-1.03670072555542,0.9999819993972778,0.3625667095184326,0.20410746335983276,-1.0367485284805298,0.9999761581420898,0.4368347227573395,0.2112097144126892,-0.653932511806488,0.9999827146530151,0.3113023042678833,0.21503469347953796,-0.8031353950500488,0.9999792575836182,0.4336818754673004,0.250934362411499,-0.9229786396026611,0.9999905824661255,0.3991144299507141,0.25440526008605957,-0.965034008026123,0.9999915361404419,0.5193948149681091,0.3465140461921692,-0.39342308044433594,0.9999189376831055,0.1660320907831192,0.365803062915802,-0.6203548908233643,0.9997296929359436,0.5700610280036926,0.5090256929397583,-0.11463961005210876,0.9845420122146606,0.16050896048545837,0.5522863864898682,-0.9705687165260315,0.9863109588623047,0.6310074925422668,0.6399884819984436,-0.26711782813072205,0.9846885204315186,0.25675103068351746,0.4642403721809387,-1.6173794269561768,0.9873212575912476,0.6485419273376465,0.6832678914070129,-0.31168296933174133,0.9674002528190613,0.28370797634124756,0.43171751499176025,-1.7439597845077515,0.9785162210464478,0.631098747253418,0.6822664141654968,-0.3957766592502594,0.9692118167877197,0.2697746753692627,0.40947115421295166,-1.7542270421981812,0.9778554439544678,0.6199254989624023,0.6730549931526184,-0.2977851331233978,0.9693325757980347,0.2673781216144562,0.4173981547355652,-1.631186842918396,0.9674903750419617,0.48547258973121643,0.6291345953941345,0.07240961492061615,0.9983335137367249,0.3012557029724121,0.6481938362121582,-0.07213110476732254,0.9985215067863464,0.48003950715065,0.8391219973564148,0.2987476885318756,0.9618470072746277,0.33952775597572327,0.8658467531204224,0.11251974105834961,0.9733683466911316,0.48488450050354004,0.9622491002082825,1.054366111755371,0.8981519341468811,0.358875572681427,0.98295658826828,0.7353171110153198,0.9042434692382812,0.46686655282974243,0.9708717465400696,1.1086207628250122,0.8429661393165588,0.3637290596961975,0.9821661114692688,0.7835068106651306,0.7071042060852051,0.5623470544815063,1.031296730041504,0.8143864870071411,0.8420926928520203,0.39172014594078064,1.0783963203430176,0.40644362568855286,0.7966029047966003
19474.273646711306,0.4295634329319,0.22802382707595825,-1.085631012916565,0.9999896287918091,0.4342738091945648,0.2050902545452118,-1.0348769426345825,0.999980092048645,0.4420863091945648,0.20440441370010376,-1.034895420074463,0.9999809265136719,0.44930097460746765,0.20371896028518677,-1.0348681211471558,0.9999730587005615,0.40183186531066895,0.20543619990348816,-1.0661847591400146,0.999982476234436,0.3833399713039398,0.20474925637245178,-1.0663623809814453,0.9999843835830688,0.3639327883720398,0.20435988903045654,-1.0664079189300537,0.9999794960021973,0.43718045949935913,0.21168303489685059,-0.6833834052085876,0.9999842643737793,0.31195059418678284,0.21527263522148132,-0.834889829158783,0.9999819993972778,0.4340970814228058,0.25135672092437744,-0.9497180581092834,0.9999915361404419,0.39979681372642517,0.2550104856491089,-0.9924619793891907,0.9999927282333374,0.5195377469062805,0.346539169549942,-0.4144216775894165,0.9999222755432129,0.16653667390346527,0.3665052056312561,-0.648777961730957,0.9997628331184387,0.5700652599334717,0.5092718601226807,-0.12703298032283783,0.984167754650116,0.16093559563159943,0.5527518391609192,-0.993885338306427,0.9871371984481812,0.631298840045929,0.6402314901351929,-0.2696361243724823,0.9845654368400574,0.2574368119239807,0.4632202386856079,-1.6282436847686768,0.9877712726593018,0.648265540599823,0.6839648485183716,-0.31194138526916504,0.9673196077346802,0.2842118442058563,0.42985835671424866,-1.75407874584198,0.9792189002037048,0.6310629844665527,0.6829503774642944,-0.396583616733551,0.9691283106803894,0.2700619101524353,0.40734970569610596,-1.7634755373001099,0.9785480499267578,0.6201193332672119,0.673534095287323,-0.30015039443969727,0.9692012071609497,0.2676559090614319,0.4154547154903412,-1.6412702798843384,0.9682466387748718,0.48410218954086304,0.6281551122665405,0.07635572552680969,0.9982047080993652,0.3007386028766632,0.6480346322059631,-0.07611170411109924,0.9984460473060608,0.4795910716056824,0.8352550864219666,0.32762467861175537,0.961391270160675,0.338909387588501,0.8649523854255676,0.12119315564632416,0.975976288318634,0.48527151346206665,0.9616987705230713,1.0648003816604614,0.9028897881507874,0.3602282702922821,0.9842320084571838,0.7313963174819946,0.9120926260948181,0.46628180146217346,0.971651554107666,1.1176515817642212,0.8487343192100525,0.3690387010574341,1.0117249488830566,0.7785730957984924,0.7209792733192444,0.5488139390945435,1.0229504108428955,0.8267338871955872,0.8523060083389282,0.397909015417099,1.0798569917678833,0.40266701579093933,0.8087876439094543
19490.940313377974,0.4256158769130707,0.22804340720176697,-1.0333255529403687,0.9999878406524658,0.43121156096458435,0.20531761646270752,-0.9799023866653442,0.9999765157699585,0.4400181472301483,0.20470097661018372,-0.9799339771270752,0.9999775886535645,0.44812846183776855,0.20416727662086487,-0.9798814654350281,0.9999681711196899,0.3978618085384369,0.20552435517311096,-1.0107369422912598,0.99997878074646,0.37869900465011597,0.20501172542572021,-1.010875940322876,0.9999810457229614,0.3603534698486328,0.2048337757587433,-1.0109196901321411,0.9999744892120361,0.43919116258621216,0.2123596966266632,-0.6280395984649658,0.9999817609786987,0.3111574351787567,0.215133935213089,-0.7768404483795166,0.9999781847000122,0.4320487380027771,0.25157102942466736,-0.8988048434257507,0.9999902248382568,0.3966808021068573,0.254311203956604,-0.9407153725624084,0.9999910593032837,0.518686056137085,0.34579676389694214,-0.36433157324790955,0.999919056892395,0.16740787029266357,0.36610865592956543,-0.6030017733573914,0.9997492432594299,0.5704161524772644,0.5085287094116211,-0.07186160981655121,0.9824135303497314,0.16222243010997772,0.5479246973991394,-0.949385404586792,0.9839836359024048,0.6299630403518677,0.6383873224258423,-0.21355006098747253,0.9835692048072815,0.2523635923862457,0.4664434790611267,-1.5963795185089111,0.9861935973167419,0.6471781730651855,0.6832062005996704,-0.25507229566574097,0.9660132527351379,0.2812381386756897,0.43365639448165894,-1.7228777408599854,0.9776096343994141,0.6306891441345215,0.6824362277984619,-0.33891576528549194,0.9678636789321899,0.26485109329223633,0.4100748896598816,-1.737154483795166,0.9768313765525818,0.6197367906570435,0.6726406216621399,-0.24406524002552032,0.9682364463806152,0.26177725195884705,0.4183681905269623,-1.6122219562530518,0.966265857219696,0.4832620620727539,0.6274572610855103,0.08088064193725586,0.9984464049339294,0.3017241954803467,0.6468822360038757,-0.08058524876832962,0.9986732006072998,0.4792357385158539,0.8314276933670044,0.3317747414112091,0.9610995054244995,0.3387598991394043,0.861335813999176,0.12095320969820023,0.9761576652526855,0.48477208614349365,0.9624165892601013,1.0703657865524292,0.904026448726654,0.3609803020954132,0.9848612546920776,0.7404265999794006,0.9127005338668823,0.46674486994743347,0.973961591720581,1.1224924325942993,0.8516331911087036,0.3654850125312805,0.9846405982971191,0.7878007888793945,0.7259821891784668,0.5498501062393188,1.0221482515335083,0.8288764953613281,0.852421224117279,0.39431285858154297,1.0788354873657227,0.4104439318180084,0.8114259839057922
19507.606980044642,0.42584139108657837,0.22636032104492188,-1.0814921855926514,0.9999901056289673,0.4314391016960144,0.2029222846031189,-1.029917597770691,0.9999809265136719,0.4398913085460663,0.20218577980995178,-1.0299354791641235,0.9999821186065674,0.4477996230125427,0.20152026414871216,-1.0299146175384521,0.9999740123748779,0.39775747060775757,0.20366206765174866,-1.059241533279419,0.9999821186065674,0.3786662817001343,0.20327621698379517,-1.059393286705017,0.9999842643737793,0.36005282402038574,0.20328709483146667,-1.0594288110733032,0.9999783039093018,0.4386327564716339,0.21064543724060059,-0.6823843121528625,0.999985933303833,0.31041499972343445,0.21494367718696594,-0.8244146704673767,0.9999822378158569,0.4322715699672699,0.24981673061847687,-0.947924792766571,0.9999922513961792,0.396532267332077,0.2535191774368286,-0.9879543781280518,0.9999926090240479,0.5226081609725952,0.3461567461490631,-0.4155864119529724,0.9999240636825562,0.16598708927631378,0.36689436435699463,-0.6418291330337524,0.9997541308403015,0.5694808959960938,0.5093709826469421,-0.11294708400964737,0.9835699200630188,0.156136617064476,0.5502406358718872,-0.9872364401817322,0.9856546521186829,0.6280374526977539,0.6390365958213806,-0.2362026870250702,0.9844473600387573,0.25059568881988525,0.4698464274406433,-1.63399076461792,0.9871172308921814,0.6464152336120605,0.68357253074646,-0.27331241965293884,0.9676443934440613,0.27776676416397095,0.43646037578582764,-1.7603392601013184,0.9785293340682983,0.6311978697776794,0.6825202703475952,-0.3582986891269684,0.9694874882698059,0.26296448707580566,0.4116934537887573,-1.7728019952774048,0.9778366088867188,0.6202774047851562,0.6725584864616394,-0.26658913493156433,0.9701372385025024,0.26019546389579773,0.4201262593269348,-1.6495000123977661,0.9679513573646545,0.4837476909160614,0.6246538758277893,0.06974730640649796,0.9986530542373657,0.2988695502281189,0.643347442150116,-0.0694960430264473,0.9988096952438354,0.4801757335662842,0.833107054233551,0.3028983771800995,0.9697179198265076,0.3375296890735626,0.8615190386772156,0.12351534515619278,0.9800351858139038,0.48560503125190735,0.9658688306808472,1.0571571588516235,0.9179596304893494,0.36387938261032104,0.9849420785903931,0.7534295916557312,0.925910472869873,0.46675801277160645,0.9749459624290466,1.1104735136032104,0.8658117651939392,0.36990705132484436,0.9847434759140015,0.8016716837882996,0.7450358271598816,0.5690132975578308,1.031498670578003,0.8161340951919556,0.8705878853797913,0.3899523615837097,1.0763044357299805,0.42605113983154297,0.8366894125938416
19524.27364671131,0.4252345860004425,0.22711491584777832,-1.1400917768478394,0.9999923706054688,0.43091171979904175,0.20378613471984863,-1.0890592336654663,0.9999847412109375,0.4398508667945862,0.20286360383033752,-1.0890581607818604,0.9999855756759644,0.44807901978492737,0.20202651619911194,-1.0890189409255981,0.9999786615371704,0.3971126079559326,0.20494860410690308,-1.1152026653289795,0.9999860525131226,0.3777121901512146,0.20482739806175232,-1.1153792142868042,0.9999878406524658,0.35916438698768616,0.20511358976364136,-1.1154073476791382,0.999983549118042,0.44000881910324097,0.21130335330963135,-0.7395612001419067,0.9999884366989136,0.31021714210510254,0.21632513403892517,-0.8663432598114014,0.9999862909317017,0.43302711844444275,0.25055739283561707,-1.0058610439300537,0.9999935626983643,0.39644238352775574,0.2540184259414673,-1.0414743423461914,0.999994158744812,0.5237367749214172,0.34608516097068787,-0.46497225761413574,0.9999154806137085,0.16729013621807098,0.36871740221977234,-0.6750637292861938,0.9997695088386536,0.5708078742027283,0.5090993642807007,-0.16706375777721405,0.9819254875183105,0.15679974853992462,0.5557265281677246,-1.0235908031463623,0.988205075263977,0.6297237873077393,0.6405697464942932,-0.2904777228832245,0.9822179675102234,0.25562506914138794,0.46710675954818726,-1.6719521284103394,0.9882680773735046,0.6464037895202637,0.683036208152771,-0.32675594091415405,0.9631564021110535,0.28229063749313354,0.43289676308631897,-1.798514723777771,0.9792962074279785,0.6325736045837402,0.6823522448539734,-0.4116904139518738,0.9650301933288574,0.26868218183517456,0.410833477973938,-1.805068016052246,0.9783931970596313,0.6224827766418457,0.6724256873130798,-0.32054948806762695,0.9659410715103149,0.26459255814552307,0.41888365149497986,-1.6849344968795776,0.9683591723442078,0.4867118000984192,0.6250471472740173,0.06615186482667923,0.9986629486083984,0.30399587750434875,0.6445484161376953,-0.06594793498516083,0.9989074468612671,0.4806746542453766,0.8318057060241699,0.3188686966896057,0.9759398698806763,0.3386341631412506,0.8627281188964844,0.1428019255399704,0.9860763549804688,0.48623186349868774,0.966056764125824,1.0920296907424927,0.9367706775665283,0.36186885833740234,0.9866536259651184,0.7848579287528992,0.9464415907859802,0.4681134521961212,0.9769834280014038,1.1473639011383057,0.8881123065948486,0.3690515160560608,0.9885274171829224,0.8343577980995178,0.7840591669082642,0.5533731579780579,1.0253839492797852,0.8519344329833984,0.8997929096221924,0.39339232444763184,1.0760798454284668,0.45681989192962646,0.8735395073890686
19540.940313377978,0.42724156379699707,0.228131502866745,-1.0743359327316284,0.9999881982803345,0.4320625960826874,0.20499461889266968,-1.021518349647522,0.9999756813049316,0.4408605098724365,0.20410677790641785,-1.021549105644226,0.9999761581420898,0.4489511251449585,0.20324647426605225,-1.0214849710464478,0.999966025352478,0.3985194265842438,0.20546409487724304,-1.0504319667816162,0.9999783039093018,0.3789306879043579,0.2048836648464203,-1.050634741783142,0.9999803304672241,0.36022165417671204,0.20487627387046814,-1.050703525543213,0.9999746084213257,0.4402124583721161,0.21111002564430237,-0.6693222522735596,0.9999785423278809,0.31121399998664856,0.21594107151031494,-0.8103539943695068,0.9999759197235107,0.43459224700927734,0.2518967092037201,-0.9397967457771301,0.9999899864196777,0.3997974395751953,0.254351943731308,-0.9794555306434631,0.9999916553497314,0.5218122005462646,0.34691953659057617,-0.40390247106552124,0.9998995065689087,0.16644546389579773,0.3672075867652893,-0.6236164569854736,0.9997451901435852,0.565719485282898,0.5077804327011108,-0.1243191659450531,0.9818757176399231,0.1604229062795639,0.5513885617256165,-0.9475867748260498,0.9864382743835449,0.6303092241287231,0.6409056186676025,-0.28913015127182007,0.984396755695343,0.2543960511684418,0.46762585639953613,-1.5825600624084473,0.9883497953414917,0.6460326313972473,0.6828126311302185,-0.3354105055332184,0.9677553772926331,0.28097304701805115,0.43137791752815247,-1.7085239887237549,0.9804020524024963,0.6330091953277588,0.6826376914978027,-0.4228708744049072,0.9695650339126587,0.2658498287200928,0.4094974994659424,-1.720362663269043,0.9798601269721985,0.6227074861526489,0.6730290651321411,-0.3216836750507355,0.969900906085968,0.2628905177116394,0.4178084135055542,-1.5967837572097778,0.9703727960586548,0.48697972297668457,0.6267516613006592,0.07923570275306702,0.9982447624206543,0.3047895133495331,0.6465091109275818,-0.07903343439102173,0.9986127614974976,0.4843161106109619,0.83356773853302,0.33088719844818115,0.9688273668289185,0.3395450711250305,0.8701291084289551,0.1178658977150917,0.9812507033348083,0.4867376387119293,0.9544813632965088,1.1320496797561646,0.9160759449005127,0.35521000623703003,0.9868174195289612,0.7701984643936157,0.932807981967926,0.466045618057251,0.9647089242935181,1.1916500329971313,0.8649089932441711,0.3573474586009979,0.9872594475746155,0.8211512565612793,0.7512878179550171,0.5461835861206055,1.0172981023788452,0.9033353924751282,0.8789038062095642,0.3945402503013611,1.0792632102966309,0.43617966771125793,0.850487232208252
19557.606980044646,0.4266439378261566,0.2293422520160675,-1.1134049892425537,0.9999904632568359,0.4317609965801239,0.20584875345230103,-1.062956690788269,0.9999815225601196,0.44055747985839844,0.20502838492393494,-1.062997817993164,0.9999819993972778,0.448648065328598,0.20430651307106018,-1.0629581212997437,0.9999740123748779,0.39872708916664124,0.20626282691955566,-1.0913141965866089,0.9999831914901733,0.37951764464378357,0.20578521490097046,-1.091525912284851,0.9999850988388062,0.3607123792171478,0.20561686158180237,-1.0916070938110352,0.9999804496765137,0.4389997720718384,0.2119634747505188,-0.7060663104057312,0.999984860420227,0.3110847771167755,0.21565043926239014,-0.8440194129943848,0.9999836683273315,0.4326751232147217,0.25318291783332825,-0.974932849407196,0.9999924898147583,0.39794790744781494,0.25573214888572693,-1.0138006210327148,0.9999938011169434,0.5234264135360718,0.3464154005050659,-0.42728400230407715,0.9999322891235352,0.16160836815834045,0.36654049158096313,-0.648135781288147,0.9998044371604919,0.5679051876068115,0.5107485055923462,-0.12963522970676422,0.9848055243492126,0.1543768346309662,0.5530568957328796,-0.9831642508506775,0.9891728162765503,0.6300874948501587,0.6409927606582642,-0.2858451008796692,0.9876095056533813,0.2509084939956665,0.4709053039550781,-1.640834093093872,0.9907450675964355,0.6467105150222778,0.6835328340530396,-0.3324999511241913,0.9741515517234802,0.2783946990966797,0.43911975622177124,-1.7709336280822754,0.983946681022644,0.630099892616272,0.6825922131538391,-0.4204159677028656,0.9756799340248108,0.26272016763687134,0.4157446026802063,-1.7852773666381836,0.9836596250534058,0.6192108392715454,0.6733633279800415,-0.3176196217536926,0.9754501581192017,0.2587401270866394,0.42347171902656555,-1.6560087203979492,0.9759200811386108,0.48536768555641174,0.6283575892448425,0.07315845787525177,0.9982898831367493,0.29943200945854187,0.6476853489875793,-0.07294511795043945,0.9985384941101074,0.48004430532455444,0.8394371867179871,0.3167232573032379,0.9631611704826355,0.3399769961833954,0.8700133562088013,0.12532401084899902,0.9744035601615906,0.4880409836769104,0.9637362957000732,1.1059528589248657,0.8944370150566101,0.36505699157714844,0.9873067140579224,0.7669497132301331,0.9062673449516296,0.47101011872291565,0.9708770513534546,1.1640336513519287,0.841012179851532,0.3703937530517578,1.0172207355499268,0.8175884485244751,0.7180468440055847,0.5457642078399658,1.0272581577301025,0.8706052899360657,0.8418679237365723,0.39893385767936707,1.0861117839813232,0.4343491494655609,0.800679087638855
19574.273646711314,0.4220128357410431,0.22922903299331665,-1.0870879888534546,0.9999927282333374,0.4290741980075836,0.2066880464553833,-1.036911129951477,0.9999850988388062,0.43904590606689453,0.20623436570167542,-1.0369282960891724,0.9999855756759644,0.4485868513584137,0.2060537040233612,-1.0368479490280151,0.9999786615371704,0.3947410583496094,0.2060290277004242,-1.0602984428405762,0.9999867677688599,0.37571534514427185,0.2054203450679779,-1.0604536533355713,0.999988317489624,0.35704734921455383,0.2053200602531433,-1.0604737997055054,0.999984622001648,0.44362741708755493,0.2138107717037201,-0.6905748844146729,0.9999874830245972,0.30944761633872986,0.2151123583316803,-0.8071531653404236,0.9999866485595703,0.42882758378982544,0.25326526165008545,-0.9542286396026611,0.9999936819076538,0.39192530512809753,0.2547597587108612,-0.9867323040962219,0.9999948740005493,0.5227214097976685,0.34474092721939087,-0.4309247136116028,0.9999313354492188,0.16371485590934753,0.36582502722740173,-0.610957682132721,0.9998180270195007,0.5696375966072083,0.5084800720214844,-0.142973855137825,0.9859917759895325,0.14980065822601318,0.5517513751983643,-0.9543140530586243,0.9893185496330261,0.630324125289917,0.6415433287620544,-0.2909482419490814,0.9869074821472168,0.24810707569122314,0.46904921531677246,-1.626845359802246,0.9902605414390564,0.6465961337089539,0.6837446093559265,-0.33542367815971375,0.9725144505500793,0.2788302004337311,0.43616020679473877,-1.7561146020889282,0.9828847646713257,0.6325892210006714,0.6834398508071899,-0.4214836359024048,0.9738658666610718,0.2645615339279175,0.4127827286720276,-1.7662229537963867,0.9824346899986267,0.6219305992126465,0.6744867563247681,-0.3217548429965973,0.9742251038551331,0.25952547788619995,0.42015913128852844,-1.6411933898925781,0.9747033715248108,0.48390284180641174,0.6294082999229431,0.0624874010682106,0.998544454574585,0.29963812232017517,0.6473450660705566,-0.06224443390965462,0.9987890124320984,0.4807959496974945,0.8372954726219177,0.31458520889282227,0.9689317345619202,0.3399215340614319,0.865923285484314,0.1421210765838623,0.9805230498313904,0.4860065281391144,0.96135014295578,1.0758179426193237,0.9168546795845032,0.36248183250427246,0.9820986986160278,0.7607950568199158,0.9262228608131409,0.4694948196411133,0.9709539413452148,1.1308995485305786,0.8672144412994385,0.36798909306526184,0.980565071105957,0.809360146522522,0.7584964632987976,0.5474528074264526,1.0206847190856934,0.8456571698188782,0.8662746548652649,0.390167236328125,1.0782647132873535,0.4409995973110199,0.8300695419311523
19590.94031337798,0.42183852195739746,0.22746452689170837,-1.040414810180664,0.9999862909317017,0.428453654050827,0.20379683375358582,-0.9878208041191101,0.9999736547470093,0.4382671117782593,0.20319485664367676,-0.9878929257392883,0.9999749660491943,0.4477558732032776,0.20280250906944275,-0.9878909587860107,0.9999649524688721,0.39455461502075195,0.20380359888076782,-1.0124256610870361,0.9999752044677734,0.3758120536804199,0.20344549417495728,-1.0125783681869507,0.9999772310256958,0.3569090962409973,0.2035534679889679,-1.0126124620437622,0.9999701976776123,0.44274449348449707,0.21088173985481262,-0.6382694840431213,0.9999791383743286,0.31029248237609863,0.2137003242969513,-0.7594851851463318,0.9999725818634033,0.4290529489517212,0.25182557106018066,-0.9069789052009583,0.9999886751174927,0.39202913641929626,0.25327181816101074,-0.9409598112106323,0.9999898672103882,0.5213687419891357,0.3452361822128296,-0.3905528485774994,0.9999004602432251,0.16464659571647644,0.36490440368652344,-0.5589109063148499,0.9996675252914429,0.5689501762390137,0.5078984498977661,-0.1288725584745407,0.9833536148071289,0.15624843537807465,0.5498969554901123,-0.8869436979293823,0.9804028272628784,0.6292140483856201,0.6400014162063599,-0.3044254183769226,0.9817889332771301,0.25338292121887207,0.4696040749549866,-1.5564064979553223,0.9806073904037476,0.646414041519165,0.6818361282348633,-0.35647082328796387,0.9624300599098206,0.2782130241394043,0.4371826946735382,-1.6844638586044312,0.9687740802764893,0.6301676034927368,0.6814242005348206,-0.44301289319992065,0.9644883871078491,0.2633684575557709,0.41430994868278503,-1.6969460248947144,0.9678128361701965,0.618701696395874,0.6722187399864197,-0.33675020933151245,0.9648821353912354,0.2604101896286011,0.4207195043563843,-1.5722403526306152,0.9546818733215332,0.4857422113418579,0.6260747313499451,0.061496514827013016,0.9978440999984741,0.2994576692581177,0.6456834673881531,-0.06115194410085678,0.9981726408004761,0.4810350239276886,0.8362518548965454,0.26262685656547546,0.9648043513298035,0.3379085063934326,0.8676007986068726,0.10266564786434174,0.9765461683273315,0.48859286308288574,0.9650416374206543,1.0242375135421753,0.89808589220047,0.36422234773635864,0.9854278564453125,0.7189650535583496,0.9078715443611145,0.4716630280017853,0.9724212884902954,1.0783679485321045,0.830482006072998,0.3716110289096832,0.982841432094574,0.7657172679901123,0.69508957862854,0.5443863868713379,1.0297266244888306,0.7757031917572021,0.835242509841919,0.39070117473602295,1.0826504230499268,0.3805725574493408,0.7942759394645691
19607.60698004465,0.4297886788845062,0.22782263159751892,-1.1234521865844727,0.9999903440475464,0.43431147933006287,0.20417305827140808,-1.0734444856643677,0.9999809265136719,0.44239354133605957,0.20327502489089966,-1.0734517574310303,0.9999812841415405,0.4497848451137543,0.2024231255054474,-1.0733932256698608,0.9999725818634033,0.4009118974208832,0.20524638891220093,-1.1049199104309082,0.999983549118042,0.38189294934272766,0.20505088567733765,-1.1051275730133057,0.9999856948852539,0.3623674511909485,0.2052386999130249,-1.1052097082138062,0.999981164932251,0.4393270015716553,0.21151718497276306,-0.7176649570465088,0.9999840259552002,0.3117228150367737,0.21667009592056274,-0.8698770403862,0.9999847412109375,0.4360395669937134,0.25151488184928894,-0.985172688961029,0.9999921321868896,0.400521844625473,0.2552758753299713,-1.0280377864837646,0.9999936819076538,0.5234746932983398,0.34673425555229187,-0.42895787954330444,0.9999188184738159,0.16416916251182556,0.36698803305625916,-0.6816128492355347,0.999806821346283,0.5691845417022705,0.511063277721405,-0.11634054780006409,0.9829513430595398,0.15552231669425964,0.5513654351234436,-1.015775442123413,0.9900659322738647,0.6287111043930054,0.6424721479415894,-0.2525028884410858,0.9858006834983826,0.24930037558078766,0.46847712993621826,-1.649549961090088,0.9915533661842346,0.6463614702224731,0.6841747760772705,-0.2919338047504425,0.9709075093269348,0.27493250370025635,0.43433594703674316,-1.7764338254928589,0.9853513240814209,0.6305652856826782,0.6837747693061829,-0.37967488169670105,0.9726465940475464,0.26089608669281006,0.41183918714523315,-1.7906168699264526,0.9851117730140686,0.6193569898605347,0.6744278073310852,-0.2840215861797333,0.9730244278907776,0.2576248049736023,0.42009735107421875,-1.6640411615371704,0.9778918027877808,0.48708876967430115,0.6259158849716187,0.0791623666882515,0.9982998967170715,0.3037204444408417,0.6447588801383972,-0.07895050942897797,0.998634397983551,0.481452077627182,0.8340978622436523,0.34925389289855957,0.9652108550071716,0.3383095860481262,0.8592541217803955,0.129729762673378,0.9766265749931335,0.48366838693618774,0.9600238800048828,1.1087058782577515,0.907245934009552,0.3571372628211975,0.986670732498169,0.7561624646186829,0.9158312082290649,0.46345680952072144,0.9689779877662659,1.1638143062591553,0.8613946437835693,0.3620936870574951,0.9881098866462708,0.8050830960273743,0.7376312613487244,0.5408608317375183,1.0221532583236694,0.8752204775810242,0.8605031371116638,0.3893156051635742,1.0796042680740356,0.42496028542518616,0.8163807988166809
19624.273646711317,0.42925381660461426,0.22759902477264404,-1.1193138360977173,0.9999909400939941,0.43403494358062744,0.2034623920917511,-1.0694944858551025,0.9999818801879883,0.4423922598361969,0.20266756415367126,-1.0694934129714966,0.9999829530715942,0.449898362159729,0.20202279090881348,-1.0694254636764526,0.9999747276306152,0.40056225657463074,0.20447000861167908,-1.0994337797164917,0.9999834299087524,0.38120508193969727,0.20418640971183777,-1.0996122360229492,0.9999856948852539,0.3614144027233124,0.20427635312080383,-1.0996692180633545,0.9999805688858032,0.43968987464904785,0.21205252408981323,-0.7201745510101318,0.9999861717224121,0.30858153104782104,0.2158806324005127,-0.8655753135681152,0.9999836683273315,0.4361649453639984,0.25086790323257446,-0.9841596484184265,0.999992847442627,0.3993663787841797,0.25550732016563416,-1.0250271558761597,0.9999938011169434,0.5218061208724976,0.34743794798851013,-0.4445023834705353,0.9999330043792725,0.16789458692073822,0.36781805753707886,-0.6784586310386658,0.9997872710227966,0.5680679082870483,0.5102534890174866,-0.14250963926315308,0.9857608675956726,0.15816840529441833,0.5556509494781494,-1.0341492891311646,0.9906023740768433,0.6295161247253418,0.6439138054847717,-0.27504292130470276,0.9887159466743469,0.25550684332847595,0.4603499174118042,-1.683837890625,0.992708683013916,0.6458483934402466,0.6863135695457458,-0.31433194875717163,0.9759481549263,0.27977505326271057,0.4271863102912903,-1.8115979433059692,0.9870228171348572,0.6290420293807983,0.6847001314163208,-0.3992674946784973,0.977251410484314,0.26510709524154663,0.4047946333885193,-1.8194636106491089,0.9865918755531311,0.6183831691741943,0.6754562854766846,-0.3049473464488983,0.9773683547973633,0.26259860396385193,0.4124772548675537,-1.6964201927185059,0.9797487854957581,0.4842110574245453,0.6287525296211243,0.07525013387203217,0.9986178874969482,0.30082380771636963,0.648564875125885,-0.07506969571113586,0.9987595081329346,0.4810648560523987,0.8341909050941467,0.3380323350429535,0.9646077156066895,0.34050142765045166,0.8641314506530762,0.13802564144134521,0.9773802161216736,0.4855670928955078,0.9609782099723816,1.1081393957138062,0.9089187383651733,0.36163803935050964,0.9815989136695862,0.7744236588478088,0.917837381362915,0.4674994945526123,0.9707460999488831,1.1642961502075195,0.8620366454124451,0.36590176820755005,0.9809920787811279,0.8248491287231445,0.7460811734199524,0.5484213829040527,1.021038293838501,0.8789083361625671,0.8607422709465027,0.3950425982475281,1.0772989988327026,0.45304349064826965,0.8214356899261475
19640.940313377985,0.4299614131450653,0.22996973991394043,-1.0568643808364868,0.9999898672103882,0.4350337088108063,0.20672312378883362,-1.0091748237609863,0.9999798536300659,0.4431459605693817,0.2058032751083374,-1.0091873407363892,0.9999809265136719,0.4504602253437042,0.20484131574630737,-1.009155035018921,0.9999723434448242,0.4022732973098755,0.20743590593338013,-1.0393511056900024,0.9999817609786987,0.3831966817378998,0.20700958371162415,-1.0395252704620361,0.9999839067459106,0.36354950070381165,0.20683875679969788,-1.039575457572937,0.9999784231185913,0.43917661905288696,0.21216970682144165,-0.6695876717567444,0.9999842643737793,0.31209856271743774,0.21707671880722046,-0.8153480291366577,0.9999818801879883,0.4353315830230713,0.25342026352882385,-0.9244364500045776,0.9999915361404419,0.4009971022605896,0.2568688988685608,-0.9654488563537598,0.9999923706054688,0.5216094851493835,0.3462042808532715,-0.4010665714740753,0.9999274015426636,0.1664416790008545,0.3667147159576416,-0.634006142616272,0.9997733235359192,0.568334698677063,0.5090487599372864,-0.10747570544481277,0.984343409538269,0.16503390669822693,0.5540355443954468,-0.9815794229507446,0.9887569546699524,0.6276777386665344,0.640792191028595,-0.23400326073169708,0.9872583746910095,0.2578783333301544,0.46193039417266846,-1.6138333082199097,0.9913205504417419,0.6454494595527649,0.6828987002372742,-0.27034422755241394,0.9731717109680176,0.2827610671520233,0.4259670376777649,-1.7364331483840942,0.9850560426712036,0.6287065744400024,0.682241678237915,-0.3547591269016266,0.9746583104133606,0.2699929177761078,0.4054867625236511,-1.7465332746505737,0.9846484661102295,0.6174293756484985,0.6730419397354126,-0.26406189799308777,0.9749235510826111,0.2675171494483948,0.41365188360214233,-1.6272183656692505,0.9773223400115967,0.48708513379096985,0.6245999932289124,0.07065539807081223,0.998389482498169,0.3020414412021637,0.6434679627418518,-0.07041656225919724,0.9986010193824768,0.479388952255249,0.8347200155258179,0.3017643392086029,0.9695391654968262,0.3385172486305237,0.8633363842964172,0.11363596469163895,0.9773049354553223,0.4865686595439911,0.9671356081962585,1.0146262645721436,0.915475070476532,0.3607969284057617,0.9887790083885193,0.7003943920135498,0.9175121188163757,0.46839097142219543,0.9754515290260315,1.0645445585250854,0.8625003099441528,0.3679274618625641,0.9901030659675598,0.745221734046936,0.7361117005348206,0.5410436391830444,1.0280588865280151,0.7771540880203247,0.8607760667800903,0.38748788833618164,1.0785259008407593,0.3763721287250519,0.817075788974762
19657.606980044653,0.42759233713150024,0.22891724109649658,-1.123617172241211,0.9999889135360718,0.4331435263156891,0.20571017265319824,-1.073214054107666,0.9999765157699585,0.4419839680194855,0.20483723282814026,-1.0732320547103882,0.9999772310256958,0.44979342818260193,0.20396921038627625,-1.0731821060180664,0.9999668598175049,0.3998722434043884,0.2061387300491333,-1.1010452508926392,0.9999791383743286,0.3804585933685303,0.20546528697013855,-1.1012606620788574,0.9999815225601196,0.3612388074398041,0.2053023874759674,-1.1013267040252686,0.9999760389328003,0.4406105875968933,0.2120843529701233,-0.7239457368850708,0.9999797344207764,0.3116217851638794,0.21600216627120972,-0.8595604300498962,0.9999771118164062,0.4340369701385498,0.2531086504459381,-0.9892695546150208,0.9999903440475464,0.40000849962234497,0.25571054220199585,-1.027400255203247,0.9999920129776001,0.5221074819564819,0.3466646075248718,-0.4495844542980194,0.9998972415924072,0.1653124988079071,0.367450475692749,-0.6634387373924255,0.9997565150260925,0.5696026086807251,0.5111083984375,-0.1622212827205658,0.9825363159179688,0.16223332285881042,0.5536437034606934,-0.9867699146270752,0.9881346225738525,0.6283220052719116,0.6439899802207947,-0.3144223988056183,0.9844560623168945,0.26128941774368286,0.46668997406959534,-1.625514268875122,0.9906863570213318,0.6449480056762695,0.6857163310050964,-0.3579889237880707,0.9676913022994995,0.28356999158859253,0.43093615770339966,-1.7525840997695923,0.9840230941772461,0.6289032697677612,0.6851954460144043,-0.4454629719257355,0.9693253040313721,0.2676416337490082,0.40943658351898193,-1.7633150815963745,0.9834995269775391,0.618080735206604,0.6747719049453735,-0.3459802269935608,0.9696304798126221,0.26596957445144653,0.4178902506828308,-1.639061450958252,0.9750799536705017,0.4858114421367645,0.6271113157272339,0.07489433884620667,0.9982926249504089,0.3033127784729004,0.6441208720207214,-0.07475870102643967,0.9986609220504761,0.4809337556362152,0.8349753618240356,0.33363208174705505,0.969856858253479,0.33784303069114685,0.8660138845443726,0.12436371296644211,0.9823180437088013,0.48441454768180847,0.9601642489433289,1.1140884160995483,0.9201598763465881,0.3578791916370392,0.9887974262237549,0.7651770114898682,0.9359126091003418,0.4643096327781677,0.969589352607727,1.1713271141052246,0.8695239424705505,0.3631024956703186,0.9892581701278687,0.8150165677070618,0.7579706311225891,0.5422371625900269,1.021873116493225,0.8820376396179199,0.8849154114723206,0.39122501015663147,1.0785191059112549,0.4332346022129059,0.8571036458015442
19674.27364671132,0.42987000942230225,0.22822394967079163,-1.048567533493042,0.999991774559021,0.4346759617328644,0.20528638362884521,-0.9997150897979736,0.9999833106994629,0.4428194463253021,0.2044232189655304,-0.9997031688690186,0.9999843835830688,0.4500318765640259,0.20353764295578003,-0.9996251463890076,0.9999772310256958,0.4020247459411621,0.20594149827957153,-1.0298395156860352,0.9999847412109375,0.38319650292396545,0.2054235339164734,-1.0300053358078003,0.9999867677688599,0.3636510968208313,0.20530319213867188,-1.0300427675247192,0.9999819993972778,0.43879517912864685,0.21205738186836243,-0.6691761612892151,0.9999867677688599,0.3118762969970703,0.21647778153419495,-0.8153936862945557,0.9999834299087524,0.43560051918029785,0.251760333776474,-0.9215912818908691,0.9999929666519165,0.4012083411216736,0.2551631033420563,-0.9626218676567078,0.9999934434890747,0.5207754373550415,0.34734952449798584,-0.4151039719581604,0.999920129776001,0.16603758931159973,0.3678373098373413,-0.6486839652061462,0.9997630715370178,0.5673603415489197,0.5100605487823486,-0.1321353316307068,0.9830328822135925,0.17192389070987701,0.5530852675437927,-0.9943545460700989,0.9882727265357971,0.6246689558029175,0.6416832804679871,-0.25093963742256165,0.9869160652160645,0.26359856128692627,0.4623141884803772,-1.6122344732284546,0.9911651015281677,0.6438916325569153,0.6829943656921387,-0.2860134243965149,0.9724252820014954,0.2855161726474762,0.4258059561252594,-1.7325950860977173,0.985173761844635,0.6277687549591064,0.6827035546302795,-0.36599457263946533,0.9738465547561646,0.2712734341621399,0.4048701822757721,-1.7421455383300781,0.9846504926681519,0.6159798502922058,0.6731181740760803,-0.2792224884033203,0.974210262298584,0.2696649432182312,0.41323694586753845,-1.6255545616149902,0.9773034453392029,0.48705872893333435,0.6238734722137451,0.07607025653123856,0.9984965324401855,0.3056796193122864,0.6429466009140015,-0.07587017863988876,0.9987366795539856,0.48023274540901184,0.8288973569869995,0.34283512830734253,0.9651575684547424,0.34003570675849915,0.8590443730354309,0.12984319031238556,0.9788007140159607,0.4822002351284027,0.9590363502502441,1.048132061958313,0.9149848818778992,0.3547198474407196,0.9844343662261963,0.7146335244178772,0.9233675003051758,0.4611198604106903,0.9689976572990417,1.0982905626296997,0.8658360242843628,0.3622480034828186,1.0034044981002808,0.7596147060394287,0.7480973601341248,0.5417938828468323,1.0223731994628906,0.8264192342758179,0.8694120049476624,0.39235034584999084,1.0714528560638428,0.40124261379241943,0.8288084864616394
19690.94031337799,0.42630425095558167,0.2292824387550354,-1.1183310747146606,0.9999914169311523,0.43159982562065125,0.20589667558670044,-1.0672568082809448,0.999982476234436,0.44029632210731506,0.2049662470817566,-1.0672502517700195,0.9999829530715942,0.4482609033584595,0.20404541492462158,-1.0671839714050293,0.9999749660491943,0.39769041538238525,0.20661792159080505,-1.0974873304367065,0.9999843835830688,0.37776803970336914,0.20611274242401123,-1.0976792573928833,0.9999862909317017,0.3586289584636688,0.20616555213928223,-1.0977375507354736,0.9999818801879883,0.4395815134048462,0.2121964991092682,-0.7145196795463562,0.9999853372573853,0.30990076065063477,0.21724045276641846,-0.8609500527381897,0.9999843835830688,0.4338403642177582,0.25245144963264465,-0.9824026823043823,0.999992847442627,0.39717572927474976,0.25610995292663574,-1.0235852003097534,0.9999939203262329,0.5198062062263489,0.3473351001739502,-0.4294021427631378,0.9999154806137085,0.16472618281841278,0.36829620599746704,-0.6769570708274841,0.9998018145561218,0.5666216015815735,0.5101848244667053,-0.12760518491268158,0.9820728302001953,0.16222114861011505,0.5516980886459351,-1.0151242017745972,0.9898011088371277,0.6234520673751831,0.6417062282562256,-0.26929476857185364,0.985116183757782,0.26429498195648193,0.463420033454895,-1.6503263711929321,0.9918366074562073,0.6421388387680054,0.6840998530387878,-0.30907055735588074,0.9692556262016296,0.28680333495140076,0.4286973476409912,-1.7779133319854736,0.9857069849967957,0.626764178276062,0.6835839748382568,-0.3964100480079651,0.9708821177482605,0.2725635766983032,0.406017005443573,-1.7878198623657227,0.9852538704872131,0.6152398586273193,0.6738382577896118,-0.3010670244693756,0.9712576866149902,0.27051225304603577,0.4141634702682495,-1.6636390686035156,0.9777911305427551,0.4864758551120758,0.6248616576194763,0.08320652693510056,0.9985062479972839,0.3038046061992645,0.6443299055099487,-0.08303218334913254,0.9988077878952026,0.4824254512786865,0.8313050866127014,0.34532761573791504,0.9688019156455994,0.33706924319267273,0.8656370639801025,0.12309951335191727,0.9812775254249573,0.4838232100009918,0.9603281617164612,1.1178274154663086,0.9170743227005005,0.35649603605270386,0.9864057898521423,0.759446918964386,0.9317677617073059,0.46328896284103394,0.9710561037063599,1.1740671396255493,0.8708838820457458,0.3594183921813965,0.9872100949287415,0.8087360262870789,0.7631712555885315,0.5438993573188782,1.0220603942871094,0.8846848011016846,0.8762954473495483,0.39236363768577576,1.0748305320739746,0.4272867441177368,0.8460448980331421
19707.606980044657,0.42634066939353943,0.22859343886375427,-1.0852751731872559,0.9999876022338867,0.4316425919532776,0.20553746819496155,-1.0336540937423706,0.9999743700027466,0.4401785135269165,0.204662024974823,-1.033671259880066,0.9999748468399048,0.4480430781841278,0.2038414180278778,-1.0336098670959473,0.9999638795852661,0.39861515164375305,0.20616057515144348,-1.0646731853485107,0.9999778270721436,0.37931787967681885,0.20571991801261902,-1.0648869276046753,0.9999804496765137,0.36017951369285583,0.20566853880882263,-1.0649704933166504,0.9999749660491943,0.43909505009651184,0.21170538663864136,-0.6834251880645752,0.9999778270721436,0.3109910190105438,0.21602222323417664,-0.8334673047065735,0.999976634979248,0.4328900873661041,0.2524748742580414,-0.9506585001945496,0.9999897480010986,0.3984750211238861,0.25523388385772705,-0.9929057955741882,0.9999915361404419,0.5208673477172852,0.34578296542167664,-0.4114261567592621,0.9998843669891357,0.16520889103412628,0.36745837330818176,-0.6521991491317749,0.9997565150260925,0.5656740665435791,0.5095341205596924,-0.12213512510061264,0.9785770177841187,0.16609902679920197,0.5537422895431519,-0.9828745126724243,0.9879814982414246,0.6270437836647034,0.6436402797698975,-0.2707153260707855,0.9810959696769714,0.2648833096027374,0.462968111038208,-1.6056952476501465,0.9904066920280457,0.6438686847686768,0.6852642893791199,-0.3124520480632782,0.9621558785438538,0.29123979806900024,0.4244503974914551,-1.730351448059082,0.9836499691009521,0.6299797892570496,0.684808611869812,-0.3980623483657837,0.9640462398529053,0.27630454301834106,0.40521299839019775,-1.7396210432052612,0.9830735921859741,0.6198681592941284,0.6746054887771606,-0.30206966400146484,0.9648047685623169,0.27389758825302124,0.41439980268478394,-1.6182366609573364,0.974452555179596,0.4882930517196655,0.6271312832832336,0.08250637352466583,0.9981385469436646,0.3066764175891876,0.6455296277999878,-0.08233700692653656,0.9985439777374268,0.4820666015148163,0.8350695371627808,0.34365618228912354,0.9652437567710876,0.3382338285446167,0.8673304319381714,0.1212841346859932,0.9785647392272949,0.4809872508049011,0.9553994536399841,1.1312074661254883,0.9082283973693848,0.35313183069229126,0.9885128736495972,0.7644581198692322,0.9248561263084412,0.45800361037254333,0.9639610052108765,1.1897691488265991,0.8584998250007629,0.35184621810913086,0.9877117872238159,0.8146505951881409,0.7442259788513184,0.5386078357696533,1.0190188884735107,0.9053117036819458,0.8699712157249451,0.3939268887042999,1.0796568393707275,0.43254491686820984,0.8364704847335815
19724.273646711325,0.42259061336517334,0.2299027442932129,-1.1193026304244995,0.9999886751174927,0.42919278144836426,0.20662760734558105,-1.067275881767273,0.999976396560669,0.4384082853794098,0.20567330718040466,-1.0672880411148071,0.9999767541885376,0.4471326768398285,0.20493948459625244,-1.0672205686569214,0.9999662637710571,0.3956823945045471,0.20717260241508484,-1.0962785482406616,0.9999794960021973,0.37660276889801025,0.20672833919525146,-1.0965102910995483,0.9999822378158569,0.35783055424690247,0.20655378699302673,-1.0965780019760132,0.9999771118164062,0.44036445021629333,0.21260765194892883,-0.7121001482009888,0.9999788999557495,0.31077903509140015,0.21602103114128113,-0.8531566262245178,0.9999778270721436,0.4292709529399872,0.25420358777046204,-0.9830492734909058,0.9999899864196777,0.39402827620506287,0.2562382221221924,-1.0227104425430298,0.9999918937683105,0.5200629234313965,0.345490425825119,-0.43245449662208557,0.9998834133148193,0.16442836821079254,0.36745119094848633,-0.6631504893302917,0.9997586607933044,0.5660008192062378,0.5090289115905762,-0.14377489686012268,0.9802859425544739,0.16731688380241394,0.5555607676506042,-0.9987961649894714,0.9885202050209045,0.6272040605545044,0.6429882645606995,-0.29657965898513794,0.9823249578475952,0.26585298776626587,0.45980891585350037,-1.640932321548462,0.9911229610443115,0.6436418890953064,0.6843336820602417,-0.33784961700439453,0.9633660316467285,0.2911602258682251,0.41865959763526917,-1.7685390710830688,0.9845032691955566,0.6299905776977539,0.6840152740478516,-0.4237251281738281,0.965133547782898,0.2766525447368622,0.40165799856185913,-1.7760686874389648,0.9839954972267151,0.6197078227996826,0.6739842891693115,-0.3278213143348694,0.965497612953186,0.2743900418281555,0.4113183617591858,-1.6531500816345215,0.9756527543067932,0.48553696274757385,0.6263872385025024,0.0807744562625885,0.9981757402420044,0.30448684096336365,0.6441835165023804,-0.08067570626735687,0.9985740184783936,0.4822247624397278,0.8344439268112183,0.35483190417289734,0.9624630808830261,0.3367137312889099,0.8667342066764832,0.12923064827919006,0.9776304364204407,0.481890469789505,0.956466019153595,1.1330240964889526,0.9043515920639038,0.35499030351638794,0.9872738122940063,0.7676370739936829,0.9227764010429382,0.4596763551235199,0.9652602672576904,1.1906132698059082,0.8513839840888977,0.35482490062713623,0.9873295426368713,0.8173698782920837,0.7358952760696411,0.5400784015655518,1.0207226276397705,0.9017907381057739,0.8681309819221497,0.39757242798805237,1.0782666206359863,0.4333132803440094,0.8358544707298279
19740.940313377992,0.4252619445323944,0.22732096910476685,-1.0892243385314941,0.9999897480010986,0.43129122257232666,0.20367398858070374,-1.037791132926941,0.9999792575836182,0.44029006361961365,0.2027236819267273,-1.0378156900405884,0.9999802112579346,0.4484308063983917,0.20184454321861267,-1.0377615690231323,0.9999710321426392,0.39712613821029663,0.20490315556526184,-1.0651423931121826,0.9999809265136719,0.3774988353252411,0.20472148060798645,-1.0653287172317505,0.9999831914901733,0.35835081338882446,0.2050190567970276,-1.065394639968872,0.999977707862854,0.44094693660736084,0.21093207597732544,-0.6930252909660339,0.9999833106994629,0.3096786439418793,0.21618086099624634,-0.8262245655059814,0.9999794960021973,0.4330836236476898,0.2515616714954376,-0.9573842883110046,0.9999916553497314,0.39788028597831726,0.2548132836818695,-0.9946892261505127,0.9999926090240479,0.522193193435669,0.34718430042266846,-0.42974668741226196,0.9998949766159058,0.16819138824939728,0.3676948547363281,-0.6422356963157654,0.999724805355072,0.565583348274231,0.5118550062179565,-0.14467571675777435,0.9809210300445557,0.16642703115940094,0.5548983812332153,-0.9751970171928406,0.9874869585037231,0.6251332759857178,0.6442385911941528,-0.2822403311729431,0.9841998815536499,0.26004794239997864,0.4621243476867676,-1.6078777313232422,0.9908220767974854,0.6431840658187866,0.685863733291626,-0.32216066122055054,0.9680376648902893,0.28333407640457153,0.42503994703292847,-1.731842279434204,0.9843871593475342,0.6283286809921265,0.6853476166725159,-0.4056018888950348,0.9696022868156433,0.2692350149154663,0.4049415588378906,-1.7398149967193604,0.9838531017303467,0.6176707148551941,0.6748746633529663,-0.3121066987514496,0.9702928066253662,0.26784074306488037,0.41369420289993286,-1.620566487312317,0.9759583473205566,0.4871314764022827,0.6275566816329956,0.07272017002105713,0.9983194470405579,0.3050275146961212,0.645297110080719,-0.07253540307283401,0.9986166954040527,0.48093199729919434,0.8361216187477112,0.3280119001865387,0.9687484502792358,0.33827605843544006,0.8639147877693176,0.12821084260940552,0.97999507188797,0.4832983613014221,0.9587717652320862,1.1104695796966553,0.9141517281532288,0.35578012466430664,0.9867790937423706,0.7655746936798096,0.9268098473548889,0.4613839089870453,0.9664376974105835,1.1682759523391724,0.8638332486152649,0.3581767678260803,0.9863949418067932,0.8155795931816101,0.7470406889915466,0.537985622882843,1.0208408832550049,0.8879227638244629,0.8720875382423401,0.3918383717536926,1.077509880065918,0.4410019814968109,0.8379018306732178
19757.60698004466,0.42547571659088135,0.22741079330444336,-1.1504788398742676,0.9999911785125732,0.4306512773036957,0.20389094948768616,-1.0990554094314575,0.9999819993972778,0.43968018889427185,0.20301342010498047,-1.0990486145019531,0.999982476234436,0.44766736030578613,0.20223969221115112,-1.0989617109298706,0.9999738931655884,0.39655518531799316,0.2049441635608673,-1.1265863180160522,0.9999841451644897,0.37680134177207947,0.20456603169441223,-1.1267950534820557,0.9999864101409912,0.3572184145450592,0.204637348651886,-1.1268606185913086,0.9999822378158569,0.4396989643573761,0.21178528666496277,-0.7475420236587524,0.9999845027923584,0.3061210811138153,0.21572363376617432,-0.8808900117874146,0.9999840259552002,0.43362149596214294,0.2508319318294525,-1.0158908367156982,0.9999924898147583,0.3970682621002197,0.2542029619216919,-1.0532801151275635,0.9999938011169434,0.5197234153747559,0.3475279211997986,-0.46076714992523193,0.999895453453064,0.16370628774166107,0.36906304955482483,-0.6965151429176331,0.9997950196266174,0.5664887428283691,0.5114902853965759,-0.16176225244998932,0.9801897406578064,0.1673601120710373,0.5569347739219666,-1.0340372323989868,0.9908636212348938,0.6258376836776733,0.6423112750053406,-0.30183741450309753,0.98302161693573,0.2647436261177063,0.46112704277038574,-1.674110770225525,0.9930443167686462,0.643616795539856,0.6845845580101013,-0.340643048286438,0.965205192565918,0.2885674238204956,0.426813542842865,-1.8019717931747437,0.9874722361564636,0.6276658177375793,0.6839998364448547,-0.4253782033920288,0.9668719172477722,0.2766006588935852,0.4056852459907532,-1.8106456995010376,0.9870535731315613,0.6167648434638977,0.6738885641098022,-0.3323092758655548,0.9676347970962524,0.27272161841392517,0.41338714957237244,-1.6868799924850464,0.9803520441055298,0.48563194274902344,0.6263183951377869,0.08225870877504349,0.9985125660896301,0.30420756340026855,0.6451110243797302,-0.08216661214828491,0.9988312125205994,0.4811556041240692,0.8331537246704102,0.3684951364994049,0.9649108648300171,0.338779091835022,0.8617976903915405,0.14278438687324524,0.981368899345398,0.482780396938324,0.9587239623069763,1.1479146480560303,0.9130297899246216,0.3549191653728485,0.9840677976608276,0.7887058258056641,0.9300382137298584,0.4618338644504547,0.9685384035110474,1.2049826383590698,0.8650683760643005,0.3575153350830078,0.9859198927879333,0.8395857214927673,0.7616093158721924,0.5404040813446045,1.0221037864685059,0.9190980792045593,0.876764178276062,0.39827582240104675,1.0732319355010986,0.46296921372413635,0.8481085896492004
19774.27364671133,0.4276321232318878,0.2274564802646637,-1.1343770027160645,0.9999901056289673,0.43172022700309753,0.20394188165664673,-1.0843360424041748,0.9999796152114868,0.440115362405777,0.2029939889907837,-1.0843439102172852,0.9999806880950928,0.4476606547832489,0.20219287276268005,-1.0842937231063843,0.9999716281890869,0.3981357514858246,0.20506110787391663,-1.113765001296997,0.9999821186065674,0.3783763647079468,0.20479053258895874,-1.1139802932739258,0.9999847412109375,0.35872018337249756,0.2049996256828308,-1.1140645742416382,0.9999794960021973,0.437605619430542,0.21149063110351562,-0.7348108291625977,0.9999839067459106,0.3066655099391937,0.21643921732902527,-0.8759658336639404,0.9999822378158569,0.4349669814109802,0.25011664628982544,-0.9991946816444397,0.9999918937683105,0.39833030104637146,0.2543146014213562,-1.0389931201934814,0.999992847442627,0.5199236273765564,0.3460102081298828,-0.44756749272346497,0.9999057054519653,0.16515320539474487,0.3682748079299927,-0.6907130479812622,0.9997851252555847,0.5661648511886597,0.5106372237205505,-0.15211911499500275,0.981474757194519,0.16879573464393616,0.5577124357223511,-1.0259634256362915,0.9901357293128967,0.6247462630271912,0.6416558027267456,-0.29477131366729736,0.9833287000656128,0.2588167190551758,0.46267926692962646,-1.6603734493255615,0.9918823838233948,0.6422393321990967,0.6843597888946533,-0.3346506953239441,0.9652876257896423,0.2843846380710602,0.4283878803253174,-1.7865756750106812,0.9856479167938232,0.6278289556503296,0.6834681034088135,-0.4184240400791168,0.9672238826751709,0.2714681029319763,0.4066048562526703,-1.7975009679794312,0.9851400256156921,0.6172345280647278,0.6733443737030029,-0.3250678479671478,0.9677361845970154,0.2669338285923004,0.414412260055542,-1.6739884614944458,0.9774147272109985,0.48445597290992737,0.6248048543930054,0.07832442224025726,0.9981392621994019,0.30424922704696655,0.6442522406578064,-0.07815129309892654,0.9985381364822388,0.47909635305404663,0.8307247161865234,0.34784549474716187,0.9639755487442017,0.3390255272388458,0.8635007739067078,0.1289513260126114,0.9794227480888367,0.4851740896701813,0.9633470177650452,1.0903046131134033,0.9088732004165649,0.3579613268375397,0.9874585270881653,0.7426943778991699,0.9232999086380005,0.46560800075531006,0.9754347205162048,1.1434212923049927,0.8566803336143494,0.3638002574443817,0.9899083971977234,0.7896283268928528,0.7413239479064941,0.5456270575523376,1.0221723318099976,0.8513051271438599,0.8693221211433411,0.3991459310054779,1.0803968906402588,0.40695568919181824,0.8333417177200317
19790.940313377996,0.42419347167015076,0.2294207215309143,-1.0796911716461182,0.9999850988388062,0.4298661947250366,0.20660904049873352,-1.0303541421890259,0.9999696016311646,0.43849143385887146,0.20574206113815308,-1.0303821563720703,0.9999710321426392,0.4466417729854584,0.20485490560531616,-1.0303161144256592,0.9999580383300781,0.39607489109039307,0.20711448788642883,-1.0583926439285278,0.9999722242355347,0.37620046734809875,0.20655253529548645,-1.05860435962677,0.9999759197235107,0.357390433549881,0.20654937624931335,-1.0586975812911987,0.9999681711196899,0.43931668996810913,0.21270757913589478,-0.68613600730896,0.9999755620956421,0.30918753147125244,0.21721085906028748,-0.8210846781730652,0.9999710321426392,0.4322342574596405,0.2523488402366638,-0.9467450976371765,0.9999885559082031,0.39581483602523804,0.25593093037605286,-0.9846529960632324,0.9999901056289673,0.5196090936660767,0.347007691860199,-0.41158658266067505,0.9999027252197266,0.16744287312030792,0.36921393871307373,-0.6375344395637512,0.9997361302375793,0.5643213987350464,0.5112899541854858,-0.1187785193324089,0.9825727939605713,0.16939674317836761,0.5524408221244812,-0.9685943722724915,0.9892326593399048,0.6228688955307007,0.6425254940986633,-0.25906071066856384,0.9845534563064575,0.26755714416503906,0.46116316318511963,-1.5935089588165283,0.9905678629875183,0.6420410871505737,0.6846953630447388,-0.2992740869522095,0.9679049849510193,0.2917436361312866,0.4276984930038452,-1.7145737409591675,0.983400285243988,0.626008152961731,0.6844717264175415,-0.37971869111061096,0.9697592854499817,0.27876731753349304,0.40596485137939453,-1.7230069637298584,0.9828611612319946,0.6144373416900635,0.6735024452209473,-0.28755083680152893,0.9702671766281128,0.27587395906448364,0.4131133556365967,-1.6052651405334473,0.9743496775627136,0.48625969886779785,0.6275340914726257,0.07996531575918198,0.998256504535675,0.30483657121658325,0.6454089283943176,-0.07978788763284683,0.9984831213951111,0.4813286066055298,0.8361663818359375,0.31249430775642395,0.9568778872489929,0.3393142521381378,0.8659114837646484,0.10921499878168106,0.9727289080619812,0.4843413829803467,0.9612975120544434,1.0852980613708496,0.8855281472206116,0.3546757698059082,0.9854251146316528,0.7401703000068665,0.8971484303474426,0.46361231803894043,0.9702039957046509,1.1423392295837402,0.8319798111915588,0.3534945249557495,0.9866872429847717,0.7897403240203857,0.6978601813316345,0.535947859287262,1.0222902297973633,0.8560788035392761,0.8376145362854004,0.3987908363342285,1.0762513875961304,0.4128563404083252,0.7902089953422546
