0,1
18998.39391019696,-21.0
18998.393972694197,-348.0
18998.394035191435,-474.0
18998.394097688673,-333.0
18998.39416018591,-152.0
18998.394222683146,-107.0
18998.394285180384,-201.0
18998.394347677622,-50.0
18998.394410174857,-50.0
18998.394472672095,-170.0
18998.394535169333,-101.0
18998.39459766657,88.0
18998.394660163805,258.0
18998.394722661043,-101.0
18998.39478515828,-578.0
18998.39484765552,-845.0
18998.394910152754,-921.0
18998.394972649992,-655.0
18998.39503514723,-728.0
18998.39509764447,-812.0
18998.395160141703,-606.0
18998.39522263894,-630.0
18998.39528513618,-652.0
18998.395347633417,-699.0
18998.39541013065,-510.0
18998.39547262789,-304.0
18998.395535125128,-597.0
18998.395597622366,-540.0
18998.3956601196,-350.0
18998.39572261684,-213.0
18998.395785114077,37.0
18998.39584761131,-117.0
18998.39591010855,-167.0
18998.395972605787,-3.0
18998.396035103025,-199.0
18998.39609760026,-174.0
18998.396160097498,-63.0
18998.396222594736,-126.0
18998.396285091974,-160.0
18998.39634758921,-517.0
18998.396410086447,-383.0
18998.396472583685,-48.0
18998.396535080923,-94.0
18998.396597578158,106.0
18998.396660075396,467.0
18998.396722572634,579.0
18998.396785069872,687.0
18998.396847567106,578.0
18998.396910064344,281.0
18998.396972561583,326.0
18998.39703505882,515.0
18998.397097556055,437.0
18998.397160053293,287.0
18998.39722255053,496.0
18998.39728504777,478.0
18998.397347545004,131.0
18998.397410042242,121.0
18998.39747253948,117.0
18998.39753503672,-69.0
18998.397597533953,-369.0
18998.39766003119,-625.0
18998.39772252843,-534.0
18998.397785025663,-16.0
18998.3978475229,195.0
18998.39791002014,238.0
18998.397972517378,547.0
18998.398035014612,735.0
18998.39809751185,759.0
18998.39816000909,697.0
18998.398222506326,767.0
18998.39828500356,679.0
18998.3983475008,677.0
18998.398409998037,803.0
18998.398472495275,595.0
18998.39853499251,708.0
18998.398597489748,912.0
18998.398659986986,587.0
18998.398722484224,62.0
18998.39878498146,-80.0
18998.398847478697,139.0
18998.398909975935,-25.0
18998.398972473173,60.0
18998.399034970407,181.0
18998.399097467645,-96.0
18998.399159964883,-279.0
18998.399222462118,-756.0
18998.399284959356,-938.0
18998.399347456594,-760.0
18998.399409953832,-753.0
18998.39947245107,-620.0
18998.399534948305,-282.0
18998.399597445543,-123.0
18998.39965994278,-176.0
18998.399722440015,-239.0
18998.399784937254,-115.0
18998.39984743449,170.0
18998.39990993173,-133.0
18998.399972428964,-534.0
18998.400034926202,-419.0
18998.40009742344,-150.0
18998.40015992068,-146.0
18998.400222417913,-423.0
18998.40028491515,-591.0
18998.40034741239,-539.0
18998.400409909627,-343.0
18998.40047240686,-247.0
18998.4005349041,-334.0
18998.400597401338,-340.0
18998.400659898576,-367.0
18998.40072239581,-604.0
18998.40078489305,-691.0
18998.400847390287,-701.0
18998.400909887525,-549.0
18998.40097238476,-36.0
18998.401034881997,375.0
18998.401097379236,6.0
18998.40115987647,-347.0
18998.401222373708,-81.0
18998.401284870946,351.0
18998.401347368184,221.0
18998.40140986542,-232.0
18998.401472362657,-229.0
18998.401534859895,-26.0
18998.401597357133,-297.0
18998.401659854368,-768.0
18998.401722351606,-397.0
18998.401784848844,-62.0
18998.401847346082,39.0
18998.401909843316,42.0
18998.401972340554,-66.0
18998.402034837793,-178.0
18998.40209733503,143.0
18998.402159832265,670.0
18998.402222329503,810.0
18998.40228482674,471.0
18998.40234732398,43.0
18998.402409821214,258.0
18998.402472318452,426.0
18998.40253481569,103.0
18998.40259731293,-208.0
18998.402659810163,-114.0
18998.4027223074,27.0
18998.40278480464,48.0
18998.402847301877,62.0
18998.40290979911,128.0
18998.40297229635,158.0
18998.403034793588,246.0
18998.403097290822,51.0
18998.40315978806,-297.0
18998.4032222853,-80.0
18998.403284782537,39.0
18998.40334727977,166.0
18998.40340977701,528.0
18998.403472274247,815.0
18998.403534771485,806.0
18998.40359726872,717.0
18998.403659765958,842.0
18998.403722263196,995.0
18998.403784760434,1028.0
18998.40384725767,1071.0
18998.403909754907,1228.0
18998.403972252145,866.0
18998.404034749383,355.0
18998.404097246617,157.0
18998.404159743855,-108.0
18998.404222241094,-62.0
18998.40428473833,-229.0
18998.404347235566,-160.0
18998.404409732804,-86.0
18998.404472230042,-143.0
18998.404534727277,236.0
18998.404597224515,548.0
18998.404659721753,1037.0
18998.40472221899,1151.0
18998.40478471623,514.0
18998.404847213464,478.0
18998.4049097107,571.0
18998.40497220794,443.0
18998.405034705174,597.0
18998.405097202412,637.0
18998.40515969965,527.0
18998.40522219689,653.0
18998.405284694123,1182.0
18998.40534719136,1249.0
18998.4054096886,824.0
18998.405472185837,740.0
18998.405534683072,354.0
18998.40559718031,36.0
18998.405659677548,-61.0
18998.405722174786,-667.0
18998.40578467202,-351.0
18998.40584716926,71.0
18998.405909666497,161.0
18998.405972163735,475.0
18998.40603466097,573.0
18998.406097158208,554.0
18998.406159655446,475.0
18998.406222152684,705.0
18998.40628464992,545.0
18998.406347147156,369.0
18998.406409644394,127.0
18998.40647214163,-24.0
18998.406534638867,-8.0
18998.406597136105,12.0
18998.406659633343,-83.0
18998.40672213058,182.0
18998.406784627816,830.0
18998.406847125054,773.0
18998.406909622292,257.0
18998.406972119526,39.0
18998.407034616765,41.0
18998.407097114003,284.0
18998.40715961124,653.0
18998.407222108475,617.0
18998.407284605713,177.0
18998.40734710295,-248.0
18998.40740960019,-331.0
18998.407472097424,-481.0
18998.407534594662,-636.0
18998.4075970919,-508.0
18998.40765958914,-299.0
18998.407722086373,120.0
18998.40778458361,234.0
18998.40784708085,-659.0
18998.407909578087,-1008.0
18998.40797207532,-654.0
18998.40803457256,-376.0
18998.408097069798,-427.0
18998.408159567036,-692.0
18998.40822206427,-742.0
18998.40828456151,-437.0
18998.408347058747,-216.0
18998.40840955598,10.0
18998.40847205322,309.0
18998.408534550457,268.0
18998.408597047695,-24.0
18998.40865954493,-17.0
18998.408722042168,166.0
18998.408784539406,-25.0
18998.408847036644,-346.0
18998.40890953388,-409.0
18998.408972031117,-236.0
18998.409034528355,-324.0
18998.409097025593,-394.0
18998.409159522827,-485.0
18998.409222020065,-272.0
18998.409284517304,126.0
18998.40934701454,255.0
18998.409409511776,-55.0
18998.409472009014,-238.0
18998.409534506252,-23.0
18998.40959700349,-363.0
18998.409659500725,-491.0
18998.409721997963,-635.0
18998.4097844952,-1006.0
18998.40984699244,-541.0
18998.409909489674,-1.0
18998.409971986912,112.0
18998.41003448415,176.0
18998.410096981388,56.0
18998.410159478623,-82.0
18998.41022197586,154.0
18998.4102844731,347.0
18998.410346970333,-10.0
18998.41040946757,-339.0
18998.41047196481,-401.0
18998.410534462048,-204.0
18998.410596959282,82.0
18998.41065945652,-108.0
18998.41072195376,-110.0
18998.410784450996,-44.0
18998.41084694823,111.0
18998.41090944547,299.0
18998.410971942707,131.0
18998.411034439945,-91.0
18998.41109693718,-323.0
18998.411159434418,-322.0
18998.411221931656,-54.0
18998.411284428894,83.0
18998.41134692613,-286.0
18998.411409423366,-432.0
18998.411471920605,18.0
18998.411534417843,147.0
18998.411596915077,-267.0
18998.411659412315,-663.0
18998.411721909553,-665.0
18998.411784406788,-214.0
18998.411846904026,80.0
18998.411909401264,-253.0
18998.411971898502,-294.0
18998.41203439574,51.0
18998.412096892975,410.0
18998.412159390213,360.0
18998.41222188745,67.0
18998.412284384685,-145.0
18998.412346881923,16.0
18998.41240937916,388.0
18998.4124718764,313.0
18998.412534373634,82.0
18998.412596870872,173.0
18998.41265936811,520.0
18998.41272186535,622.0
18998.412784362583,561.0
18998.41284685982,417.0
18998.41290935706,327.0
18998.412971854297,422.0
18998.41303435153,655.0
18998.41309684877,488.0
18998.413159346008,331.0
18998.413221843246,59.0
18998.41328434048,287.0
18998.41334683772,999.0
18998.413409334957,1363.0
18998.413471832195,1080.0
18998.41353432943,607.0
18998.413596826667,727.0
18998.413659323905,917.0
18998.41372182114,809.0
18998.413784318378,641.0
18998.413846815616,623.0
18998.413909312854,521.0
18998.41397181009,641.0
18998.414034307327,535.0
18998.414096804565,520.0
18998.414159301803,701.0
18998.414221799037,719.0
18998.414284296276,879.0
18998.414346793514,600.0
18998.41440929075,-185.0
18998.414471787986,-148.0
18998.414534285224,137.0
18998.414596782462,190.0
18998.4146592797,148.0
18998.414721776935,-310.0
18998.414784274173,-458.0
18998.41484677141,-536.0
18998.41490926865,-504.0
18998.414971765884,-246.0
18998.415034263122,-83.0
18998.41509676036,-152.0
18998.415159257598,-297.0
18998.415221754833,-405.0
18998.41528425207,-300.0
18998.41534674931,-89.0
18998.415409246547,-129.0
18998.41547174378,50.0
18998.41553424102,131.0
18998.415596738258,-33.0
18998.415659235492,-11.0
18998.41572173273,-224.0
18998.41578422997,-430.0
18998.415846727206,-363.0
18998.41590922444,-409.0
18998.41597172168,-537.0
18998.416034218917,-899.0
18998.416096716155,-697.0
18998.41615921339,-123.0
18998.416221710628,-260.0
18998.416284207866,-666.0
18998.416346705104,-820.0
18998.41640920234,-638.0
18998.416471699577,-398.0
18998.416534196815,-543.0
18998.416596694053,-930.0
18998.416659191287,-796.0
18998.416721688525,-454.0
18998.416784185763,-316.0
18998.416846683,-171.0
18998.416909180236,-306.0
18998.416971677474,-394.0
18998.417034174712,-278.0
18998.417096671947,-24.0
18998.417159169185,-690.0
18998.417221666423,-1201.0
18998.41728416366,-734.0
18998.4173466609,-401.0
18998.417409158134,-206.0
18998.41747165537,-132.0
18998.41753415261,-363.0
18998.417596649844,-326.0
18998.417659147082,-145.0
18998.41772164432,14.0
18998.41778414156,366.0
18998.417846638793,336.0
18998.41790913603,81.0
18998.41797163327,6.0
18998.418034130507,-12.0
18998.41809662774,-301.0
18998.41815912498,-539.0
18998.418221622218,-202.0
18998.418284119456,213.0
18998.41834661669,223.0
18998.41840911393,246.0
18998.418471611167,490.0
18998.418534108405,673.0
18998.41859660564,587.0
18998.418659102877,176.0
18998.418721600116,-145.0
18998.418784097354,-177.0
18998.418846594588,-264.0
18998.418909091826,-254.0
18998.418971589064,-29.0
18998.4190340863,-32.0
18998.419096583537,-315.0
18998.419159080775,-495.0
18998.419221578013,-348.0
18998.419284075248,-153.0
18998.419346572486,-207.0
18998.419409069724,-257.0
18998.419471566962,-182.0
18998.419534064196,-290.0
18998.419596561434,-604.0
18998.419659058673,-754.0
18998.41972155591,-200.0
18998.419784053145,160.0
18998.419846550383,-10.0
18998.41990904762,-126.0
18998.41997154486,21.0
18998.420034042094,216.0
18998.420096539332,471.0
18998.42015903657,763.0
18998.42022153381,852.0
18998.420284031043,827.0
18998.42034652828,549.0
18998.42040902552,627.0
18998.420471522757,960.0
18998.42053401999,1044.0
18998.42059651723,1096.0
18998.420659014468,1035.0
18998.420721511706,746.0
18998.42078400894,156.0
18998.42084650618,-112.0
18998.420909003416,271.0
18998.42097150065,679.0
18998.42103399789,800.0
18998.421096495127,569.0
18998.421158992365,341.0
18998.4212214896,447.0
18998.421283986838,606.0
18998.421346484076,562.0
18998.421408981314,892.0
18998.42147147855,1002.0
18998.421533975787,768.0
18998.421596473025,855.0
18998.421658970263,992.0
18998.421721467497,801.0
18998.421783964735,617.0
18998.421846461973,679.0
18998.42190895921,419.0
18998.421971456446,164.0
18998.422033953684,-7.0
18998.422096450922,-65.0
18998.42215894816,-90.0
18998.422221445395,-162.0
18998.422283942633,189.0
18998.42234643987,325.0
18998.422408937106,513.0
18998.422471434344,697.0
18998.42253393158,701.0
18998.42259642882,809.0
18998.422658926058,929.0
18998.422721423292,604.0
18998.42278392053,233.0
18998.42284641777,496.0
18998.422908915003,380.0
18998.42297141224,409.0
18998.42303390948,523.0
18998.423096406717,382.0
18998.423158903952,446.0
18998.42322140119,319.0
18998.423283898428,264.0
18998.423346395666,174.0
18998.4234088929,-34.0
18998.42347139014,-396.0
18998.423533887377,-428.0
18998.423596384615,-545.0
18998.42365888185,-679.0
18998.423721379088,-335.0
18998.423783876326,-163.0
18998.423846373564,10.0
18998.4239088708,-27.0
18998.423971368036,-76.0
18998.424033865274,-71.0
18998.424096362513,233.0
18998.424158859747,-195.0
18998.424221356985,-672.0
18998.424283854223,-35.0
18998.424346351458,144.0
18998.424408848696,-220.0
18998.424471345934,-147.0
18998.424533843172,433.0
18998.424596340406,539.0
18998.424658837645,369.0
18998.424721334883,202.0
18998.42478383212,156.0
18998.424846329355,47.0
18998.424908826593,-299.0
18998.42497132383,-520.0
18998.42503382107,-459.0
18998.425096318304,-676.0
18998.425158815542,-728.0
18998.42522131278,-596.0
18998.42528381002,-806.0
18998.425346307253,-1028.0
18998.42540880449,-1084.0
18998.42547130173,-689.0
18998.425533798967,-564.0
18998.4255962962,-706.0
18998.42565879344,-557.0
18998.425721290678,-305.0
18998.425783787916,-417.0
18998.42584628515,-504.0
18998.42590878239,-393.0
18998.425971279627,-591.0
18998.426033776865,-419.0
18998.4260962741,12.0
18998.426158771337,333.0
18998.426221268575,250.0
18998.42628376581,-29.0
18998.426346263048,-14.0
18998.426408760286,215.0
18998.426471257524,309.0
18998.42653375476,206.0
18998.426596251997,223.0
18998.426658749235,104.0
18998.426721246473,396.0
18998.426783743707,676.0
18998.426846240945,670.0
18998.426908738184,540.0
18998.42697123542,432.0
18998.427033732656,479.0
18998.427096229894,461.0
18998.427158727132,122.0
18998.42722122437,-336.0
18998.427283721605,-54.0
18998.427346218843,181.0
18998.42740871608,35.0
18998.42747121332,-76.0
18998.427533710554,-95.0
18998.42759620779,236.0
18998.42765870503,277.0
18998.427721202264,131.0
18998.427783699502,72.0
18998.42784619674,-518.0
18998.42790869398,-677.0
18998.427971191217,-172.0
18998.42803368845,-101.0
18998.42809618569,-140.0
18998.428158682927,46.0
18998.428221180162,363.0
18998.4282836774,484.0
18998.428346174638,580.0
18998.428408671876,545.0
18998.42847116911,233.0
18998.42853366635,35.0
18998.428596163587,197.0
18998.428658660825,384.0
18998.42872115806,311.0
18998.428783655298,46.0
18998.428846152536,66.0
18998.428908649774,274.0
18998.42897114701,220.0
18998.429033644246,7.0
18998.429096141484,-440.0
18998.429158638723,-156.0
18998.429221135957,355.0
18998.429283633195,283.0
18998.429346130433,-175.0
18998.42940862767,-382.0
18998.429471124906,-56.0
18998.429533622144,167.0
18998.429596119382,290.0
18998.429658616617,203.0
18998.429721113855,127.0
18998.429783611093,-81.0
18998.42984610833,-166.0
18998.42990860557,-339.0
18998.429971102803,-390.0
18998.43003360004,65.0
18998.43009609728,290.0
18998.430158594514,316.0
18998.430221091752,220.0
18998.43028358899,258.0
18998.43034608623,362.0
18998.430408583463,822.0
18998.4304710807,791.0
18998.43053357794,462.0
18998.430596075177,324.0
18998.43065857241,18.0
18998.43072106965,161.0
18998.430783566888,394.0
18998.430846064126,124.0
18998.43090856136,-149.0
18998.4309710586,152.0
18998.431033555837,286.0
18998.431096053075,218.0
18998.43115855031,274.0
18998.431221047547,293.0
18998.431283544785,121.0
18998.431346042024,-87.0
18998.431408539258,-279.0
18998.431471036496,-545.0
18998.431533533734,-332.0
18998.43159603097,101.0
18998.431658528207,164.0
18998.431721025445,-65.0
18998.431783522683,-150.0
18998.431846019917,-113.0
18998.431908517156,36.0
18998.431971014394,246.0
18998.43203351163,540.0
18998.432096008866,805.0
18998.432158506104,820.0
18998.432221003342,404.0
18998.43228350058,10.0
18998.432345997815,-52.0
18998.432408495053,84.0
18998.43247099229,157.0
18998.43253348953,-10.0
18998.432595986764,72.0
18998.432658484002,89.0
18998.43272098124,267.0
18998.432783478478,307.0
18998.432845975713,42.0
18998.43290847295,122.0
18998.43297097019,603.0
18998.433033467427,315.0
18998.43309596466,-186.0
18998.4331584619,-303.0
18998.433220959138,-95.0
18998.433283456376,-9.0
18998.43334595361,-39.0
18998.43340845085,-147.0
18998.433470948086,-203.0
18998.43353344532,-314.0
18998.43359594256,-485.0
18998.433658439797,-461.0
18998.433720937035,-761.0
18998.43378343427,-753.0
18998.433845931508,-187.0
18998.433908428746,246.0
18998.433970925984,205.0
18998.43403342322,142.0
18998.434095920456,262.0
18998.434158417695,451.0
18998.434220914933,642.0
18998.434283412167,773.0
18998.434345909405,819.0
18998.434408406643,909.0
18998.43447090388,1059.0
18998.434533401116,1020.0
18998.434595898354,922.0
18998.434658395592,677.0
18998.43472089283,590.0
18998.434783390065,551.0
18998.434845887303,450.0
18998.43490838454,181.0
18998.434970881775,-175.0
18998.435033379013,-39.0
18998.43509587625,88.0
18998.43515837349,318.0
18998.435220870728,144.0
18998.435283367962,83.0
18998.4353458652,643.0
18998.43540836244,977.0
18998.435470859673,735.0
18998.43553335691,384.0
18998.43559585415,352.0
18998.435658351387,-28.0
18998.43572084862,-403.0
18998.43578334586,-434.0
18998.435845843098,-358.0
18998.435908340336,-412.0
18998.43597083757,-675.0
18998.43603333481,-600.0
18998.436095832047,-287.0
18998.436158329285,-292.0
18998.43622082652,-475.0
18998.436283323757,-603.0
18998.436345820995,-701.0
18998.436408318234,-1074.0
18998.436470815468,-1259.0
18998.436533312706,-779.0
18998.436595809944,-559.0
18998.436658307182,-497.0
18998.436720804417,-369.0
18998.436783301655,-276.0
18998.436845798893,-61.0
18998.436908296128,-202.0
18998.436970793366,-356.0
18998.437033290604,-208.0
18998.437095787842,-193.0
18998.437158285076,-433.0
18998.437220782314,-849.0
18998.437283279553,-982.0
18998.43734577679,-856.0
18998.437408274025,-757.0
18998.437470771263,-616.0
18998.4375332685,-449.0
18998.43759576574,-492.0
18998.437658262974,-81.0
18998.437720760212,585.0
18998.43778325745,308.0
18998.437845754688,-164.0
18998.437908251923,90.0
18998.43797074916,544.0
18998.4380332464,429.0
18998.438095743637,27.0
18998.43815824087,-397.0
18998.43822073811,-175.0
18998.438283235348,562.0
18998.438345732586,-41.0
18998.43840822982,-245.0
18998.43847072706,295.0
18998.438533224296,595.0
18998.438595721535,568.0
18998.43865821877,-56.0
18998.438720716007,-615.0
18998.438783213245,-356.0
18998.43884571048,344.0
18998.438908207718,330.0
18998.438970704956,103.0
18998.439033202194,59.0
18998.43909569943,26.0
18998.439158196667,214.0
18998.439220693905,412.0
18998.439283191143,235.0
18998.439345688377,-67.0
18998.439408185615,-142.0
18998.439470682853,162.0
18998.43953318009,58.0
18998.439595677326,-263.0
18998.439658174564,16.0
18998.439720671802,199.0
18998.43978316904,299.0
18998.439845666275,221.0
18998.439908163513,114.0
18998.43997066075,554.0
18998.44003315799,795.0
18998.440095655224,903.0
18998.44015815246,918.0
18998.4402206497,488.0
18998.440283146934,349.0
18998.440345644172,878.0
18998.44040814141,943.0
18998.44047063865,696.0
18998.440533135887,284.0
18998.44059563312,159.0
18998.44065813036,642.0
18998.440720627597,973.0
18998.44078312483,682.0
18998.44084562207,451.0
18998.440908119308,740.0
18998.440970616546,613.0
18998.44103311378,565.0
18998.44109561102,605.0
18998.441158108257,537.0
18998.441220605495,484.0
18998.44128310273,259.0
18998.441345599967,498.0
18998.441408097206,346.0
18998.441470594444,-166.0
18998.441533091678,130.0
18998.441595588916,859.0
18998.441658086154,790.0
18998.441720583392,-86.0
18998.441783080627,-243.0
18998.441845577865,101.0
18998.441908075103,241.0
18998.44197057234,183.0
18998.442033069576,-260.0
18998.442095566814,-385.0
18998.442158064052,-154.0
18998.442220561286,244.0
18998.442283058524,622.0
18998.442345555763,345.0
18998.442408053,212.0
18998.442470550235,560.0
18998.442533047473,910.0
18998.44259554471,631.0
18998.44265804195,99.0
18998.442720539184,156.0
18998.442783036422,374.0
18998.44284553366,313.0
18998.4429080309,-212.0
18998.442970528133,-294.0
18998.44303302537,50.0
18998.44309552261,317.0
18998.443158019847,670.0
18998.44322051708,54.0
18998.44328301432,-819.0
18998.443345511558,-730.0
18998.443408008796,-331.0
18998.44347050603,-236.0
18998.44353300327,-340.0
18998.443595500506,-650.0
18998.443657997745,-762.0
18998.44372049498,-257.0
18998.443782992217,-415.0
18998.443845489455,-801.0
18998.443907986693,-535.0
18998.443970483928,-79.0
18998.444032981166,6.0
18998.444095478404,-325.0
18998.44415797564,-587.0
18998.444220472877,-841.0
18998.444282970115,-664.0
18998.444345467353,-492.0
18998.444407964587,-538.0
18998.444470461825,-732.0
18998.444532959064,-907.0
18998.4445954563,-812.0
18998.444657953536,-305.0
18998.444720450774,-19.0
18998.444782948012,-158.0
18998.44484544525,-169.0
18998.444907942485,-286.0
18998.444970439723,-634.0
18998.44503293696,-779.0
18998.4450954342,-364.0
18998.445157931434,-227.0
18998.44522042867,-258.0
18998.44528292591,-79.0
18998.445345423148,-125.0
18998.445407920382,-415.0
18998.44547041762,-573.0
18998.44553291486,-228.0
18998.445595412093,61.0
18998.44565790933,115.0
18998.44572040657,-173.0
18998.445782903807,-659.0
18998.445845401046,-594.0
18998.44590789828,112.0
18998.445970395518,313.0
18998.446032892756,-68.0
18998.44609538999,-322.0
18998.44615788723,-267.0
18998.446220384467,-130.0
18998.446282881705,-67.0
18998.44634537894,-183.0
18998.446407876178,-123.0
18998.446470373416,332.0
18998.446532870654,458.0
18998.44659536789,181.0
18998.446657865126,-173.0
18998.446720362364,-32.0
18998.446782859603,494.0
18998.446845356837,595.0
18998.446907854075,175.0
18998.446970351313,-60.0
18998.44703284855,623.0
18998.447095345786,1176.0
18998.447157843024,1265.0
18998.447220340262,1584.0
18998.4472828375,1441.0
18998.447345334735,931.0
18998.447407831973,872.0
18998.44747032921,848.0
18998.447532826445,771.0
18998.447595323683,903.0
18998.44765782092,1057.0
18998.44772031816,1217.0
18998.447782815394,1077.0
18998.447845312632,860.0
18998.44790780987,977.0
18998.44797030711,987.0
18998.448032804343,836.0
18998.44809530158,723.0
18998.44815779882,387.0
18998.448220296057,-70.0
18998.44828279329,-265.0
18998.44834529053,171.0
18998.448407787768,518.0
18998.448470285006,402.0
18998.44853278224,228.0
18998.44859527948,82.0
18998.448657776717,359.0
18998.448720273955,547.0
18998.44878277119,168.0
18998.448845268427,59.0
18998.448907765665,45.0
18998.448970262903,23.0
18998.449032760138,95.0
18998.449095257376,-39.0
18998.449157754614,40.0
18998.449220251852,334.0
18998.449282749087,709.0
18998.449345246325,810.0
18998.449407743563,398.0
18998.449470240797,181.0
18998.449532738035,49.0
18998.449595235274,336.0
18998.44965773251,605.0
18998.449720229746,334.0
18998.449782726984,-256.0
18998.449845224222,-447.0
18998.44990772146,-864.0
18998.449970218695,-1189.0
18998.450032715933,-819.0
18998.45009521317,-669.0
18998.45015771041,-228.0
18998.450220207644,-72.0
18998.450282704882,-379.0
18998.45034520212,-587.0
18998.450407699358,-473.0
18998.450470196593,-275.0
18998.45053269383,-481.0
18998.45059519107,-575.0
18998.450657688307,-593.0
18998.45072018554,-570.0
18998.45078268278,58.0
18998.450845180017,661.0
18998.450907677252,466.0
18998.45097017449,97.0
18998.451032671728,-122.0
18998.451095168966,-115.0
18998.451157666204,-446.0
18998.45122016344,-837.0
18998.451282660677,-669.0
18998.451345157915,-466.0
18998.45140765515,-30.0
18998.451470152388,86.0
18998.451532649626,268.0
18998.451595146864,720.0
18998.4516576441,832.0
18998.451720141336,497.0
18998.451782638575,22.0
18998.451845135813,-28.0
18998.451907633047,-45.0
18998.451970130285,34.0
18998.452032627523,426.0
18998.45209512476,352.0
18998.452157621996,409.0
18998.452220119234,443.0
18998.452282616472,523.0
18998.45234511371,444.0
18998.452407610945,15.0
18998.452470108183,99.0
18998.45253260542,202.0
18998.45259510266,138.0
18998.452657599893,171.0
18998.45272009713,230.0
18998.45278259437,148.0
18998.452845091604,398.0
18998.452907588842,618.0
18998.45297008608,468.0
18998.45303258332,692.0
18998.453095080557,275.0
18998.45315757779,-47.0
18998.45322007503,272.0
18998.453282572267,64.0
18998.4533450695,-109.0
18998.45340756674,108.0
18998.453470063978,72.0
18998.453532561216,38.0
18998.45359505845,65.0
18998.45365755569,-225.0
18998.453720052927,-403.0
18998.453782550165,-180.0
18998.4538450474,-169.0
18998.453907544637,-219.0
18998.453970041875,-54.0
18998.454032539114,-29.0
18998.454095036348,165.0
18998.454157533586,389.0
18998.454220030824,423.0
18998.454282528062,631.0
18998.454345025297,795.0
18998.454407522535,600.0
18998.454470019773,564.0
18998.45453251701,517.0
18998.454595014246,96.0
18998.454657511484,-58.0
18998.45472000872,-154.0
18998.454782505956,-208.0
18998.454845003194,-40.0
18998.454907500432,176.0
18998.45496999767,23.0
18998.455032494905,132.0
18998.455094992143,413.0
18998.45515748938,163.0
18998.45521998662,-263.0
18998.455282483854,-253.0
18998.455344981092,170.0
18998.45540747833,389.0
18998.455469975568,252.0
18998.455532472803,208.0
18998.45559497004,14.0
18998.45565746728,-40.0
18998.455719964517,386.0
18998.45578246175,465.0
18998.45584495899,186.0
18998.455907456228,-129.0
18998.455969953466,121.0
18998.4560324507,144.0
18998.45609494794,-404.0
18998.456157445176,-360.0
18998.456219942414,-390.0
18998.45628243965,-245.0
18998.456344936887,-201.0
18998.456407434125,249.0
18998.456469931363,778.0
18998.456532428598,579.0
18998.456594925836,444.0
18998.456657423074,330.0
18998.45671992031,137.0
18998.456782417546,-334.0
18998.456844914785,-488.0
18998.456907412023,-151.0
18998.456969909257,190.0
18998.457032406495,-44.0
18998.457094903733,-261.0
18998.45715740097,-85.0
18998.457219898206,160.0
18998.457282395444,362.0
18998.457344892682,288.0
18998.45740738992,20.0
18998.457469887155,-104.0
18998.457532384393,-95.0
18998.45759488163,-63.0
18998.45765737887,58.0
18998.457719876104,18.0
18998.45778237334,44.0
18998.45784487058,118.0
18998.457907367818,-49.0
18998.457969865052,-406.0
18998.45803236229,-272.0
18998.45809485953,371.0
18998.458157356763,545.0
18998.458219854,467.0
18998.45828235124,150.0
18998.458344848477,94.0
18998.458407345715,-89.0
18998.45846984295,-371.0
18998.458532340188,-390.0
18998.458594837426,-487.0
18998.45865733466,-384.0
18998.4587198319,-449.0
18998.458782329137,-574.0
18998.458844826375,-169.0
18998.45890732361,161.0
18998.458969820847,150.0
18998.459032318086,-253.0
18998.459094815324,-273.0
18998.459157312558,-197.0
18998.459219809796,-402.0
18998.459282307034,-578.0
18998.459344804272,-564.0
18998.459407301507,-234.0
18998.459469798745,-100.0
18998.459532295983,134.0
18998.45959479322,137.0
18998.459657290456,229.0
18998.459719787694,512.0
18998.459782284932,517.0
18998.45984478217,208.0
18998.459907279404,-253.0
18998.459969776643,-621.0
18998.46003227388,-444.0
18998.460094771115,-186.0
18998.460157268353,-133.0
18998.46021976559,202.0
18998.46028226283,274.0
18998.460344760064,141.0
18998.460407257302,-28.0
18998.46046975454,-180.0
18998.46053225178,-280.0
18998.460594749013,-131.0
18998.46065724625,294.0
18998.46071974349,317.0
18998.460782240727,-150.0
18998.46084473796,-687.0
18998.4609072352,-847.0
18998.460969732438,-522.0
18998.461032229676,-456.0
18998.46109472691,-573.0
18998.46115722415,-650.0
18998.461219721386,-538.0
18998.461282218625,-287.0
18998.46134471586,17.0
18998.461407213097,308.0
18998.461469710335,502.0
18998.461532207573,708.0
18998.461594704808,522.0
18998.461657202046,231.0
18998.461719699284,542.0
18998.461782196522,832.0
18998.461844693757,689.0
18998.461907190995,360.0
18998.461969688233,352.0
18998.462032185467,767.0
18998.462094682705,803.0
18998.462157179943,1111.0
18998.46221967718,1176.0
18998.462282174416,791.0
18998.462344671654,719.0
18998.462407168892,371.0
18998.46246966613,129.0
18998.462532163365,61.0
18998.462594660603,254.0
18998.46265715784,547.0
18998.46271965508,569.0
18998.462782152314,327.0
18998.46284464955,309.0
18998.46290714679,387.0
18998.462969644028,457.0
18998.463032141262,665.0
18998.4630946385,757.0
18998.46315713574,596.0
18998.463219632977,253.0
18998.46328213021,107.0
18998.46334462745,302.0
18998.463407124687,256.0
18998.463469621922,183.0
18998.46353211916,139.0
18998.463594616398,236.0
18998.463657113636,389.0
18998.463719610874,169.0
18998.46378210811,166.0
18998.463844605347,510.0
18998.463907102585,702.0
18998.46396959982,630.0
18998.464032097057,317.0
18998.464094594296,-277.0
18998.464157091534,-324.0
18998.464219588768,115.0
18998.464282086006,61.0
18998.464344583244,-379.0
18998.464407080482,-426.0
18998.464469577717,-177.0
18998.464532074955,144.0
18998.464594572193,63.0
18998.46465706943,-459.0
18998.464719566666,-668.0
18998.464782063904,-339.0
18998.464844561142,-125.0
18998.46490705838,-578.0
18998.464969555615,-1072.0
18998.465032052853,-998.0
18998.46509455009,-199.0
18998.46515704733,72.0
18998.465219544563,-575.0
18998.4652820418,-852.0
18998.46534453904,-714.0
18998.465407036274,-252.0
18998.465469533512,-100.0
18998.46553203075,-735.0
18998.46559452799,-840.0
18998.465657025223,-516.0
18998.46571952246,-559.0
18998.4657820197,-873.0
18998.465844516937,-1078.0
18998.46590701417,-835.0
18998.46596951141,-537.0
18998.466032008648,-250.0
18998.466094505886,-454.0
18998.46615700312,-1071.0
18998.46621950036,-908.0
18998.466281997597,-388.0
18998.466344494835,-129.0
18998.46640699207,-254.0
18998.466469489307,-572.0
18998.466531986545,-494.0
18998.466594483783,-296.0
18998.466656981018,-430.0
18998.466719478256,-585.0
18998.466781975494,-800.0
18998.466844472732,-603.0
18998.466906969967,-237.0
18998.466969467205,-519.0
18998.467031964443,-782.0
18998.46709446168,-787.0
18998.467156958915,-514.0
18998.467219456154,-448.0
18998.46728195339,-540.0
18998.467344450626,-1060.0
18998.467406947864,-1549.0
18998.467469445102,-1291.0
18998.46753194234,-809.0
18998.467594439575,-689.0
18998.467656936813,-753.0
18998.46771943405,-328.0
18998.46778193129,-26.0
18998.467844428524,-75.0
18998.46790692576,11.0
18998.467969423,-31.0
18998.468031920238,-212.0
18998.468094417472,-419.0
18998.46815691471,-800.0
18998.46821941195,-786.0
18998.468281909187,-629.0
18998.46834440642,-431.0
18998.46840690366,-240.0
18998.468469400897,-394.0
18998.468531898136,-637.0
18998.46859439537,-484.0
18998.468656892608,-204.0
18998.468719389846,-192.0
18998.46878188708,-299.0
18998.46884438432,-70.0
18998.468906881557,190.0
18998.468969378795,110.0
18998.469031876033,399.0
18998.469094373268,570.0
18998.469156870506,597.0
18998.469219367744,504.0
18998.46928186498,81.0
18998.469344362216,104.0
18998.469406859454,535.0
18998.469469356693,720.0
18998.469531853927,500.0
18998.469594351165,352.0
18998.469656848403,615.0
18998.46971934564,634.0
18998.469781842876,557.0
18998.469844340114,587.0
18998.469906837352,256.0
18998.46996933459,430.0
18998.470031831825,743.0
18998.470094329063,452.0
18998.4701568263,231.0
18998.47021932354,127.0
18998.470281820773,287.0
18998.47034431801,614.0
18998.47040681525,586.0
18998.470469312488,370.0
18998.470531809722,428.0
18998.47059430696,913.0
18998.4706568042,915.0
18998.470719301433,537.0
18998.47078179867,590.0
18998.47084429591,831.0
18998.470906793147,1045.0
18998.47096929038,1216.0
18998.47103178762,1155.0
18998.471094284858,1106.0
18998.471156782096,1243.0
18998.47121927933,1207.0
18998.47128177657,1131.0
18998.471344273807,901.0
18998.471406771045,740.0
18998.47146926828,828.0
18998.471531765517,1151.0
18998.471594262755,895.0
18998.471656759993,276.0
18998.471719257228,561.0
18998.471781754466,762.0
18998.471844251704,542.0
18998.471906748942,387.0
18998.471969246177,633.0
18998.472031743415,758.0
18998.472094240653,679.0
18998.47215673789,816.0
18998.472219235126,851.0
18998.472281732364,718.0
18998.4723442296,741.0
18998.47240672684,705.0
18998.472469224074,611.0
18998.472531721312,545.0
18998.47259421855,67.0
18998.472656715785,-529.0
18998.472719213023,-273.0
18998.47278171026,-12.0
18998.4728442075,-294.0
18998.472906704734,-214.0
18998.472969201972,-112.0
18998.47303169921,-31.0
18998.473094196448,403.0
18998.473156693683,568.0
18998.47321919092,456.0
18998.47328168816,463.0
18998.473344185397,308.0
18998.47340668263,171.0
18998.47346917987,-26.0
18998.473531677108,-500.0
18998.473594174346,-520.0
18998.47365667158,-217.0
18998.47371916882,68.0
18998.473781666056,5.0
18998.473844163294,-95.0
18998.47390666053,329.0
18998.473969157767,204.0
18998.474031655005,-24.0
18998.47409415224,172.0
18998.474156649478,-34.0
18998.474219146716,-137.0
18998.474281643954,226.0
18998.474344141192,13.0
18998.474406638426,-270.0
18998.474469135665,1.0
18998.474531632903,112.0
18998.474594130137,113.0
18998.474656627375,128.0
18998.474719124613,-13.0
18998.47478162185,13.0
18998.474844119086,-183.0
18998.474906616324,-364.0
18998.474969113562,-412.0
18998.4750316108,-759.0
18998.475094108035,-788.0
18998.475156605273,-594.0
18998.47521910251,-246.0
18998.47528159975,-87.0
18998.475344096983,-212.0
18998.47540659422,-309.0
18998.47546909146,-143.0
18998.475531588698,-242.0
18998.475594085932,-403.0
18998.47565658317,-470.0
18998.47571908041,-489.0
18998.475781577647,-356.0
18998.47584407488,-542.0
18998.47590657212,-1019.0
18998.475969069357,-1491.0
18998.47603156659,-1298.0
18998.47609406383,-904.0
18998.476156561068,-820.0
18998.476219058306,-869.0
18998.476281555544,-1119.0
18998.47634405278,-895.0
18998.476406550017,-579.0
18998.476469047255,-616.0
18998.47653154449,-597.0
18998.476594041727,-495.0
18998.476656538965,-364.0
18998.476719036204,-136.0
18998.476781533438,-306.0
18998.476844030676,-385.0
18998.476906527914,1.0
18998.476969025152,289.0
18998.477031522387,260.0
18998.477094019625,-141.0
18998.477156516863,-417.0
18998.4772190141,-354.0
18998.477281511336,-38.0
18998.477344008574,-143.0
18998.47740650581,-502.0
18998.47746900305,-753.0
18998.477531500284,-841.0
18998.477593997522,-443.0
18998.47765649476,-289.0
18998.477718992,-295.0
18998.477781489233,-315.0
18998.47784398647,-465.0
18998.47790648371,-242.0
18998.477968980944,-189.0
18998.478031478182,-209.0
18998.47809397542,106.0
18998.478156472658,45.0
18998.478218969893,-26.0
18998.47828146713,-90.0
18998.47834396437,-270.0
18998.478406461607,-73.0
18998.47846895884,199.0
18998.47853145608,25.0
18998.478593953318,-372.0
18998.478656450556,-589.0
18998.47871894779,-467.0
18998.47878144503,-300.0
18998.478843942266,-347.0
18998.478906439504,-164.0
18998.47896893674,-79.0
18998.479031433977,-46.0
18998.479093931215,4.0
18998.479156428453,341.0
18998.479218925688,696.0
18998.479281422926,324.0
18998.479343920164,507.0
18998.479406417402,645.0
18998.479468914637,317.0
18998.479531411875,308.0
18998.479593909113,210.0
18998.47965640635,416.0
18998.479718903585,734.0
18998.479781400823,978.0
18998.47984389806,1190.0
18998.479906395296,1233.0
18998.479968892534,1301.0
18998.480031389772,1034.0
18998.48009388701,728.0
18998.480156384245,613.0
18998.480218881483,366.0
18998.48028137872,113.0
18998.48034387596,254.0
18998.480406373194,587.0
18998.48046887043,958.0
18998.48053136767,960.0
18998.480593864908,802.0
18998.480656362142,763.0
18998.48071885938,873.0
18998.48078135662,927.0
18998.480843853857,551.0
18998.48090635109,541.0
18998.48096884833,592.0
18998.481031345567,658.0
18998.481093842805,440.0
18998.48115634004,-77.0
18998.481218837278,-235.0
18998.481281334516,-87.0
18998.48134383175,161.0
18998.48140632899,-61.0
18998.481468826227,-228.0
18998.481531323465,-247.0
18998.481593820703,-540.0
18998.481656317937,-541.0
18998.481718815176,-102.0
18998.481781312414,-227.0
18998.481843809648,-497.0
18998.481906306886,-307.0
18998.481968804124,-280.0
18998.482031301362,-320.0
18998.482093798597,-96.0
18998.482156295835,155.0
18998.482218793073,497.0
18998.48228129031,945.0
18998.482343787546,880.0
18998.482406284784,905.0
18998.482468782022,770.0
18998.48253127926,444.0
18998.482593776494,596.0
18998.482656273733,279.0
18998.48271877097,-277.0
18998.48278126821,-225.0
18998.482843765443,120.0
18998.48290626268,843.0
18998.48296875992,781.0
18998.483031257158,169.0
18998.483093754392,280.0
18998.48315625163,220.0
18998.48321874887,142.0
18998.483281246103,-144.0
18998.48334374334,-604.0
18998.48340624058,-389.0
18998.483468737817,-282.0
18998.48353123505,-593.0
18998.48359373229,-918.0
18998.483656229528,-1229.0
18998.483718726766,-895.0
18998.483781224,-543.0
18998.48384372124,-281.0
18998.483906218476,-308.0
18998.483968715715,-597.0
18998.48403121295,-314.0
18998.484093710187,536.0
18998.484156207425,732.0
18998.484218704663,244.0
18998.484281201898,184.0
18998.484343699136,303.0
18998.484406196374,423.0
18998.484468693612,523.0
18998.484531190847,459.0
18998.484593688085,524.0
18998.484656185323,759.0
18998.48471868256,663.0
18998.484781179795,199.0
18998.484843677033,-177.0
18998.48490617427,-434.0
18998.48496867151,-365.0
18998.485031168744,70.0
18998.485093665982,-43.0
18998.48515616322,-749.0
18998.485218660455,-960.0
18998.485281157693,-727.0
18998.48534365493,-539.0
18998.48540615217,-97.0
18998.485468649404,117.0
18998.48553114664,-173.0
18998.48559364388,-175.0
18998.485656141118,2.0
18998.485718638352,247.0
18998.48578113559,286.0
18998.48584363283,-39.0
18998.485906130067,100.0
18998.4859686273,449.0
18998.48603112454,326.0
18998.486093621777,36.0
18998.486156119016,-11.0
18998.48621861625,498.0
18998.486281113488,552.0
18998.486343610726,104.0
18998.486406107964,-245.0
18998.4864686052,-575.0
18998.486531102437,-412.0
18998.486593599675,74.0
18998.48665609691,182.0
18998.486718594148,64.0
18998.486781091386,-188.0
18998.486843588624,-284.0
18998.486906085862,-219.0
18998.486968583096,-130.0
18998.487031080334,-206.0
18998.487093577573,-220.0
18998.487156074807,-68.0
18998.487218572045,-139.0
18998.487281069283,-224.0
18998.48734356652,-641.0
18998.487406063756,-1019.0
18998.487468560994,-917.0
18998.487531058232,-565.0
18998.48759355547,-860.0
18998.487656052705,-1524.0
18998.487718549943,-1400.0
18998.48778104718,-757.0
18998.48784354442,-406.0
18998.487906041653,-654.0
18998.48796853889,-1025.0
18998.48803103613,-860.0
18998.488093533368,-287.0
18998.488156030602,-169.0
18998.48821852784,-386.0
18998.48828102508,-315.0
18998.488343522316,-380.0
18998.48840601955,-252.0
18998.48846851679,123.0
18998.488531014027,-190.0
18998.48859351126,-119.0
18998.4886560085,507.0
18998.488718505738,546.0
18998.488781002976,497.0
18998.48884350021,412.0
18998.48890599745,314.0
18998.488968494687,22.0
18998.489030991925,-234.0
18998.48909348916,-354.0
18998.489155986397,-567.0
18998.489218483635,-621.0
18998.489280980873,-571.0
18998.489343478108,-309.0
18998.489405975346,-194.0
18998.489468472584,-412.0
18998.489530969822,-394.0
18998.489593467057,12.0
18998.489655964295,157.0
18998.489718461533,-429.0
18998.48978095877,-1041.0
18998.489843456005,-935.0
18998.489905953244,-358.0
18998.48996845048,-159.0
18998.49003094772,90.0
18998.490093444954,463.0
18998.490155942192,743.0
18998.49021843943,863.0
18998.49028093667,823.0
18998.490343433903,1004.0
18998.49040593114,778.0
18998.49046842838,410.0
18998.490530925614,331.0
18998.49059342285,304.0
18998.49065592009,-43.0
18998.490718417328,-225.0
18998.490780914562,64.0
18998.4908434118,92.0
18998.49090590904,220.0
18998.490968406277,559.0
18998.49103090351,450.0
18998.49109340075,298.0
18998.491155897987,375.0
18998.491218395226,413.0
18998.49128089246,142.0
18998.491343389698,-305.0
18998.491405886936,-486.0
18998.491468384174,-216.0
18998.49153088141,-46.0
18998.491593378647,76.0
18998.491655875885,115.0
18998.491718373123,122.0
18998.491780870358,286.0
18998.491843367596,390.0
18998.491905864834,141.0
18998.49196836207,-116.0
18998.492030859306,-4.0
18998.492093356545,278.0
18998.492155853783,230.0
18998.49221835102,3.0
18998.492280848255,209.0
18998.492343345493,278.0
18998.49240584273,577.0
18998.492468339966,906.0
18998.492530837204,546.0
18998.492593334442,482.0
18998.49265583168,539.0
18998.492718328915,548.0
18998.492780826153,722.0
18998.49284332339,397.0
18998.49290582063,146.0
18998.492968317863,163.0
18998.4930308151,-30.0
18998.49309331234,-470.0
18998.493155809578,-1019.0
18998.493218306812,-710.0
18998.49328080405,-293.0
18998.49334330129,-433.0
18998.493405798527,-386.0
18998.49346829576,-371.0
18998.493530793,-787.0
18998.493593290237,-653.0
18998.493655787475,-510.0
18998.49371828471,-884.0
18998.493780781948,-988.0
18998.493843279186,-850.0
18998.49390577642,-944.0
18998.49396827366,-770.0
18998.494030770897,-619.0
18998.494093268135,-835.0
18998.494155765373,-461.0
18998.494218262607,38.0
18998.494280759845,-150.0
18998.494343257084,-419.0
18998.494405754318,-462.0
18998.494468251556,-354.0
18998.494530748794,-398.0
18998.494593246032,-346.0
18998.494655743267,-149.0
18998.494718240505,53.0
18998.494780737743,61.0
18998.49484323498,-45.0
18998.494905732216,264.0
18998.494968229454,539.0
18998.49503072669,475.0
18998.49509322393,290.0
18998.495155721164,413.0
18998.495218218402,576.0
18998.49528071564,356.0
18998.49534321288,50.0
18998.495405710113,68.0
18998.49546820735,-18.0
18998.49553070459,-110.0
18998.495593201827,136.0
18998.495655699062,-161.0
18998.4957181963,-268.0
18998.495780693538,234.0
18998.495843190773,749.0
18998.49590568801,839.0
18998.49596818525,441.0
18998.496030682487,51.0
18998.49609317972,129.0
18998.49615567696,428.0
18998.496218174198,203.0
18998.496280671436,119.0
18998.49634316867,407.0
18998.49640566591,612.0
18998.496468163146,769.0
18998.496530660384,761.0
18998.49659315762,841.0
18998.496655654857,930.0
18998.496718152095,1191.0
18998.496780649333,1107.0
18998.496843146568,299.0
18998.496905643806,-192.0
18998.496968141044,-3.0
18998.497030638282,427.0
18998.497093135516,450.0
18998.497155632755,401.0
18998.497218129993,779.0
18998.49728062723,740.0
18998.497343124465,632.0
18998.497405621703,665.0
18998.49746811894,639.0
18998.49753061618,704.0
18998.497593113414,555.0
18998.497655610652,33.0
18998.49771810789,73.0
18998.497780605125,127.0
18998.497843102363,-278.0
18998.4979055996,-231.0
18998.49796809684,-112.0
18998.498030594073,-105.0
18998.49809309131,-185.0
18998.49815558855,-410.0
18998.498218085788,-497.0
18998.498280583022,-456.0
18998.49834308026,-220.0
18998.4984055775,-144.0
18998.498468074737,-311.0
18998.49853057197,-364.0
18998.49859306921,-225.0
18998.498655566447,-66.0
18998.498718063685,19.0
18998.49878056092,-411.0
18998.498843058158,-621.0
18998.498905555396,-205.0
18998.498968052634,82.0
18998.49903054987,-137.0
18998.499093047107,-310.0
18998.499155544345,-51.0
18998.49921804158,11.0
18998.499280538817,83.0
18998.499343036056,-17.0
18998.499405533294,-396.0
18998.49946803053,-269.0
18998.499530527766,-1.0
18998.499593025004,56.0
18998.499655522242,-60.0
18998.499718019477,1.0
18998.499780516715,270.0
18998.499843013953,456.0
18998.49990551119,704.0
18998.499968008426,422.0
18998.500030505664,-30.0
18998.500093002902,113.0
18998.50015550014,59.0
18998.500217997374,-266.0
18998.500280494613,-600.0
18998.50034299185,-877.0
18998.50040548909,-835.0
18998.500467986323,-606.0
18998.50053048356,-662.0
18998.5005929808,-768.0
18998.500655478038,-789.0
18998.500717975272,-644.0
18998.50078047251,-312.0
18998.50084296975,-471.0
18998.500905466986,-377.0
18998.50096796422,-185.0
18998.50103046146,-78.0
18998.501092958697,132.0
18998.50115545593,156.0
18998.50121795317,206.0
18998.501280450408,73.0
18998.501342947646,313.0
18998.50140544488,745.0
18998.50146794212,631.0
18998.501530439356,496.0
18998.501592936595,558.0
18998.50165543383,521.0
18998.501717931067,346.0
18998.501780428305,248.0
18998.501842925543,357.0
18998.501905422778,581.0
18998.501967920016,601.0
18998.502030417254,762.0
18998.502092914492,752.0
18998.502155411727,462.0
18998.502217908965,12.0
18998.502280406203,-140.0
18998.50234290344,208.0
18998.502405400675,-25.0
18998.502467897913,-320.0
18998.50253039515,10.0
18998.50259289239,-223.0
18998.502655389624,-541.0
18998.502717886862,-134.0
18998.5027803841,-2.0
18998.50284288134,-125.0
18998.502905378573,-219.0
18998.50296787581,201.0
18998.50303037305,825.0
18998.503092870284,910.0
18998.50315536752,616.0
18998.50321786476,822.0
18998.503280361998,1271.0
18998.503342859232,1059.0
18998.50340535647,908.0
18998.50346785371,1089.0
18998.503530350947,975.0
18998.50359284818,889.0
18998.50365534542,816.0
18998.503717842657,749.0
18998.503780339895,690.0
18998.50384283713,699.0
18998.503905334368,626.0
18998.503967831606,531.0
18998.504030328844,601.0
18998.50409282608,525.0
18998.504155323317,453.0
18998.504217820555,395.0
18998.504280317793,425.0
18998.504342815027,204.0
18998.504405312266,161.0
18998.504467809504,409.0
18998.504530306738,362.0
18998.504592803976,418.0
18998.504655301214,446.0
18998.504717798452,451.0
18998.50478029569,539.0
18998.504842792925,358.0
18998.504905290163,327.0
18998.5049677874,463.0
18998.505030284636,68.0
18998.505092781874,1.0
18998.505155279112,231.0
18998.50521777635,-17.0
18998.505280273585,-125.0
18998.505342770823,-289.0
18998.50540526806,-331.0
18998.5054677653,-153.0
18998.505530262533,-465.0
18998.50559275977,-702.0
18998.50565525701,-376.0
18998.505717754248,-456.0
18998.505780251482,-700.0
18998.50584274872,-558.0
18998.50590524596,-412.0
18998.505967743196,-426.0
18998.50603024043,-647.0
18998.50609273767,-620.0
18998.506155234907,-456.0
18998.506217732145,-459.0
18998.50628022938,-64.0
18998.506342726618,272.0
18998.506405223856,85.0
18998.50646772109,-13.0
18998.50653021833,-162.0
18998.506592715567,-258.0
18998.506655212805,-466.0
18998.50671771004,-749.0
18998.506780207277,-658.0
18998.506842704515,-349.0
18998.506905201753,-370.0
18998.506967698988,-786.0
18998.507030196226,-949.0
18998.507092693464,-644.0
18998.507155190702,-309.0
18998.507217687937,-434.0
18998.507280185175,-773.0
18998.507342682413,-1010.0
18998.50740517965,-960.0
18998.507467676885,-1148.0
18998.507530174124,-1054.0
18998.50759267136,-853.0
18998.5076551686,-1151.0
18998.507717665834,-1196.0
18998.507780163072,-1002.0
18998.50784266031,-656.0
18998.50790515755,-646.0
18998.507967654783,-571.0
18998.50803015202,-501.0
18998.50809264926,-713.0
18998.508155146497,-989.0
18998.50821764373,-1156.0
18998.50828014097,-1052.0
18998.508342638208,-713.0
18998.508405135442,-618.0
18998.50846763268,-596.0
18998.50853012992,-668.0
18998.508592627157,-882.0
18998.50865512439,-541.0
18998.50871762163,-363.0
18998.508780118867,-713.0
18998.508842616106,-964.0
18998.50890511334,-895.0
18998.508967610578,-898.0
18998.509030107816,-905.0
18998.509092605054,-837.0
18998.50915510229,-861.0
18998.509217599527,-706.0
18998.509280096765,-368.0
18998.509342594003,-173.0
18998.509405091238,-222.0
18998.509467588476,83.0
18998.509530085714,465.0
18998.509592582952,766.0
18998.509655080186,358.0
18998.509717577424,-480.0
18998.509780074663,-223.0
18998.509842571897,142.0
18998.509905069135,149.0
18998.509967566373,92.0
18998.51003006361,94.0
18998.51009256085,322.0
18998.510155058084,570.0
18998.510217555322,592.0
18998.51028005256,361.0
18998.510342549795,226.0
18998.510405047033,342.0
18998.51046754427,604.0
18998.51053004151,272.0
18998.510592538743,14.0
18998.51065503598,246.0
18998.51071753322,457.0
18998.510780030458,560.0
18998.510842527692,454.0
18998.51090502493,212.0
18998.51096752217,94.0
18998.511030019406,345.0
18998.51109251664,518.0
18998.51115501388,652.0
18998.511217511117,646.0
18998.511280008355,525.0
18998.51134250559,776.0
18998.511405002828,972.0
18998.511467500066,325.0
18998.511529997304,12.0
18998.51159249454,345.0
18998.511654991777,430.0
18998.511717489015,582.0
18998.51177998625,656.0
18998.511842483487,622.0
18998.511904980725,777.0
18998.511967477963,938.0
18998.512029975198,725.0
18998.512092472436,693.0
18998.512154969674,574.0
18998.512217466912,642.0
18998.512279964147,870.0
18998.512342461385,794.0
18998.512404958623,839.0
18998.51246745586,1133.0
18998.512529953096,1314.0
18998.512592450334,1325.0
18998.51265494757,1376.0
18998.51271744481,1238.0
18998.512779942044,1100.0
18998.512842439282,1083.0
18998.51290493652,1107.0
18998.51296743376,1074.0
18998.513029930993,1053.0
18998.51309242823,823.0
18998.51315492547,555.0
18998.513217422707,611.0
18998.513279919942,498.0
18998.51334241718,271.0
18998.513404914418,243.0
18998.513467411656,218.0
18998.51352990889,109.0
18998.51359240613,-46.0
18998.513654903367,-275.0
18998.5137174006,-275.0
18998.51377989784,-218.0
18998.513842395078,-303.0
18998.513904892316,-39.0
18998.51396738955,24.0
18998.51402988679,-234.0
18998.514092384026,36.0
18998.514154881264,284.0
18998.5142173785,152.0
18998.514279875737,57.0
18998.514342372975,158.0
18998.514404870213,195.0
18998.514467367448,130.0
18998.514529864686,31.0
18998.514592361924,-129.0
18998.514654859162,-357.0
18998.514717356396,-297.0
18998.514779853635,-160.0
18998.514842350873,-140.0
18998.51490484811,-211.0
18998.514967345345,-332.0
18998.515029842583,-292.0
18998.51509233982,-90.0
18998.515154837056,30.0
18998.515217334294,68.0
18998.515279831532,-83.0
18998.51534232877,-406.0
18998.51540482601,-486.0
18998.515467323243,-437.0
18998.51552982048,-216.0
18998.51559231772,-250.0
18998.515654814953,-158.0
18998.51571731219,97.0
18998.51577980943,-101.0
18998.515842306668,-296.0
18998.515904803902,-358.0
18998.51596730114,-63.0
18998.51602979838,340.0
18998.516092295617,150.0
18998.51615479285,-272.0
18998.51621729009,-420.0
18998.516279787327,-269.0
18998.516342284565,-213.0
18998.5164047818,-375.0
18998.516467279038,-468.0
18998.516529776276,-605.0
18998.516592273514,-703.0
18998.51665477075,-478.0
18998.516717267987,-362.0
18998.516779765225,-387.0
18998.516842262463,-368.0
18998.516904759697,-445.0
18998.516967256935,-453.0
18998.517029754174,-678.0
18998.517092251408,-707.0
18998.517154748646,-466.0
18998.517217245884,61.0
18998.517279743122,290.0
18998.51734224036,15.0
18998.517404737595,-43.0
18998.517467234833,-249.0
18998.51752973207,-339.0
18998.517592229306,-256.0
18998.517654726544,-563.0
18998.51771722378,-997.0
18998.51777972102,-876.0
18998.517842218254,-550.0
18998.517904715492,-528.0
18998.51796721273,-452.0
18998.51802970997,-225.0
18998.518092207203,-186.0
18998.51815470444,-174.0
18998.51821720168,-275.0
18998.518279698917,-522.0
18998.518342196152,-357.0
18998.51840469339,-60.0
18998.518467190628,-254.0
18998.518529687866,-303.0
18998.5185921851,21.0
18998.51865468234,355.0
18998.518717179577,397.0
18998.518779676815,-194.0
18998.51884217405,-431.0
18998.518904671288,-214.0
18998.518967168526,-303.0
18998.51902966576,-640.0
18998.519092163,-767.0
18998.519154660236,-560.0
18998.519217157474,-602.0
18998.51927965471,-509.0
18998.519342151947,-598.0
18998.519404649185,-364.0
18998.519467146423,178.0
18998.519529643658,135.0
18998.519592140896,77.0
18998.519654638134,-13.0
18998.519717135372,-267.0
18998.519779632607,-323.0
18998.519842129845,-242.0
18998.519904627083,-412.0
18998.51996712432,-445.0
18998.520029621555,-232.0
18998.520092118793,182.0
18998.52015461603,362.0
18998.52021711327,-57.0
18998.520279610504,-206.0
18998.520342107742,341.0
18998.52040460498,670.0
18998.52046710222,500.0
18998.520529599453,294.0
18998.52059209669,202.0
18998.52065459393,338.0
18998.520717091167,502.0
18998.5207795884,454.0
18998.52084208564,556.0
18998.520904582878,541.0
18998.520967080112,489.0
18998.52102957735,406.0
18998.52109207459,187.0
18998.521154571827,-361.0
18998.52121706906,-837.0
18998.5212795663,-384.0
18998.521342063537,14.0
18998.521404560775,-149.0
18998.52146705801,-437.0
18998.521529555248,-153.0
18998.521592052486,327.0
18998.521654549724,550.0
18998.52171704696,728.0
18998.521779544197,716.0
18998.521842041435,425.0
18998.521904538673,600.0
18998.521967035907,788.0
18998.522029533146,453.0
18998.522092030384,33.0
18998.52215452762,-80.0
18998.522217024856,219.0
18998.522279522094,437.0
18998.522342019332,185.0
18998.522404516567,-310.0
18998.522467013805,-65.0
18998.522529511043,557.0
18998.52259200828,617.0
18998.52265450552,412.0
18998.522717002754,-27.0
18998.522779499992,-160.0
18998.52284199723,75.0
18998.522904494464,534.0
18998.522966991703,941.0
18998.52302948894,553.0
18998.52309198618,310.0
18998.523154483413,515.0
18998.52321698065,664.0
18998.52327947789,551.0
18998.523341975128,235.0
18998.523404472362,287.0
18998.5234669696,643.0
18998.52352946684,609.0
18998.523591964076,346.0
18998.52365446131,353.0
18998.52371695855,438.0
18998.523779455787,792.0
18998.523841953025,1065.0
18998.52390445026,549.0
18998.523966947498,-120.0
18998.524029444736,-232.0
18998.524091941974,-142.0
18998.52415443921,358.0
18998.524216936446,546.0
18998.524279433685,143.0
18998.52434193092,355.0
18998.524404428157,775.0
18998.524466925395,862.0
18998.524529422633,696.0
18998.524591919868,608.0
18998.524654417106,714.0
18998.524716914344,731.0
18998.524779411582,375.0
18998.524841908817,-131.0
18998.524904406055,-303.0
18998.524966903293,-152.0
18998.52502940053,-24.0
18998.525091897765,11.0
18998.525154395003,1.0
18998.52521689224,-304.0
18998.52527938948,-352.0
18998.525341886714,-76.0
18998.525404383952,-49.0
18998.52546688119,-317.0
18998.52552937843,-476.0
18998.525591875663,-188.0
18998.5256543729,-48.0
18998.52571687014,-296.0
18998.525779367377,-389.0
18998.52584186461,80.0
18998.52590436185,552.0
18998.525966859088,480.0
18998.526029356326,323.0
18998.52609185356,462.0
18998.5261543508,426.0
18998.526216848037,147.0
18998.52627934527,130.0
18998.52634184251,39.0
18998.526404339747,-381.0
18998.526466836985,-384.0
18998.52652933422,-158.0
18998.526591831458,-124.0
18998.526654328696,-160.0
18998.526716825934,-326.0
18998.52677932317,-394.0
18998.526841820407,-292.0
18998.526904317645,-602.0
18998.526966814883,-1037.0
18998.527029312118,-912.0
18998.527091809356,-869.0
18998.527154306594,-796.0
18998.527216803832,-496.0
18998.527279301066,-494.0
18998.527341798304,-720.0
18998.527404295543,-650.0
18998.52746679278,-477.0
18998.527529290015,-342.0
18998.527591787253,-200.0
18998.52765428449,-211.0
18998.527716781726,-17.0
18998.527779278964,105.0
18998.527841776202,-34.0
18998.52790427344,244.0
18998.527966770678,571.0
18998.528029267913,610.0
18998.52809176515,308.0
18998.52815426239,-122.0
18998.528216759623,-206.0
18998.52827925686,-504.0
18998.5283417541,-845.0
18998.528404251338,-672.0
18998.528466748572,-237.0
18998.52852924581,-321.0
18998.52859174305,-544.0
18998.528654240286,-449.0
18998.52871673752,-337.0
18998.52877923476,-181.0
18998.528841731997,-360.0
18998.528904229235,-475.0
18998.52896672647,-590.0
18998.529029223708,-690.0
18998.529091720946,-865.0
18998.529154218184,-746.0
18998.52921671542,-425.0
18998.529279212657,-433.0
18998.529341709895,-277.0
18998.529404207133,-162.0
18998.529466704367,-528.0
18998.529529201605,-972.0
18998.529591698843,-1117.0
18998.529654196078,-957.0
18998.529716693316,-697.0
18998.529779190554,-615.0
18998.529841687792,-459.0
18998.529904185027,-166.0
18998.529966682265,-109.0
18998.530029179503,-158.0
18998.53009167674,215.0
18998.530154173975,156.0
18998.530216671214,-73.0
18998.53027916845,-129.0
18998.53034166569,-121.0
18998.530404162924,-254.0
18998.530466660162,-264.0
18998.5305291574,407.0
18998.53059165464,501.0
18998.530654151873,400.0
18998.53071664911,194.0
18998.53077914635,-57.0
18998.530841643587,18.0
18998.53090414082,-83.0
18998.53096663806,68.0
18998.531029135298,166.0
18998.531091632536,-104.0
18998.53115412977,-226.0
18998.53121662701,-93.0
18998.531279124247,-45.0
18998.531341621485,80.0
18998.53140411872,443.0
18998.531466615957,497.0
18998.531529113196,418.0
18998.53159161043,208.0
18998.531654107668,6.0
18998.531716604906,244.0
18998.531779102144,254.0
18998.53184159938,48.0
18998.531904096617,44.0
18998.531966593855,-6.0
18998.532029091093,23.0
18998.532091588328,361.0
18998.532154085566,561.0
18998.532216582804,384.0
18998.532279080042,117.0
18998.532341577276,362.0
18998.532404074514,413.0
18998.532466571753,130.0
18998.53252906899,104.0
18998.532591566225,206.0
18998.532654063463,362.0
18998.5327165607,604.0
18998.53277905794,761.0
18998.532841555174,625.0
18998.532904052412,652.0
18998.53296654965,929.0
18998.533029046885,1000.0
18998.533091544123,1073.0
18998.53315404136,1073.0
18998.5332165386,652.0
18998.533279035837,344.0
18998.53334153307,381.0
18998.53340403031,365.0
18998.533466527548,189.0
18998.533529024782,259.0
18998.53359152202,747.0
18998.53365401926,1303.0
18998.533716516496,1439.0
18998.53377901373,949.0
18998.53384151097,731.0
18998.533904008207,808.0
18998.533966505445,818.0
18998.53402900268,393.0
18998.534091499918,-113.0
18998.534153997156,-327.0
18998.534216494394,-281.0
18998.53427899163,186.0
18998.534341488867,475.0
18998.534403986105,424.0
18998.534466483343,450.0
18998.534528980577,766.0
18998.534591477815,664.0
18998.534653975054,53.0
18998.53471647229,-229.0
18998.534778969526,-334.0
18998.534841466764,-178.0
18998.534903964002,-74.0
18998.534966461237,-256.0
18998.535028958475,-533.0
18998.535091455713,-529.0
18998.53515395295,87.0
18998.535216450186,311.0
18998.535278947424,-421.0
18998.53534144466,-750.0
18998.5354039419,-444.0
18998.535466439134,-239.0
18998.535528936372,-323.0
18998.53559143361,-429.0
18998.53565393085,-212.0
18998.535716428083,29.0
18998.53577892532,-144.0
18998.53584142256,-70.0
18998.535903919797,45.0
18998.535966417032,-55.0
18998.53602891427,-54.0
18998.536091411508,44.0
18998.536153908746,131.0
18998.53621640598,-360.0
18998.53627890322,-512.0
18998.536341400457,-202.0
18998.536403897695,61.0
18998.53646639493,-24.0
18998.536528892168,-177.0
18998.536591389406,66.0
18998.536653886644,127.0
18998.53671638388,194.0
18998.536778881116,-131.0
18998.536841378354,-323.0
18998.53690387559,-305.0
18998.536966372827,-131.0
18998.537028870065,103.0
18998.537091367303,280.0
18998.537153864538,669.0
18998.537216361776,606.0
18998.537278859014,451.0
18998.537341356252,130.0
18998.537403853486,-99.0
18998.537466350725,-184.0
18998.537528847963,-344.0
18998.5375913452,-186.0
18998.537653842435,-124.0
18998.537716339673,-255.0
18998.53777883691,-133.0
18998.53784133415,154.0
18998.537903831384,99.0
18998.537966328622,497.0
18998.53802882586,795.0
18998.5380913231,510.0
18998.538153820333,411.0
18998.53821631757,383.0
18998.53827881481,482.0
18998.538341312043,260.0
18998.53840380928,-26.0
18998.53846630652,198.0
18998.538528803758,497.0
18998.538591300996,750.0
18998.53865379823,764.0
18998.53871629547,777.0
18998.538778792707,816.0
18998.53884128994,411.0
18998.53890378718,30.0
18998.538966284417,-379.0
18998.539028781655,-437.0
18998.53909127889,-447.0
18998.539153776128,-464.0
18998.539216273366,-423.0
18998.539278770604,-811.0
18998.53934126784,-1001.0
18998.539403765077,-968.0
18998.539466262315,-635.0
18998.539528759553,-520.0
18998.539591256787,-642.0
18998.539653754025,-604.0
18998.539716251264,-744.0
18998.5397787485,-606.0
18998.539841245736,-713.0
18998.539903742974,-751.0
18998.539966240212,-307.0
18998.54002873745,-46.0
18998.540091234685,384.0
18998.540153731923,218.0
18998.54021622916,-185.0
18998.540278726396,26.0
18998.540341223634,150.0
18998.540403720872,266.0
18998.54046621811,85.0
18998.540528715348,-221.0
18998.540591212583,-524.0
18998.54065370982,-776.0
18998.54071620706,-1023.0
18998.540778704293,-1623.0
18998.54084120153,-1813.0
18998.54090369877,-1501.0
18998.540966196008,-1530.0
18998.541028693242,-1564.0
18998.54109119048,-1520.0
18998.541153687718,-1491.0
18998.541216184956,-1165.0
18998.54127868219,-928.0
18998.54134117943,-1085.0
18998.541403676667,-1280.0
18998.541466173905,-1067.0
18998.54152867114,-678.0
18998.541591168378,-492.0
18998.541653665616,-96.0
18998.541716162854,135.0
18998.54177866009,-155.0
18998.541841157326,72.0
18998.541903654565,323.0
18998.541966151803,228.0
18998.542028649037,258.0
18998.542091146275,-6.0
18998.542153643513,28.0
18998.542216140748,169.0
18998.542278637986,-19.0
18998.542341135224,-205.0
18998.542403632462,-49.0
18998.542466129697,129.0
18998.542528626935,-284.0
18998.542591124173,-519.0
18998.54265362141,-560.0
18998.542716118645,-411.0
18998.542778615883,-206.0
18998.54284111312,-7.0
18998.54290361036,222.0
18998.542966107594,-108.0
18998.543028604832,-367.0
18998.54309110207,-136.0
18998.54315359931,-54.0
18998.543216096543,-553.0
18998.54327859378,-728.0
18998.54334109102,-159.0
18998.543403588257,92.0
18998.54346608549,21.0
18998.54352858273,23.0
18998.543591079968,318.0
18998.543653577206,383.0
18998.54371607444,141.0
18998.54377857168,-112.0
18998.543841068917,27.0
18998.543903566155,436.0
18998.54396606339,692.0
18998.544028560627,1207.0
18998.544091057865,1214.0
18998.5441535551,716.0
18998.544216052338,860.0
18998.544278549576,765.0
18998.544341046814,440.0
18998.54440354405,613.0
18998.544466041287,652.0
18998.544528538525,680.0
18998.544591035763,855.0
18998.544653532997,985.0
18998.544716030236,618.0
18998.544778527474,403.0
18998.54484102471,696.0
18998.544903521946,601.0
18998.544966019184,586.0
18998.545028516422,644.0
18998.54509101366,300.0
18998.545153510895,205.0
18998.545216008133,285.0
18998.54527850537,231.0
18998.54534100261,394.0
18998.545403499844,749.0
18998.545465997082,830.0
18998.54552849432,892.0
18998.545590991554,928.0
18998.545653488793,770.0
18998.54571598603,427.0
18998.54577848327,507.0
18998.545840980507,1055.0
18998.54590347774,641.0
18998.54596597498,-75.0
18998.546028472218,27.0
18998.546090969452,321.0
18998.54615346669,643.0
18998.54621596393,923.0
18998.546278461166,1013.0
18998.5463409584,685.0
18998.54640345564,479.0
18998.546465952877,653.0
18998.546528450115,906.0
18998.54659094735,943.0
18998.546653444588,936.0
18998.546715941826,722.0
18998.546778439064,429.0
18998.5468409363,368.0
18998.546903433536,338.0
18998.546965930775,740.0
18998.547028428013,1188.0
18998.547090925247,1087.0
18998.547153422485,695.0
18998.547215919723,292.0
18998.54727841696,370.0
18998.547340914196,348.0
18998.547403411434,114.0
18998.547465908672,260.0
18998.547528405907,420.0
18998.547590903145,79.0
18998.547653400383,106.0
18998.54771589762,621.0
18998.547778394855,994.0
18998.547840892094,913.0
18998.54790338933,632.0
18998.54796588657,160.0
18998.548028383804,-420.0
18998.548090881042,-332.0
18998.54815337828,-195.0
18998.54821587552,-87.0
18998.548278372753,334.0
18998.54834086999,406.0
18998.54840336723,236.0
18998.548465864467,370.0
18998.5485283617,452.0
18998.54859085894,379.0
18998.548653356178,328.0
18998.548715853416,416.0
18998.54877835065,270.0
18998.54884084789,27.0
18998.548903345127,290.0
18998.548965842365,497.0
18998.5490283396,151.0
18998.549090836837,-395.0
18998.549153334076,-297.0
18998.549215831314,-119.0
18998.549278328548,-418.0
18998.549340825786,-476.0
18998.549403323024,-446.0
18998.54946582026,-614.0
18998.549528317497,-694.0
18998.549590814735,-619.0
18998.549653311973,-721.0
18998.549715809208,-977.0
18998.549778306446,-785.0
18998.549840803684,-507.0
18998.549903300922,-517.0
18998.549965798156,-760.0
18998.550028295394,-862.0
18998.550090792633,-689.0
18998.55015328987,-695.0
18998.550215787105,-799.0
18998.550278284343,-583.0
18998.55034078158,-465.0
18998.55040327882,-770.0
18998.550465776054,-1126.0
18998.550528273292,-1208.0
18998.55059077053,-1046.0
18998.55065326777,-1004.0
18998.550715765003,-927.0
18998.55077826224,-371.0
18998.55084075948,96.0
18998.550903256713,34.0
18998.55096575395,36.0
18998.55102825119,265.0
18998.551090748428,317.0
18998.551153245666,262.0
18998.5512157429,-193.0
18998.55127824014,-553.0
18998.551340737376,-282.0
18998.55140323461,36.0
18998.55146573185,29.0
18998.551528229087,49.0
18998.551590726325,-6.0
18998.55165322356,-109.0
18998.551715720798,197.0
18998.551778218036,393.0
18998.551840715274,-118.0
18998.55190321251,-378.0
18998.551965709747,-45.0
18998.552028206985,484.0
18998.552090704223,535.0
18998.552153201457,-5.0
18998.552215698695,-10.0
18998.552278195933,600.0
18998.55234069317,937.0
18998.552403190406,654.0
18998.552465687644,554.0
18998.552528184882,594.0
18998.55259068212,778.0
18998.552653179355,903.0
18998.552715676593,603.0
18998.55277817383,486.0
18998.552840671065,586.0
18998.552903168304,1016.0
18998.55296566554,942.0
18998.55302816278,195.0
18998.553090660014,138.0
18998.553153157252,418.0
18998.55321565449,705.0
18998.55327815173,935.0
18998.553340648963,709.0
18998.5534031462,323.0
18998.55346564344,387.0
18998.553528140677,489.0
18998.553590637912,116.0
18998.55365313515,-356.0
18998.553715632388,-500.0
18998.553778129626,-266.0
18998.55384062686,-263.0
18998.5539031241,-269.0
18998.553965621337,-298.0
18998.554028118575,-226.0
18998.55409061581,2.0
18998.554153113048,4.0
18998.554215610286,-234.0
18998.554278107524,-476.0
18998.55434060476,-727.0
18998.554403101996,-755.0
18998.554465599234,-421.0
18998.554528096472,-545.0
18998.554590593707,-746.0
18998.554653090945,-413.0
18998.554715588183,-141.0
18998.554778085418,-61.0
18998.554840582656,337.0
18998.554903079894,491.0
18998.554965577132,176.0
18998.555028074366,-50.0
18998.555090571605,-215.0
18998.555153068843,-315.0
18998.55521556608,-612.0
18998.555278063315,-687.0
18998.555340560553,-332.0
18998.55540305779,-147.0
18998.55546555503,-126.0
18998.555528052264,-419.0
18998.555590549502,-572.0
18998.55565304674,-630.0
18998.55571554398,-724.0
18998.555778041213,-749.0
18998.55584053845,-1046.0
18998.55590303569,-1205.0
18998.555965532927,-806.0
18998.55602803016,-183.0
18998.5560905274,36.0
18998.556153024638,345.0
18998.556215521872,553.0
18998.55627801911,421.0
18998.55634051635,257.0
18998.556403013587,-20.0
18998.556465510825,-229.0
18998.55652800806,-296.0
18998.556590505297,6.0
18998.556653002535,318.0
18998.55671549977,294.0
18998.556777997008,109.0
18998.556840494246,-172.0
18998.556902991484,52.0
18998.55696548872,-80.0
18998.557027985957,-84.0
18998.557090483195,-428.0
18998.557152980433,-686.0
18998.557215477667,-229.0
18998.557277974905,-94.0
18998.557340472144,-32.0
18998.55740296938,-95.0
18998.557465466616,-53.0
18998.557527963854,-3.0
18998.557590461092,139.0
18998.55765295833,-41.0
18998.557715455565,-276.0
18998.557777952803,28.0
18998.55784045004,128.0
18998.55790294728,103.0
18998.557965444514,380.0
18998.55802794175,430.0
18998.55809043899,427.0
18998.558152936224,601.0
18998.558215433462,940.0
18998.5582779307,984.0
18998.55834042794,552.0
18998.558402925173,423.0
18998.55846542241,511.0
18998.55852791965,618.0
18998.558590416887,734.0
18998.558652914122,650.0
18998.55871541136,455.0
18998.558777908598,527.0
18998.558840405836,516.0
18998.55890290307,280.0
18998.55896540031,-131.0
18998.559027897547,-314.0
18998.559090394785,-26.0
18998.55915289202,357.0
18998.559215389258,170.0
18998.559277886496,-469.0
18998.559340383734,-468.0
18998.55940288097,27.0
18998.559465378206,138.0
18998.559527875444,-183.0
18998.559590372683,-645.0
18998.559652869917,-630.0
18998.559715367155,-7.0
18998.559777864393,139.0
18998.55984036163,-520.0
18998.559902858866,-1016.0
18998.559965356104,-986.0
18998.560027853342,-676.0
18998.560090350577,-851.0
18998.560152847815,-1360.0
18998.560215345053,-1305.0
18998.56027784229,-565.0
18998.560340339525,-124.0
18998.560402836763,-448.0
18998.560465334,-802.0
18998.56052783124,-819.0
18998.560590328474,-104.0
18998.560652825712,460.0
18998.56071532295,259.0
18998.56077782019,-334.0
18998.560840317423,-670.0
18998.56090281466,-108.0
18998.5609653119,144.0
18998.561027809137,-315.0
18998.56109030637,-689.0
18998.56115280361,-805.0
18998.561215300848,-549.0
18998.561277798086,-604.0
18998.56134029532,-962.0
18998.56140279256,-1031.0
18998.561465289797,-949.0
18998.56152778703,-641.0
18998.56159028427,-492.0
18998.561652781507,-882.0
18998.561715278745,-1277.0
18998.561777775984,-870.0
18998.561840273218,-242.0
18998.561902770456,-43.0
18998.561965267694,-91.0
18998.56202776493,-388.0
18998.562090262167,-262.0
18998.562152759405,161.0
18998.562215256643,403.0
18998.562277753877,208.0
18998.562340251116,311.0
18998.562402748354,951.0
18998.56246524559,1187.0
18998.562527742826,867.0
18998.562590240064,740.0
18998.562652737302,698.0
18998.56271523454,612.0
18998.562777731775,998.0
18998.562840229013,891.0
18998.56290272625,355.0
18998.56296522349,195.0
18998.563027720724,476.0
18998.563090217962,823.0
18998.5631527152,1024.0
18998.563215212438,627.0
18998.563277709673,420.0
18998.56334020691,787.0
18998.56340270415,492.0
18998.563465201383,179.0
18998.56352769862,257.0
18998.56359019586,313.0
18998.563652693098,537.0
18998.563715190336,551.0
18998.56377768757,652.0
18998.56384018481,762.0
18998.563902682046,618.0
18998.56396517928,902.0
18998.56402767652,1211.0
18998.564090173757,799.0
18998.564152670995,355.0
18998.56421516823,474.0
18998.564277665468,489.0
18998.564340162706,47.0
18998.564402659944,-70.0
18998.56446515718,627.0
18998.564527654416,556.0
18998.564590151655,89.0
18998.564652648893,180.0
18998.564715146127,336.0
18998.564777643365,737.0
18998.564840140603,696.0
18998.56490263784,488.0
18998.564965135076,530.0
18998.565027632314,100.0
18998.565090129552,-43.0
18998.56515262679,-86.0
18998.565215124025,256.0
18998.565277621263,751.0
18998.5653401185,765.0
18998.565402615735,618.0
18998.565465112973,542.0
18998.56552761021,752.0
18998.56559010745,584.0
18998.565652604684,350.0
18998.565715101922,318.0
18998.56577759916,119.0
18998.5658400964,-251.0
18998.565902593633,-204.0
18998.56596509087,342.0
18998.56602758811,349.0
18998.566090085347,386.0
18998.56615258258,926.0
18998.56621507982,858.0
18998.566277577058,295.0
18998.566340074296,318.0
18998.56640257153,900.0
18998.56646506877,964.0
18998.566527566007,649.0
18998.566590063245,444.0
18998.56665256048,461.0
18998.566715057717,391.0
18998.566777554955,217.0
18998.566840052194,219.0
18998.566902549428,102.0
18998.566965046666,-211.0
18998.567027543904,-507.0
18998.567090041142,-612.0
18998.567152538377,-597.0
18998.567215035615,-549.0
18998.567277532853,-339.0
18998.567340030088,-383.0
18998.567402527326,-728.0
18998.567465024564,-1007.0
18998.567527521802,-1185.0
18998.567590019036,-902.0
18998.567652516274,-609.0
18998.567715013512,-662.0
18998.56777751075,-718.0
18998.567840007985,-656.0
18998.567902505223,-656.0
18998.56796500246,-728.0
18998.5680274997,-849.0
18998.568089996934,-762.0
18998.568152494172,-281.0
18998.56821499141,-71.0
18998.568277488648,-177.0
18998.568339985883,-365.0
18998.56840248312,-546.0
18998.56846498036,-623.0
18998.568527477597,-486.0
18998.56858997483,-531.0
18998.56865247207,-1127.0
18998.568714969308,-1415.0
18998.568777466542,-1141.0
18998.56883996378,-544.0
18998.56890246102,-315.0
18998.568964958256,-550.0
18998.569027455495,-646.0
18998.56908995273,-545.0
18998.569152449967,-529.0
18998.569214947205,-944.0
18998.56927744444,-1206.0
18998.569339941678,-1138.0
18998.569402438916,-690.0
18998.569464936154,-286.0
18998.56952743339,-319.0
18998.569589930627,-378.0
18998.569652427865,-228.0
18998.569714925103,70.0
18998.569777422337,-98.0
18998.569839919575,-623.0
18998.569902416813,-1221.0
18998.56996491405,-1005.0
18998.570027411286,-455.0
18998.570089908524,-360.0
18998.570152405762,-348.0
18998.570214903,-363.0
18998.570277400235,-378.0
18998.570339897473,-474.0
18998.57040239471,-505.0
18998.57046489195,-521.0
18998.570527389184,-740.0
18998.57058988642,-840.0
18998.57065238366,-727.0
18998.570714880894,-416.0
18998.570777378132,-378.0
18998.57083987537,-420.0
18998.57090237261,24.0
18998.570964869843,176.0
18998.57102736708,58.0
18998.57108986432,-133.0
18998.571152361557,-226.0
18998.57121485879,-39.0
18998.57127735603,160.0
18998.571339853268,296.0
18998.571402350506,293.0
18998.57146484774,330.0
18998.57152734498,582.0
18998.571589842217,606.0
18998.571652339455,510.0
18998.57171483669,777.0
18998.571777333927,1100.0
18998.571839831166,1235.0
18998.571902328404,1208.0
18998.571964825638,1125.0
18998.572027322876,1313.0
18998.572089820114,1242.0
18998.572152317352,998.0
18998.572214814587,1087.0
18998.572277311825,470.0
18998.572339809063,-143.0
18998.5724023063,277.0
18998.572464803536,469.0
18998.572527300774,255.0
18998.572589798012,413.0
18998.572652295246,573.0
18998.572714792484,422.0
18998.572777289723,189.0
18998.57283978696,148.0
18998.572902284195,373.0
18998.572964781433,319.0
18998.57302727867,271.0
18998.57308977591,283.0
18998.573152273144,425.0
18998.573214770382,328.0
18998.57327726762,247.0
18998.57333976486,874.0
18998.573402262093,779.0
18998.57346475933,460.0
18998.57352725657,709.0
18998.573589753807,921.0
18998.57365225104,904.0
18998.57371474828,660.0
18998.573777245518,605.0
18998.573839742756,722.0
18998.57390223999,968.0
18998.57396473723,842.0
18998.574027234466,477.0
18998.5740897317,659.0
18998.57415222894,1046.0
18998.574214726177,1163.0
18998.574277223415,1005.0
18998.574339720653,737.0
18998.574402217888,858.0
18998.574464715126,994.0
18998.574527212364,677.0
18998.5745897096,412.0
18998.574652206837,310.0
18998.574714704075,82.0
18998.574777201313,82.0
18998.574839698547,-7.0
18998.574902195785,-215.0
18998.574964693024,-42.0
18998.57502719026,261.0
18998.575089687496,305.0
18998.575152184734,269.0
18998.575214681972,285.0
18998.57527717921,-63.0
18998.575339676445,-310.0
18998.575402173683,-149.0
18998.57546467092,-73.0
18998.57552716816,-203.0
18998.575589665394,-250.0
18998.57565216263,-300.0
18998.57571465987,-341.0
18998.575777157108,-603.0
18998.575839654342,-974.0
18998.57590215158,-880.0
18998.57596464882,-528.0
18998.576027146053,-480.0
18998.57608964329,-842.0
18998.57615214053,-1057.0
18998.576214637767,-1238.0
18998.576277135002,-1253.0
18998.57633963224,-1175.0
18998.576402129478,-1265.0
18998.576464626716,-1381.0
18998.57652712395,-1380.0
18998.57658962119,-1152.0
18998.576652118427,-1001.0
18998.576714615665,-985.0
18998.5767771129,-954.0
18998.576839610138,-882.0
18998.576902107376,-678.0
18998.576964604614,-699.0
18998.57702710185,-727.0
18998.577089599086,-407.0
18998.577152096324,-145.0
18998.577214593563,-323.0
18998.577277090797,-678.0
18998.577339588035,-707.0
18998.577402085273,-780.0
18998.57746458251,-698.0
18998.577527079746,-89.0
18998.577589576984,110.0
18998.577652074222,-91.0
18998.57771457146,-146.0
18998.577777068695,-23.0
18998.577839565933,64.0
18998.57790206317,-80.0
18998.577964560405,-28.0
18998.578027057643,-30.0
18998.57808955488,-182.0
18998.57815205212,3.0
18998.578214549354,1.0
18998.578277046592,-245.0
18998.57833954383,-54.0
18998.57840204107,185.0
18998.578464538303,317.0
18998.57852703554,333.0
18998.57858953278,129.0
18998.578652030017,62.0
18998.57871452725,393.0
18998.57877702449,302.0
18998.578839521728,-73.0
18998.578902018966,-142.0
18998.5789645162,61.0
18998.57902701344,507.0
18998.579089510677,664.0
18998.579152007915,875.0
18998.57921450515,794.0
18998.579277002387,791.0
18998.579339499625,758.0
18998.57940199686,321.0
18998.579464494098,213.0
18998.579526991336,57.0
18998.579589488574,-257.0
18998.579651985812,-270.0
18998.579714483047,96.0
18998.579776980285,298.0
18998.579839477523,415.0
18998.579901974757,509.0
18998.579964471995,313.0
18998.580026969234,458.0
18998.58008946647,357.0
18998.580151963706,147.0
18998.580214460944,262.0
18998.580276958182,245.0
18998.58033945542,294.0
18998.580401952655,423.0
18998.580464449893,540.0
18998.58052694713,360.0
18998.58058944437,549.0
18998.580651941604,640.0
18998.580714438842,429.0
18998.58077693608,323.0
18998.580839433318,126.0
18998.580901930552,155.0
18998.58096442779,122.0
18998.58102692503,-204.0
18998.581089422267,-250.0
18998.5811519195,133.0
18998.58121441674,400.0
18998.581276913977,527.0
18998.581339411212,405.0
18998.58140190845,241.0
18998.581464405688,298.0
18998.581526902926,354.0
18998.58158940016,277.0
18998.5816518974,366.0
18998.581714394637,311.0
18998.581776891875,167.0
18998.58183938911,199.0
18998.581901886348,352.0
18998.581964383586,549.0
18998.582026880824,453.0
18998.58208937806,137.0
18998.582151875296,204.0
18998.582214372535,306.0
18998.582276869773,194.0
18998.582339367007,242.0
18998.582401864245,95.0
18998.582464361483,-176.0
18998.58252685872,-140.0
18998.582589355956,-141.0
18998.582651853194,-62.0
18998.582714350432,116.0
18998.58277684767,224.0
18998.582839344905,588.0
18998.582901842143,829.0
18998.58296433938,611.0
18998.58302683662,662.0
18998.583089333853,848.0
18998.58315183109,664.0
18998.58321432833,597.0
18998.583276825564,649.0
18998.583339322802,496.0
18998.58340182004,116.0
18998.58346431728,-173.0
18998.583526814513,-325.0
18998.58358931175,-290.0
18998.58365180899,-568.0
18998.583714306227,-857.0
18998.58377680346,-1029.0
18998.5838393007,-1118.0
18998.583901797938,-832.0
18998.583964295176,-854.0
18998.58402679241,-974.0
18998.58408928965,-845.0
18998.584151786887,-562.0
18998.584214284125,-465.0
18998.58427678136,-589.0
18998.584339278597,-574.0
18998.584401775835,-277.0
18998.584464273074,-57.0
18998.584526770308,-371.0
18998.584589267546,-415.0
18998.584651764784,-594.0
18998.58471426202,-761.0
18998.584776759257,-416.0
18998.584839256495,-406.0
18998.584901753733,-504.0
18998.58496425097,-558.0
18998.585026748206,-348.0
18998.585089245444,-93.0
18998.58515174268,-177.0
18998.585214239916,-89.0
18998.585276737154,230.0
18998.585339234392,285.0
18998.58540173163,-139.0
18998.585464228865,-255.0
18998.585526726103,-46.0
18998.58558922334,-160.0
18998.58565172058,-437.0
18998.585714217814,-487.0
18998.585776715052,-141.0
18998.58583921229,58.0
18998.585901709528,-64.0
18998.585964206763,-288.0
18998.586026704,-455.0
18998.58608920124,-473.0
18998.586151698477,-462.0
18998.58621419571,-620.0
18998.58627669295,-495.0
18998.586339190188,-353.0
18998.586401687426,-419.0
18998.58646418466,-60.0
18998.5865266819,192.0
18998.586589179136,161.0
18998.58665167637,32.0
18998.58671417361,49.0
18998.586776670847,151.0
18998.586839168085,-127.0
18998.586901665323,-438.0
18998.586964162558,-309.0
18998.587026659796,129.0
18998.587089157034,-35.0
18998.58715165427,-241.0
18998.587214151506,-142.0
18998.587276648745,-55.0
18998.587339145983,349.0
18998.587401643217,336.0
18998.587464140455,185.0
18998.587526637693,111.0
18998.58758913493,-36.0
18998.587651632166,143.0
18998.587714129404,321.0
18998.587776626642,290.0
18998.58783912388,255.0
18998.587901621115,448.0
18998.587964118353,511.0
18998.58802661559,529.0
18998.58808911283,519.0
18998.588151610064,353.0
18998.5882141073,368.0
18998.58827660454,386.0
18998.588339101778,-135.0
18998.588401599012,-594.0
18998.58846409625,-522.0
18998.58852659349,-468.0
18998.588589090723,-344.0
18998.58865158796,-31.0
18998.5887140852,-48.0
18998.588776582437,-205.0
18998.58883907967,-230.0
18998.58890157691,102.0
18998.588964074148,135.0
18998.589026571386,-162.0
18998.58908906862,-247.0
18998.58915156586,-100.0
18998.589214063097,144.0
18998.589276560335,162.0
18998.58933905757,116.0
18998.589401554807,131.0
18998.589464052046,398.0
18998.589526549284,597.0
18998.589589046518,549.0
18998.589651543756,283.0
18998.589714040994,-6.0
18998.589776538232,-359.0
18998.589839035467,-131.0
18998.589901532705,202.0
18998.589964029943,-124.0
18998.59002652718,21.0
18998.590089024416,510.0
18998.590151521654,877.0
18998.590214018892,1041.0
18998.59027651613,605.0
18998.590339013364,364.0
18998.590401510603,706.0
18998.59046400784,704.0
18998.590526505075,300.0
18998.590589002313,88.0
18998.59065149955,111.0
18998.59071399679,247.0
18998.590776494024,578.0
18998.590838991262,488.0
18998.5909014885,109.0
18998.59096398574,45.0
18998.591026482973,204.0
18998.59108898021,526.0
18998.59115147745,305.0
18998.591213974687,-103.0
18998.59127647192,-159.0
18998.59133896916,-147.0
18998.591401466398,-213.0
18998.591463963636,-302.0
18998.59152646087,-316.0
18998.59158895811,7.0
18998.591651455346,398.0
18998.591713952585,405.0
18998.59177644982,50.0
18998.591838947057,-40.0
18998.591901444295,347.0
18998.59196394153,230.0
18998.592026438768,-130.0
18998.592088936006,-338.0
18998.592151433244,-723.0
18998.592213930482,-711.0
18998.592276427717,-329.0
18998.592338924955,84.0
18998.592401422193,379.0
18998.592463919427,516.0
18998.592526416665,280.0
18998.592588913903,2.0
18998.59265141114,-70.0
18998.592713908376,-163.0
18998.592776405614,138.0
18998.592838902852,60.0
18998.59290140009,-136.0
18998.592963897325,48.0
18998.593026394563,-25.0
18998.5930888918,-89.0
18998.59315138904,86.0
18998.593213886274,336.0
18998.59327638351,593.0
18998.59333888075,277.0
18998.593401377988,-106.0
18998.593463875222,144.0
18998.59352637246,226.0
18998.5935888697,230.0
18998.593651366937,112.0
18998.59371386417,-87.0
18998.59377636141,-110.0
18998.593838858647,-114.0
18998.593901355882,27.0
18998.59396385312,355.0
18998.594026350358,354.0
18998.594088847596,197.0
18998.59415134483,83.0
18998.59421384207,-191.0
18998.594276339307,-267.0
18998.594338836545,-307.0
18998.59440133378,-156.0
18998.594463831017,11.0
18998.594526328256,-374.0
18998.594588825494,-628.0
18998.594651322728,-486.0
18998.594713819966,-430.0
18998.594776317204,-483.0
18998.594838814442,-464.0
18998.594901311677,-302.0
18998.594963808915,-85.0
18998.595026306153,-268.0
18998.59508880339,-520.0
18998.595151300626,-202.0
18998.595213797864,377.0
18998.595276295102,528.0
18998.59533879234,390.0
18998.595401289575,325.0
18998.595463786813,204.0
18998.59552628405,93.0
18998.59558878129,218.0
18998.595651278523,346.0
18998.59571377576,214.0
18998.595776273,-78.0
18998.595838770234,-183.0
18998.595901267472,-114.0
18998.59596376471,-74.0
18998.59602626195,-6.0
18998.596088759183,-179.0
18998.59615125642,-396.0
18998.59621375366,-481.0
18998.596276250897,-539.0
18998.59633874813,-568.0
18998.59640124537,-362.0
18998.596463742608,61.0
18998.596526239846,343.0
18998.59658873708,593.0
18998.59665123432,474.0
18998.596713731557,227.0
18998.596776228795,494.0
18998.59683872603,707.0
18998.596901223267,584.0
18998.596963720505,409.0
18998.597026217743,327.0
18998.597088714978,219.0
18998.597151212216,217.0
18998.597213709454,376.0
18998.59727620669,122.0
18998.597338703927,11.0
18998.597401201165,553.0
18998.597463698403,674.0
18998.59752619564,302.0
18998.597588692875,310.0
18998.597651190114,304.0
18998.59771368735,152.0
18998.597776184586,141.0
18998.597838681824,-218.0
18998.597901179062,-590.0
18998.5979636763,-503.0
18998.598026173535,-215.0
18998.598088670773,146.0
18998.59815116801,616.0
18998.59821366525,521.0
18998.598276162484,91.0
18998.59833865972,106.0
18998.59840115696,341.0
18998.598463654198,305.0
18998.598526151432,6.0
18998.59858864867,-100.0
18998.59865114591,-266.0
18998.598713643147,-114.0
18998.59877614038,131.0
18998.59883863762,162.0
18998.598901134857,604.0
18998.598963632096,895.0
18998.59902612933,863.0
18998.599088626568,651.0
18998.599151123806,468.0
18998.59921362104,95.0
18998.59927611828,-199.0
18998.599338615517,-140.0
18998.599401112755,-193.0
18998.59946360999,-438.0
18998.599526107228,-758.0
18998.599588604466,-626.0
18998.599651101704,-447.0
18998.59971359894,-318.0
18998.599776096176,-187.0
18998.599838593414,-318.0
18998.599901090653,-530.0
18998.599963587887,-619.0
18998.600026085125,-356.0
18998.600088582363,-340.0
18998.6001510796,-338.0
18998.600213576836,-215.0
18998.600276074074,-54.0
18998.600338571312,78.0
18998.60040106855,-289.0
18998.600463565785,-398.0
18998.600526063023,69.0
18998.60058856026,287.0
18998.6006510575,179.0
18998.600713554733,108.0
18998.60077605197,101.0
18998.60083854921,-168.0
18998.600901046448,-126.0
18998.600963543682,6.0
18998.60102604092,-296.0
18998.60108853816,-610.0
18998.601151035393,-577.0
18998.60121353263,-480.0
18998.60127602987,-524.0
18998.601338527107,-568.0
18998.60140102434,-579.0
18998.60146352158,-319.0
18998.601526018818,-88.0
18998.601588516056,-408.0
18998.60165101329,-991.0
18998.60171351053,-1170.0
18998.601776007767,-975.0
18998.601838505005,-1088.0
18998.60190100224,-1000.0
18998.601963499477,-812.0
18998.602025996715,-811.0
18998.602088493953,-554.0
18998.602150991188,-327.0
18998.602213488426,-54.0
18998.602275985664,-91.0
18998.602338482902,-155.0
18998.602400980137,93.0
18998.602463477375,224.0
18998.602525974613,33.0
18998.602588471847,27.0
18998.602650969086,395.0
18998.602713466324,323.0
18998.60277596356,316.0
18998.6028384608,454.0
18998.602900958034,212.0
18998.602963455272,69.0
18998.60302595251,-91.0
18998.603088449745,-32.0
18998.603150946983,76.0
18998.60321344422,73.0
18998.60327594146,92.0
18998.603338438694,-324.0
18998.603400935932,-500.0
18998.60346343317,-550.0
18998.603525930408,-414.0
18998.603588427643,-268.0
18998.60365092488,-510.0
18998.60371342212,-361.0
18998.603775919357,56.0
18998.60383841659,196.0
18998.60390091383,75.0
18998.603963411068,277.0
18998.604025908306,527.0
18998.60408840554,600.0
18998.60415090278,556.0
18998.604213400016,230.0
18998.604275897254,304.0
18998.60433839449,686.0
18998.604400891727,1118.0
18998.604463388965,1044.0
18998.6045258862,909.0
18998.604588383438,1022.0
18998.604650880676,1146.0
18998.604713377914,1305.0
18998.604775875152,1284.0
18998.604838372386,1355.0
18998.604900869625,1157.0
18998.604963366863,808.0
18998.605025864097,767.0
18998.605088361335,1004.0
18998.605150858573,787.0
18998.60521335581,591.0
18998.605275853046,949.0
18998.605338350284,963.0
18998.605400847522,661.0
18998.60546334476,679.0
18998.605525841995,781.0
18998.605588339233,555.0
18998.60565083647,396.0
18998.60571333371,356.0
18998.605775830943,301.0
18998.60583832818,0.0
18998.60590082542,-258.0
18998.605963322658,156.0
18998.606025819892,461.0
18998.60608831713,486.0
18998.60615081437,522.0
18998.606213311607,756.0
18998.60627580884,967.0
18998.60633830608,673.0
18998.606400803317,410.0
18998.60646330055,509.0
18998.60652579779,417.0
18998.606588295028,175.0
18998.606650792266,-44.0
18998.6067132895,-96.0
18998.60677578674,-17.0
18998.606838283977,276.0
18998.606900781215,540.0
18998.60696327845,500.0
18998.607025775687,351.0
18998.607088272925,36.0
18998.607150770164,-163.0
18998.607213267398,-284.0
18998.607275764636,-554.0
18998.607338261874,-855.0
18998.607400759112,-381.0
18998.607463256347,190.0
18998.607525753585,-181.0
18998.607588250823,-187.0
18998.60765074806,188.0
18998.607713245296,253.0
18998.607775742534,-117.0
18998.60783823977,-232.0
18998.607900737006,40.0
18998.607963234244,-316.0
18998.608025731482,-673.0
18998.60808822872,-309.0
18998.60815072596,-124.0
18998.608213223193,-490.0
18998.60827572043,-747.0
18998.60833821767,-396.0
18998.608400714904,11.0
18998.608463212142,-237.0
18998.60852570938,-470.0
18998.608588206618,-353.0
18998.608650703853,-156.0
18998.60871320109,61.0
18998.60877569833,-154.0
18998.608838195567,-212.0
18998.6089006928,127.0
18998.60896319004,430.0
18998.609025687278,693.0
18998.609088184516,680.0
18998.60915068175,209.0
18998.60921317899,-21.0
18998.609275676226,122.0
18998.609338173464,27.0
18998.6094006707,-292.0
18998.609463167937,-402.0
18998.609525665175,-143.0
18998.609588162413,-44.0
18998.609650659648,-256.0
18998.609713156886,-386.0
18998.609775654124,-224.0
18998.60983815136,-176.0
18998.609900648597,-294.0
18998.609963145835,-458.0
18998.610025643073,-417.0
18998.61008814031,-462.0
18998.610150637545,-513.0
18998.610213134783,-327.0
18998.61027563202,-68.0
18998.610338129256,-107.0
18998.610400626494,-435.0
18998.610463123732,-349.0
18998.61052562097,-182.0
18998.610588118205,-120.0
18998.610650615443,-411.0
18998.61071311268,-579.0
18998.61077560992,-173.0
18998.610838107154,-49.0
18998.61090060439,-54.0
18998.61096310163,-46.0
18998.611025598868,42.0
18998.611088096102,396.0
18998.61115059334,831.0
18998.61121309058,918.0
18998.611275587817,653.0
18998.61133808505,340.0
18998.61140058229,227.0
18998.611463079527,479.0
18998.611525576765,847.0
18998.611588074,527.0
18998.611650571238,57.0
18998.611713068476,454.0
18998.61177556571,483.0
18998.61183806295,240.0
18998.611900560187,-12.0
18998.611963057425,-38.0
18998.61202555466,208.0
18998.612088051897,85.0
18998.612150549136,-265.0
18998.612213046374,-621.0
18998.612275543608,-682.0
18998.612338040846,-515.0
18998.612400538084,-463.0
18998.612463035322,-551.0
18998.612525532557,-756.0
18998.612588029795,-803.0
18998.612650527033,-503.0
18998.61271302427,-85.0
18998.612775521506,-408.0
18998.612838018744,-474.0
18998.612900515982,-32.0
18998.61296301322,-169.0
18998.613025510454,-259.0
18998.613088007693,-505.0
18998.61315050493,-668.0
18998.61321300217,-436.0
18998.613275499403,-167.0
18998.61333799664,-19.0
18998.61340049388,-171.0
18998.613462991118,-103.0
18998.613525488352,-11.0
18998.61358798559,156.0
18998.61365048283,330.0
18998.613712980063,157.0
18998.6137754773,-129.0
18998.61383797454,-424.0
18998.613900471777,-655.0
18998.61396296901,-775.0
18998.61402546625,-600.0
18998.614087963488,-768.0
18998.614150460726,-1114.0
18998.61421295796,-1156.0
18998.6142754552,-921.0
18998.614337952436,-458.0
18998.614400449675,-134.0
18998.61446294691,-299.0
18998.614525444147,-467.0
18998.614587941385,-737.0
18998.614650438623,-1030.0
18998.614712935858,-931.0
18998.614775433096,-775.0
18998.614837930334,-607.0
18998.614900427572,-272.0
18998.614962924807,-49.0
18998.615025422045,88.0
18998.615087919283,175.0
18998.615150416517,269.0
18998.615212913755,698.0
18998.615275410993,1017.0
18998.61533790823,518.0
18998.61540040547,47.0
18998.615462902704,68.0
18998.615525399942,28.0
18998.61558789718,11.0
18998.615650394415,15.0
18998.615712891653,-100.0
18998.61577538889,465.0
18998.61583788613,848.0
18998.615900383364,665.0
18998.6159628806,592.0
18998.61602537784,278.0
18998.616087875078,421.0
18998.616150372312,472.0
18998.61621286955,43.0
18998.61627536679,-264.0
18998.616337864027,-354.0
18998.61640036126,-180.0
18998.6164628585,63.0
18998.616525355737,10.0
18998.616587852975,85.0
18998.61665035021,269.0
18998.616712847448,538.0
18998.616775344686,797.0
18998.616837841924,598.0
18998.61690033916,321.0
18998.616962836397,216.0
18998.617025333635,258.0
18998.61708783087,105.0
18998.617150328108,-60.0
18998.617212825346,102.0
18998.617275322584,318.0
18998.61733781982,1031.0
18998.617400317056,1546.0
18998.617462814294,1361.0
18998.617525311533,1042.0
18998.617587808767,781.0
18998.617650306005,710.0
18998.617712803243,474.0
18998.61777530048,137.0
18998.617837797716,62.0
18998.617900294954,232.0
18998.617962792192,159.0
18998.61802528943,-81.0
18998.618087786665,61.0
18998.618150283903,219.0
18998.61821278114,361.0
18998.61827527838,431.0
18998.618337775613,138.0
18998.61840027285,-60.0
18998.61846277009,170.0
18998.618525267328,-3.0
18998.618587764562,-109.0
18998.6186502618,-44.0
18998.61871275904,-135.0
18998.618775256276,-167.0
18998.61883775351,-129.0
18998.61890025075,21.0
18998.618962747987,133.0
18998.61902524522,393.0
18998.61908774246,456.0
18998.619150239698,514.0
18998.619212736936,456.0
18998.61927523417,102.0
18998.61933773141,-89.0
18998.619400228647,-207.0
18998.619462725885,-272.0
18998.61952522312,-483.0
18998.619587720357,-431.0
18998.619650217595,-69.0
18998.619712714833,86.0
18998.619775212068,417.0
18998.619837709306,712.0
18998.619900206544,646.0
18998.619962703782,513.0
18998.620025201017,506.0
18998.620087698255,216.0
18998.620150195493,-337.0
18998.62021269273,-469.0
18998.620275189965,-297.0
18998.620337687204,-430.0
18998.62040018444,-615.0
18998.620462681676,-736.0
18998.620525178914,-870.0
18998.620587676152,-560.0
18998.62065017339,-483.0
18998.62071267063,-624.0
18998.620775167863,-363.0
18998.6208376651,-76.0
18998.62090016234,-207.0
18998.620962659574,-417.0
18998.62102515681,-616.0
18998.62108765405,-827.0
18998.621150151288,-649.0
18998.621212648522,-463.0
18998.62127514576,-310.0
18998.621337643,-277.0
18998.621400140237,-30.0
18998.62146263747,244.0
18998.62152513471,89.0
18998.621587631947,157.0
18998.621650129186,147.0
18998.62171262642,-52.0
18998.621775123658,-111.0
18998.621837620896,-270.0
18998.621900118134,-414.0
18998.62196261537,-474.0
18998.622025112607,-203.0
18998.622087609845,-83.0
18998.622150107083,25.0
18998.622212604318,300.0
18998.622275101556,675.0
18998.622337598794,696.0
18998.62240009603,221.0
18998.622462593266,30.0
18998.622525090504,-237.0
18998.622587587743,-530.0
18998.622650084977,-524.0
18998.622712582215,-566.0
18998.622775079453,-365.0
18998.62283757669,145.0
18998.622900073926,526.0
18998.622962571164,471.0
18998.623025068402,546.0
18998.62308756564,978.0
18998.623150062875,719.0
18998.623212560113,220.0
18998.62327505735,229.0
18998.62333755459,301.0
18998.623400051823,316.0
18998.62346254906,110.0
18998.6235250463,-2.0
18998.623587543538,132.0
18998.623650040772,236.0
18998.62371253801,318.0
18998.62377503525,247.0
18998.623837532487,73.0
18998.62390002972,119.0
18998.62396252696,267.0
18998.624025024197,263.0
18998.624087521435,202.0
18998.62415001867,221.0
18998.624212515908,42.0
18998.624275013146,79.0
18998.62433751038,-66.0
18998.62440000762,-258.0
18998.624462504857,212.0
18998.624525002095,301.0
18998.62458749933,149.0
18998.624649996567,186.0
18998.624712493805,84.0
18998.624774991044,-2.0
18998.624837488278,-17.0
18998.624899985516,-67.0
18998.624962482754,50.0
18998.625024979992,82.0
18998.625087477227,-26.0
18998.625149974465,-133.0
18998.625212471703,-288.0
18998.62527496894,-152.0
18998.625337466176,12.0
18998.625399963414,33.0
18998.62546246065,54.0
18998.62552495789,-201.0
18998.625587455124,-81.0
18998.625649952362,254.0
18998.6257124496,192.0
18998.625774946835,266.0
18998.625837444073,465.0
18998.62589994131,573.0
18998.62596243855,474.0
18998.626024935787,372.0
18998.626087433022,387.0
18998.62614993026,702.0
18998.626212427498,1070.0
18998.626274924733,992.0
18998.62633742197,789.0
18998.62639991921,543.0
18998.626462416447,350.0
18998.62652491368,356.0
18998.62658741092,269.0
18998.626649908158,-47.0
18998.626712405396,-216.0
18998.62677490263,-404.0
18998.62683739987,-603.0
18998.626899897106,-493.0
18998.626962394344,-453.0
18998.62702489158,-526.0
18998.627087388817,-373.0
18998.627149886055,-302.0
18998.627212383293,-175.0
18998.627274880528,-132.0
18998.627337377766,-120.0
18998.627399875004,-129.0
18998.627462372242,-181.0
18998.627524869476,-122.0
18998.627587366715,-453.0
18998.627649863953,-549.0
18998.627712361187,-34.0
18998.627774858425,296.0
18998.627837355663,503.0
18998.6278998529,379.0
18998.62796235014,153.0
18998.628024847374,-13.0
18998.628087344612,135.0
18998.62814984185,190.0
18998.628212339085,-47.0
18998.628274836323,1.0
18998.62833733356,256.0
18998.6283998308,133.0
18998.628462328033,-42.0
18998.62852482527,73.0
18998.62858732251,126.0
18998.628649819748,317.0
18998.628712316982,287.0
18998.62877481422,12.0
18998.62883731146,-265.0
18998.628899808697,-477.0
18998.62896230593,-273.0
18998.62902480317,-183.0
18998.629087300407,-320.0
18998.629149797645,-261.0
18998.62921229488,-124.0
18998.629274792118,-131.0
18998.629337289356,-316.0
18998.629399786594,-337.0
18998.62946228383,-154.0
18998.629524781067,30.0
18998.629587278305,36.0
18998.62964977554,-87.0
18998.629712272777,-42.0
18998.629774770016,164.0
18998.629837267254,138.0
18998.629899764488,1.0
18998.629962261726,-111.0
18998.630024758964,-255.0
18998.630087256202,-98.0
18998.630149753437,230.0
18998.630212250675,306.0
18998.630274747913,180.0
18998.63033724515,96.0
18998.630399742386,55.0
18998.630462239624,128.0
18998.630524736862,-49.0
18998.6305872341,-394.0
18998.630649731334,-536.0
18998.630712228573,-436.0
18998.63077472581,-321.0
18998.63083722305,-478.0
18998.630899720283,-481.0
18998.63096221752,-416.0
18998.63102471476,-479.0
18998.631087211998,-341.0
18998.631149709232,-361.0
18998.63121220647,-568.0
18998.63127470371,-904.0
18998.631337200946,-826.0
18998.63139969818,-557.0
18998.63146219542,-587.0
18998.631524692657,-491.0
18998.63158718989,-515.0
18998.63164968713,-362.0
18998.631712184368,-5.0
18998.631774681606,109.0
18998.63183717884,86.0
18998.63189967608,45.0
18998.631962173316,-206.0
18998.632024670555,-342.0
18998.63208716779,-70.0
18998.632149665027,-26.0
18998.632212162265,-100.0
18998.632274659503,-167.0
18998.632337156738,-144.0
18998.632399653976,37.0
18998.632462151214,-237.0
18998.632524648452,-458.0
18998.632587145687,-488.0
18998.632649642925,-479.0
18998.632712140163,-426.0
18998.6327746374,-339.0
18998.632837134635,-258.0
18998.632899631873,-193.0
18998.63296212911,-21.0
18998.633024626346,179.0
18998.633087123584,285.0
18998.633149620822,131.0
18998.63321211806,74.0
18998.6332746153,255.0
18998.633337112533,401.0
18998.63339960977,238.0
18998.63346210701,-80.0
18998.633524604244,-103.0
18998.63358710148,349.0
18998.63364959872,696.0
18998.633712095958,666.0
18998.633774593192,496.0
18998.63383709043,353.0
18998.63389958767,522.0
18998.633962084907,632.0
18998.63402458214,401.0
18998.63408707938,439.0
18998.634149576617,437.0
18998.634212073855,411.0
18998.63427457109,577.0
18998.634337068328,321.0
18998.634399565566,229.0
18998.634462062804,380.0
18998.63452456004,344.0
18998.634587057277,264.0
18998.634649554515,159.0
18998.634712051753,64.0
18998.634774548987,53.0
18998.634837046226,293.0
18998.634899543464,515.0
18998.634962040698,297.0
18998.635024537936,224.0
18998.635087035174,352.0
18998.635149532412,370.0
18998.635212029647,399.0
18998.635274526885,324.0
18998.635337024123,153.0
18998.63539952136,53.0
18998.635462018596,228.0
18998.635524515834,315.0
18998.635587013072,352.0
18998.63564951031,469.0
18998.635712007544,422.0
18998.635774504783,316.0
18998.63583700202,205.0
18998.63589949926,-69.0
18998.635961996493,99.0
18998.63602449373,436.0
18998.63608699097,332.0
18998.636149488208,152.0
18998.636211985442,213.0
18998.63627448268,251.0
18998.63633697992,169.0
18998.636399477156,37.0
18998.63646197439,-13.0
18998.63652447163,176.0
18998.636586968867,326.0
18998.636649466105,237.0
18998.63671196334,194.0
18998.636774460578,595.0
18998.636836957816,867.0
18998.63689945505,841.0
18998.63696195229,674.0
18998.637024449527,326.0
18998.637086946765,496.0
18998.637149444,830.0
18998.637211941237,642.0
18998.637274438475,366.0
18998.637336935713,295.0
18998.637399432948,227.0
18998.637461930186,293.0
18998.637524427424,255.0
18998.637586924662,-61.0
18998.637649421897,-15.0
18998.637711919135,39.0
18998.637774416373,-177.0
18998.63783691361,-301.0
18998.637899410845,-496.0
18998.637961908084,-471.0
18998.63802440532,-328.0
18998.63808690256,-181.0
18998.638149399794,-283.0
18998.638211897032,-671.0
18998.63827439427,-482.0
18998.638336891505,-183.0
18998.638399388743,-103.0
18998.63846188598,36.0
18998.63852438322,-133.0
18998.638586880457,-250.0
18998.63864937769,-59.0
18998.63871187493,-30.0
18998.638774372168,-181.0
18998.638836869402,134.0
18998.63889936664,578.0
18998.63896186388,661.0
18998.639024361117,568.0
18998.63908685835,426.0
18998.63914935559,330.0
18998.639211852827,194.0
18998.639274350066,393.0
18998.6393368473,313.0
18998.639399344538,-4.0
18998.639461841776,-78.0
18998.639524339014,-198.0
18998.63958683625,-169.0
18998.639649333487,-250.0
18998.639711830725,-375.0
18998.639774327963,-465.0
18998.639836825198,-378.0
18998.639899322436,-463.0
18998.639961819674,-525.0
18998.640024316912,-306.0
18998.640086814146,-337.0
18998.640149311384,-93.0
18998.640211808623,-39.0
18998.640274305857,-322.0
18998.640336803095,-350.0
18998.640399300333,-461.0
18998.64046179757,-422.0
18998.640524294806,-93.0
18998.640586792044,-136.0
18998.640649289282,-161.0
18998.64071178652,127.0
18998.640774283755,233.0
18998.640836780993,260.0
18998.64089927823,499.0
18998.64096177547,682.0
18998.641024272703,641.0
18998.64108676994,592.0
18998.64114926718,473.0
18998.641211764418,422.0
18998.641274261652,312.0
18998.64133675889,203.0
18998.64139925613,190.0
18998.641461753366,220.0
18998.6415242506,31.0
18998.64158674784,3.0
18998.641649245077,65.0
18998.641711742315,-2.0
18998.64177423955,104.0
18998.641836736788,-7.0
18998.641899234026,65.0
18998.641961731264,234.0
18998.6420242285,264.0
18998.642086725737,216.0
18998.642149222975,243.0
18998.64221172021,289.0
18998.642274217447,333.0
18998.642336714685,224.0
18998.642399211923,258.0
18998.642461709158,412.0
18998.642524206396,499.0
18998.642586703634,729.0
18998.642649200872,700.0
18998.642711698107,513.0
18998.642774195345,484.0
18998.642836692583,573.0
18998.64289918982,379.0
18998.642961687056,336.0
18998.643024184294,336.0
18998.64308668153,274.0
18998.64314917877,452.0
18998.643211676004,512.0
18998.643274173242,751.0
18998.64333667048,729.0
18998.64339916772,440.0
18998.643461664953,447.0
18998.64352416219,333.0
18998.64358665943,180.0
18998.643649156664,-30.0
18998.643711653902,-99.0
18998.64377415114,83.0
18998.643836648378,269.0
18998.643899145616,374.0
18998.64396164285,457.0
18998.64402414009,616.0
18998.644086637327,811.0
18998.64414913456,1202.0
18998.6442116318,1269.0
18998.644274129038,937.0
18998.644336626276,768.0
18998.64439912351,731.0
18998.64446162075,766.0
18998.644524117986,783.0
18998.644586615224,769.0
18998.64464911246,619.0
18998.644711609697,484.0
18998.644774106935,891.0
18998.644836604173,1280.0
18998.644899101408,1051.0
18998.644961598646,561.0
18998.645024095884,482.0
18998.645086593122,589.0
18998.645149090356,329.0
18998.645211587595,-161.0
18998.645274084833,-427.0
18998.64533658207,-109.0
18998.645399079305,294.0
18998.645461576543,533.0
18998.64552407378,547.0
18998.645586571016,649.0
18998.645649068254,791.0
18998.645711565492,833.0
18998.64577406273,676.0
18998.645836559965,222.0
18998.645899057203,191.0
18998.64596155444,359.0
18998.64602405168,547.0
18998.646086548913,1038.0
18998.64614904615,1050.0
18998.64621154339,753.0
18998.646274040628,834.0
18998.646336537862,815.0
18998.6463990351,909.0
18998.64646153234,786.0
18998.646524029577,542.0
18998.64658652681,706.0
18998.64664902405,851.0
18998.646711521287,583.0
18998.646774018525,252.0
18998.64683651576,153.0
18998.646899012998,81.0
18998.646961510236,486.0
18998.647024007474,811.0
18998.64708650471,472.0
18998.647149001947,249.0
18998.647211499185,635.0
18998.647273996423,982.0
18998.647336493657,647.0
18998.647398990895,253.0
18998.647461488134,326.0
18998.647523985368,257.0
18998.647586482606,202.0
18998.647648979844,423.0
18998.647711477082,504.0
18998.647773974317,675.0
18998.647836471555,905.0
18998.647898968793,1181.0
18998.64796146603,1133.0
18998.648023963266,749.0
18998.648086460504,664.0
18998.64814895774,780.0
18998.64821145498,851.0
18998.648273952214,988.0
18998.648336449452,927.0
18998.64839894669,736.0
18998.64846144393,1074.0
18998.648523941163,1435.0
18998.6485864384,1404.0
18998.64864893564,1303.0
18998.648711432877,1032.0
18998.648773930112,1071.0
18998.64883642735,1391.0
18998.648898924588,1312.0
18998.648961421823,1211.0
18998.64902391906,1245.0
18998.6490864163,1177.0
18998.649148913537,1192.0
18998.649211410775,1120.0
18998.64927390801,656.0
18998.649336405248,256.0
18998.649398902486,321.0
18998.64946139972,420.0
18998.64952389696,313.0
18998.649586394196,39.0
18998.649648891434,-272.0
18998.64971138867,-275.0
18998.649773885907,-314.0
18998.649836383145,-753.0
18998.649898880383,-899.0
18998.649961377618,-1058.0
18998.650023874856,-1084.0
18998.650086372094,-835.0
18998.650148869332,-747.0
18998.650211366567,-593.0
18998.650273863805,-473.0
18998.650336361043,-345.0
18998.65039885828,-343.0
18998.650461355515,-431.0
18998.650523852753,-487.0
18998.65058634999,-282.0
18998.65064884723,132.0
18998.650711344464,255.0
18998.650773841702,92.0
18998.65083633894,-198.0
18998.650898836175,-386.0
18998.650961333413,-405.0
18998.65102383065,-280.0
18998.65108632789,-259.0
18998.651148825127,-185.0
18998.65121132236,-7.0
18998.6512738196,128.0
18998.651336316838,233.0
18998.651398814072,-81.0
18998.65146131131,-172.0
18998.65152380855,-112.0
18998.651586305787,-250.0
18998.65164880302,-355.0
18998.65171130026,-554.0
18998.651773797497,-357.0
18998.651836294735,-206.0
18998.65189879197,-134.0
18998.651961289208,174.0
18998.652023786446,170.0
18998.652086283684,257.0
18998.65214878092,445.0
18998.652211278157,443.0
18998.652273775395,483.0
18998.652336272633,234.0
18998.652398769867,27.0
18998.652461267106,38.0
18998.652523764344,227.0
18998.65258626158,442.0
18998.652648758816,594.0
18998.652711256054,831.0
18998.652773753292,834.0
18998.652836250527,693.0
18998.652898747765,735.0
18998.652961245003,782.0
18998.65302374224,683.0
18998.653086239476,715.0
18998.653148736714,737.0
18998.653211233952,417.0
18998.65327373119,380.0
18998.653336228424,327.0
18998.653398725663,473.0
18998.6534612229,997.0
18998.65352372014,1104.0
18998.653586217373,1071.0
18998.65364871461,1115.0
18998.65371121185,911.0
18998.653773709088,761.0
18998.653836206322,727.0
18998.65389870356,691.0
18998.6539612008,638.0
18998.654023698036,607.0
18998.65408619527,754.0
18998.65414869251,804.0
18998.654211189747,516.0
18998.654273686985,360.0
18998.65433618422,498.0
18998.654398681458,567.0
18998.654461178696,543.0
18998.654523675934,325.0
18998.65458617317,149.0
18998.654648670406,396.0
18998.654711167645,309.0
18998.65477366488,243.0
18998.654836162117,312.0
18998.654898659355,88.0
18998.654961156593,204.0
18998.655023653828,494.0
18998.655086151066,727.0
18998.655148648304,528.0
18998.655211145542,265.0
18998.655273642777,313.0
18998.655336140015,816.0
18998.655398637253,1039.0
18998.65546113449,992.0
18998.655523631725,1277.0
18998.655586128963,1179.0
18998.6556486262,819.0
18998.65571112344,626.0
18998.655773620674,388.0
18998.655836117912,174.0
18998.65589861515,285.0
18998.65596111239,584.0
18998.656023609623,424.0
18998.65608610686,-11.0
18998.6561486041,139.0
18998.656211101334,427.0
18998.65627359857,442.0
18998.65633609581,34.0
18998.656398593048,-402.0
18998.656461090286,88.0
18998.65652358752,589.0
18998.65658608476,504.0
18998.656648581997,476.0
18998.65671107923,309.0
18998.65677357647,469.0
18998.656836073707,883.0
18998.656898570945,728.0
18998.65696106818,438.0
18998.657023565418,597.0
18998.657086062656,1148.0
18998.657148559894,1518.0
18998.65721105713,1398.0
18998.657273554367,954.0
18998.657336051605,764.0
18998.657398548843,1041.0
18998.657461046078,1003.0
18998.657523543316,737.0
18998.657586040554,741.0
18998.657648537792,934.0
18998.657711035026,1202.0
18998.657773532264,1283.0
18998.657836029503,784.0
18998.65789852674,547.0
18998.657961023975,420.0
18998.658023521213,207.0
18998.65808601845,350.0
18998.658148515686,-37.0
18998.658211012924,-329.0
18998.658273510162,-29.0
18998.6583360074,321.0
18998.658398504635,493.0
18998.658461001873,405.0
18998.65852349911,263.0
18998.65858599635,182.0
18998.658648493583,446.0
18998.65871099082,699.0
18998.65877348806,664.0
18998.658835985298,860.0
18998.658898482532,799.0
18998.65896097977,823.0
18998.65902347701,892.0
18998.659085974246,624.0
18998.65914847148,500.0
18998.65921096872,456.0
18998.659273465957,756.0
18998.659335963195,906.0
18998.65939846043,694.0
18998.659460957668,480.0
18998.659523454906,494.0
18998.659585952144,763.0
18998.65964844938,905.0
18998.659710946617,965.0
18998.659773443855,816.0
18998.659835941093,888.0
18998.659898438327,1033.0
18998.659960935565,882.0
18998.660023432803,711.0
18998.660085930038,526.0
18998.660148427276,381.0
18998.660210924514,568.0
18998.660273421752,803.0
18998.660335918987,975.0
18998.660398416225,883.0
18998.660460913463,573.0
18998.6605234107,750.0
18998.660585907935,861.0
18998.660648405174,543.0
18998.66071090241,427.0
18998.66077339965,516.0
18998.660835896884,664.0
18998.660898394122,887.0
18998.66096089136,979.0
18998.6610233886,1014.0
18998.661085885833,1147.0
18998.66114838307,1295.0
18998.66121088031,1215.0
18998.661273377547,951.0
18998.66133587478,670.0
18998.66139837202,463.0
18998.661460869258,569.0
18998.661523366492,892.0
18998.66158586373,930.0
18998.66164836097,780.0
18998.661710858207,745.0
18998.661773355445,943.0
18998.66183585268,972.0
18998.661898349917,806.0
18998.661960847156,920.0
18998.66202334439,1176.0
18998.662085841628,1253.0
18998.662148338866,1271.0
18998.662210836104,1183.0
18998.66227333334,1000.0
18998.662335830577,756.0
18998.662398327815,614.0
18998.662460825053,751.0
18998.662523322288,636.0
18998.662585819526,428.0
18998.662648316764,496.0
18998.662710814002,553.0
18998.662773311236,683.0
18998.662835808474,784.0
18998.662898305713,735.0
18998.66296080295,647.0
18998.663023300185,469.0
18998.663085797423,301.0
18998.66314829466,318.0
18998.6632107919,517.0
18998.663273289134,506.0
18998.663335786372,588.0
18998.66339828361,601.0
18998.663460780845,722.0
18998.663523278083,918.0
18998.66358577532,930.0
18998.66364827256,1119.0
18998.663710769793,1118.0
18998.66377326703,869.0
18998.66383576427,756.0
18998.663898261508,738.0
18998.663960758742,771.0
18998.66402325598,872.0
18998.66408575322,948.0
18998.664148250456,738.0
18998.66421074769,669.0
18998.66427324493,588.0
18998.664335742167,539.0
18998.664398239405,1055.0
18998.66446073664,1188.0
18998.664523233878,872.0
18998.664585731116,872.0
18998.664648228354,701.0
18998.66471072559,627.0
18998.664773222827,924.0
18998.664835720065,1047.0
18998.664898217303,979.0
18998.664960714537,904.0
18998.665023211775,993.0
18998.665085709014,1004.0
18998.66514820625,761.0
18998.665210703486,607.0
18998.665273200724,648.0
18998.665335697962,895.0
18998.665398195197,891.0
18998.665460692435,676.0
18998.665523189673,426.0
18998.66558568691,213.0
18998.665648184146,425.0
18998.665710681384,325.0
18998.66577317862,241.0
18998.66583567586,312.0
18998.665898173094,273.0
18998.665960670332,381.0
18998.66602316757,429.0
18998.66608566481,345.0
18998.666148162043,222.0
18998.66621065928,220.0
18998.66627315652,258.0
18998.666335653757,432.0
18998.666398150992,516.0
18998.66646064823,264.0
18998.666523145468,366.0
18998.666585642706,779.0
18998.66664813994,939.0
18998.66671063718,819.0
18998.666773134417,635.0
18998.66683563165,725.0
18998.66689812889,774.0
18998.666960626128,529.0
18998.667023123366,311.0
18998.667085620604,-108.0
18998.66714811784,-20.0
18998.667210615076,397.0
18998.667273112314,428.0
18998.66733560955,207.0
18998.667398106787,-76.0
18998.667460604025,-5.0
18998.667523101263,117.0
18998.667585598498,189.0
18998.667648095736,79.0
18998.667710592974,168.0
18998.667773090212,429.0
18998.667835587446,306.0
18998.667898084685,194.0
18998.667960581923,42.0
18998.66802307916,-40.0
18998.668085576395,181.0
18998.668148073633,496.0
18998.66821057087,588.0
18998.66827306811,372.0
18998.668335565344,351.0
18998.668398062582,499.0
18998.66846055982,807.0
18998.66852305706,1212.0
18998.668585554293,1201.0
18998.66864805153,1225.0
18998.66871054877,1216.0
18998.668773046003,1258.0
18998.66883554324,1452.0
18998.66889804048,1415.0
18998.668960537718,1349.0
18998.669023034952,1255.0
18998.66908553219,1039.0
18998.66914802943,672.0
18998.669210526667,414.0
18998.6692730239,688.0
18998.66933552114,1074.0
18998.669398018377,1057.0
18998.669460515615,1068.0
18998.66952301285,871.0
18998.669585510088,520.0
18998.669648007326,665.0
18998.669710504564,862.0
18998.6697730018,823.0
18998.669835499037,745.0
18998.669897996275,754.0
18998.669960493513,895.0
18998.670022990747,997.0
18998.670085487985,1105.0
18998.670147985224,1013.0
18998.67021048246,1019.0
18998.670272979696,1098.0
18998.670335476934,880.0
18998.670397974172,709.0
18998.67046047141,891.0
18998.670522968645,1121.0
18998.670585465883,983.0
18998.67064796312,967.0
18998.670710460356,1022.0
18998.670772957594,1024.0
18998.670835454832,955.0
18998.67089795207,676.0
18998.670960449304,842.0
18998.671022946543,903.0
18998.67108544378,580.0
18998.67114794102,522.0
18998.671210438253,595.0
18998.67127293549,694.0
18998.67133543273,675.0
18998.671397929967,684.0
18998.671460427202,641.0
18998.67152292444,436.0
18998.671585421678,432.0
18998.671647918916,544.0
18998.67171041615,590.0
18998.67177291339,493.0
18998.671835410627,332.0
18998.671897907865,358.0
18998.6719604051,547.0
18998.672022902338,737.0
18998.672085399576,708.0
18998.67214789681,572.0
18998.67221039405,639.0
18998.672272891286,705.0
18998.672335388525,611.0
18998.672397885763,474.0
18998.672460382997,248.0
18998.672522880235,438.0
18998.672585377473,889.0
18998.672647874708,814.0
18998.672710371946,601.0
18998.672772869184,589.0
18998.672835366422,923.0
18998.672897863657,974.0
18998.672960360895,422.0
18998.673022858133,110.0
18998.67308535537,185.0
18998.673147852605,444.0
18998.673210349843,652.0
18998.67327284708,458.0
18998.67333534432,278.0
18998.673397841554,398.0
18998.673460338792,589.0
18998.67352283603,616.0
18998.67358533327,671.0
18998.673647830503,748.0
18998.67371032774,730.0
18998.67377282498,711.0
18998.673835322217,763.0
18998.67389781945,548.0
18998.67396031669,480.0
18998.674022813928,895.0
18998.674085311162,852.0
18998.6741478084,516.0
18998.67421030564,155.0
18998.674272802877,239.0
18998.674335300115,697.0
18998.67439779735,1070.0
18998.674460294587,1215.0
18998.674522791825,1051.0
18998.67458528906,839.0
18998.674647786298,723.0
18998.674710283536,797.0
18998.674772780774,884.0
18998.67483527801,975.0
18998.674897775247,1084.0
18998.674960272485,1209.0
18998.675022769723,983.0
18998.675085266957,893.0
18998.675147764196,1094.0
18998.675210261434,1159.0
18998.67527275867,942.0
18998.675335255906,723.0
18998.675397753144,701.0
18998.675460250382,567.0
18998.67552274762,566.0
18998.675585244855,739.0
18998.675647742093,810.0
18998.67571023933,756.0
18998.67577273657,769.0
18998.675835233804,818.0
18998.675897731042,854.0
18998.67596022828,988.0
18998.676022725514,1348.0
18998.676085222753,1431.0
18998.67614771999,1134.0
18998.67621021723,694.0
18998.676272714463,534.0
18998.6763352117,841.0
18998.67639770894,904.0
18998.676460206178,910.0
18998.676522703412,947.0
18998.67658520065,793.0
18998.67664769789,439.0
18998.676710195126,366.0
18998.67677269236,473.0
18998.6768351896,304.0
18998.676897686837,249.0
18998.676960184075,313.0
18998.67702268131,396.0
18998.677085178548,276.0
18998.677147675786,227.0
18998.677210173024,603.0
18998.67727267026,1010.0
18998.677335167496,1210.0
18998.677397664735,1043.0
18998.677460161973,898.0
18998.677522659207,1028.0
18998.677585156445,904.0
18998.677647653683,962.0
18998.67771015092,877.0
18998.677772648156,533.0
18998.677835145394,611.0
18998.677897642632,970.0
18998.677960139867,1112.0
18998.678022637105,1026.0
18998.678085134343,851.0
18998.67814763158,689.0
18998.678210128815,612.0
18998.678272626054,739.0
18998.67833512329,670.0
18998.67839762053,371.0
18998.678460117764,492.0
18998.678522615002,472.0
18998.67858511224,366.0
18998.67864760948,360.0
18998.678710106713,239.0
18998.67877260395,343.0
18998.67883510119,496.0
18998.678897598427,372.0
18998.67896009566,252.0
18998.6790225929,285.0
18998.679085090138,330.0
18998.679147587376,481.0
18998.67921008461,652.0
18998.67927258185,538.0
18998.679335079087,381.0
18998.67939757632,500.0
18998.67946007356,622.0
18998.679522570797,543.0
18998.679585068036,301.0
18998.679647565274,365.0
18998.679710062508,795.0
18998.679772559746,918.0
18998.679835056984,815.0
18998.67989755422,728.0
18998.679960051457,572.0
18998.680022548695,555.0
18998.680085045933,484.0
18998.680147543168,353.0
18998.680210040406,152.0
18998.680272537644,287.0
18998.680335034882,604.0
18998.680397532116,467.0
18998.680460029354,139.0
18998.680522526593,117.0
18998.68058502383,203.0
18998.680647521065,420.0
18998.680710018303,529.0
18998.68077251554,679.0
18998.68083501278,944.0
18998.680897510014,901.0
18998.680960007252,800.0
18998.68102250449,610.0
18998.68108500173,456.0
18998.681147498963,526.0
18998.6812099962,751.0
18998.68127249344,848.0
18998.681334990673,850.0
18998.68139748791,846.0
18998.68145998515,726.0
18998.681522482388,783.0
18998.681584979622,857.0
18998.68164747686,858.0
18998.6817099741,936.0
18998.681772471336,959.0
18998.68183496857,962.0
18998.68189746581,1193.0
18998.681959963047,1390.0
18998.682022460285,1047.0
18998.68208495752,896.0
18998.682147454758,1171.0
18998.682209951996,864.0
18998.682272449234,643.0
18998.68233494647,570.0
18998.682397443707,582.0
18998.682459940945,866.0
18998.682522438183,904.0
18998.682584935417,658.0
18998.682647432655,335.0
18998.682709929893,274.0
18998.68277242713,346.0
18998.682834924366,372.0
18998.682897421604,420.0
18998.682959918842,597.0
18998.68302241608,874.0
18998.683084913315,991.0
18998.683147410553,1009.0
18998.68320990779,943.0
18998.683272405025,1093.0
18998.683334902264,1239.0
18998.6833973995,1127.0
18998.68345989674,899.0
18998.683522393974,794.0
18998.683584891212,844.0
18998.68364738845,804.0
18998.68370988569,1067.0
18998.683772382923,1027.0
18998.68383488016,646.0
18998.6838973774,535.0
18998.683959874637,422.0
18998.684022371872,379.0
18998.68408486911,498.0
18998.684147366348,638.0
18998.684209863586,550.0
18998.68427236082,559.0
18998.68433485806,553.0
18998.684397355297,42.0
18998.684459852535,-279.0
18998.68452234977,-361.0
18998.684584847007,-238.0
18998.684647344246,-103.0
18998.68470984148,-122.0
18998.684772338718,-242.0
18998.684834835956,-93.0
18998.684897333194,163.0
18998.684959830432,105.0
18998.685022327667,318.0
18998.685084824905,338.0
18998.685147322143,344.0
18998.685209819378,465.0
18998.685272316616,558.0
18998.685334813854,421.0
18998.685397311092,194.0
18998.685459808326,473.0
18998.685522305565,485.0
18998.685584802803,289.0
18998.68564730004,90.0
18998.685709797275,117.0
18998.685772294513,423.0
18998.68583479175,201.0
18998.68589728899,10.0
18998.685959786224,83.0
18998.686022283462,-37.0
18998.6860847807,-261.0
18998.68614727794,-275.0
18998.686209775173,-188.0
18998.68627227241,-27.0
18998.68633476965,125.0
18998.686397266887,142.0
18998.68645976412,283.0
18998.68652226136,398.0
18998.686584758598,540.0
18998.686647255832,554.0
18998.68670975307,634.0
18998.68677225031,727.0
18998.686834747547,723.0
18998.68689724478,571.0
18998.68695974202,434.0
18998.687022239257,469.0
18998.687084736495,469.0
18998.68714723373,529.0
18998.687209730968,596.0
18998.687272228206,657.0
18998.687334725444,643.0
18998.68739722268,502.0
18998.687459719917,570.0
18998.687522217155,731.0
18998.687584714393,1052.0
18998.687647211627,871.0
18998.687709708865,594.0
18998.687772206104,597.0
18998.68783470334,671.0
18998.687897200576,687.0
18998.687959697814,700.0
18998.688022195052,943.0
18998.68808469229,1088.0
18998.688147189525,1259.0
18998.688209686763,1266.0
18998.688272184,1023.0
18998.68833468124,833.0
18998.688397178474,950.0
18998.68845967571,1306.0
18998.68852217295,997.0
18998.688584670184,764.0
18998.688647167422,985.0
18998.68870966466,1058.0
18998.6887721619,1133.0
18998.688834659133,1010.0
18998.68889715637,933.0
18998.68895965361,1035.0
18998.689022150847,1215.0
18998.689084648082,969.0
18998.68914714532,922.0
18998.689209642558,1042.0
18998.689272139796,1049.0
18998.68933463703,907.0
18998.68939713427,492.0
18998.689459631507,205.0
18998.689522128745,-109.0
18998.68958462598,114.0
18998.689647123218,591.0
18998.689709620456,767.0
18998.689772117694,866.0
18998.68983461493,967.0
18998.689897112166,1233.0
18998.689959609404,1280.0
18998.69002210664,925.0
18998.690084603877,667.0
18998.690147101115,671.0
18998.690209598353,805.0
18998.69027209559,903.0
18998.690334592826,997.0
18998.690397090064,894.0
18998.690459587302,772.0
18998.690522084536,679.0
18998.690584581775,964.0
18998.690647079013,1003.0
18998.69070957625,609.0
18998.690772073485,387.0
18998.690834570723,347.0
18998.69089706796,397.0
18998.6909595652,251.0
18998.691022062434,85.0
18998.691084559672,182.0
18998.69114705691,403.0
18998.69120955415,526.0
18998.691272051383,470.0
18998.69133454862,647.0
18998.69139704586,911.0
18998.691459543097,1084.0
18998.69152204033,1350.0
18998.69158453757,1232.0
18998.691647034808,1105.0
18998.691709532046,1057.0
18998.69177202928,1033.0
18998.69183452652,964.0
18998.691897023757,635.0
18998.69195952099,373.0
18998.69202201823,455.0
18998.692084515467,464.0
18998.692147012705,541.0
18998.69220950994,738.0
18998.692272007178,678.0
18998.692334504416,728.0
18998.692397001654,1099.0
18998.69245949889,1105.0
18998.692521996127,893.0
18998.692584493365,838.0
18998.692646990603,755.0
18998.692709487837,743.0
18998.692771985076,833.0
18998.692834482314,812.0
18998.69289697955,735.0
18998.692959476786,763.0
18998.693021974024,870.0
18998.693084471262,1133.0
18998.6931469685,1357.0
18998.693209465735,1201.0
18998.693271962973,738.0
18998.69333446021,731.0
18998.69339695745,990.0
18998.693459454684,1091.0
18998.693521951922,1089.0
18998.69358444916,879.0
18998.693646946398,595.0
18998.693709443633,688.0
18998.69377194087,783.0
18998.69383443811,648.0
18998.693896935343,817.0
18998.69395943258,817.0
18998.69402192982,730.0
18998.694084427058,977.0
18998.694146924292,854.0
18998.69420942153,631.0
18998.69427191877,595.0
18998.694334416006,545.0
18998.69439691324,224.0
18998.69445941048,-43.0
18998.694521907717,-102.0
18998.694584404955,9.0
18998.69464690219,265.0
18998.694709399428,378.0
18998.694771896666,95.0
