time,X_NOSE,Y_NOSE,Z_NOSE,visibility_NOSE,X_LEFT_EYE_INNER,Y_LEFT_EYE_INNER,Z_LEFT_EYE_INNER,visibility_LEFT_EYE_INNER,X_LEFT_EYE,Y_LEFT_EYE,Z_LEFT_EYE,visibility_LEFT_EYE,X_LEFT_EYE_OUTER,Y_LEFT_EYE_OUTER,Z_LEFT_EYE_OUTER,visibility_LEFT_EYE_OUTER,X_RIGHT_EYE_OUTER,Y_RIGHT_EYE_OUTER,Z_RIGHT_EYE_OUTER,visibility_RIGHT_EYE_OUTER,X_RIGHT_EYE,Y_RIGHT_EYE,Z_RIGHT_EYE,visibility_RIGHT_EYE,X_RIGHT_EYE_OUTER,Y_RIGHT_EYE_OUTER,Z_RIGHT_EYE_OUTER,visibility_RIGHT_EYE_OUTER,X_LEFT_EAR,Y_LEFT_EAR,Z_LEFT_EAR,visibility_LEFT_EAR,X_RIGHT_EAR,Y_RIGHT_EAR,Z_RIGHT_EAR,visibility_RIGHT_EAR,X_MOUTH_LEFT,Y_MOUTH_LEFT,Z_MOUTH_LEFT,visibility_MOUTH_LEFT,X_MOUTH_RIGHT,Y_MOUTH_RIGHT,Z_MOUTH_RIGHT,visibility_MOUTH_RIGHT,X_LEFT_SHOULDER,Y_LEFT_SHOULDER,Z_LEFT_SHOULDER,visibility_LEFT_SHOULDER,X_RIGHT_SHOULDER,Y_RIGHT_SHOULDER,Z_RIGHT_SHOULDER,visibility_RIGHT_SHOULDER,X_LEFT_ELBOW,Y_LEFT_ELBOW,Z_LEFT_ELBOW,visibility_LEFT_ELBOW,X_RIGHT_ELBOW,Y_RIGHT_ELBOW,Z_RIGHT_ELBOW,visibility_RIGHT_ELBOW,X_LEFT_WRIST,Y_LEFT_WRIST,Z_LEFT_WRIST,visibility_LEFT_WRIST,X_RIGHT_WRIST,Y_RIGHT_WRIST,Z_RIGHT_WRIST,visibility_RIGHT_WRIST,X_LEFT_PINKY,Y_LEFT_PINKY,Z_LEFT_PINKY,visibility_LEFT_PINKY,X_RIGHT_PINKY,Y_RIGHT_PINKY,Z_RIGHT_PINKY,visibility_RIGHT_PINKY,X_LEFT_INDEX,Y_LEFT_INDEX,Z_LEFT_INDEX,visibility_LEFT_INDEX,X_RIGHT_INDEX,Y_RIGHT_INDEX,Z_RIGHT_INDEX,visibility_RIGHT_INDEX,X_LEFT_THUMB,Y_LEFT_THUMB,Z_LEFT_THUMB,visibility_LEFT_THUMB,X_RIGHT_THUMB,Y_RIGHT_THUMB,Z_RIGHT_THUMB,visibility_RIGHT_THUMB,X_LEFT_HIP,Y_LEFT_HIP,Z_LEFT_HIP,visibility_LEFT_HIP,X_RIGHT_HIP,Y_RIGHT_HIP,Z_RIGHT_HIP,visibility_RIGHT_HIP,X_LEFT_KNEE,Y_LEFT_KNEE,Z_LEFT_KNEE,visibility_LEFT_KNEE,X_RIGHT_KNEE,Y_RIGHT_KNEE,Z_RIGHT_KNEE,visibility_RIGHT_KNEE,X_LEFT_ANKLE,Y_LEFT_ANKLE,Z_LEFT_ANKLE,visibility_LEFT_ANKLE,X_RIGHT_ANKLE,Y_RIGHT_ANKLE,Z_RIGHT_ANKLE,visibility_RIGHT_ANKLE,X_LEFT_HEEL,Y_LEFT_HEEL,Z_LEFT_HEEL,visibility_LEFT_HEEL,X_RIGHT_HEEL,Y_RIGHT_HEEL,Z_RIGHT_HEEL,visibility_RIGHT_HEEL,X_LEFT_FOOT_INDEX,Y_LEFT_FOOT_INDEX,Z_LEFT_FOOT_INDEX,visibility_LEFT_FOOT_INDEX,X_RIGHT_FOOT_INDEX,Y_RIGHT_FOOT_INDEX,Z_RIGHT_FOOT_INDEX,visibility_RIGHT_FOOT_INDEX
19719.836329646125,0.4365220367908478,0.23154643177986145,-1.047128438949585,0.9999538660049438,0.44000697135925293,0.20462608337402344,-0.9952910542488098,0.9999094009399414,0.44780871272087097,0.20367738604545593,-0.995376706123352,0.9999077320098877,0.4551514685153961,0.20285075902938843,-0.9953793883323669,0.9998821020126343,0.40622344613075256,0.20728632807731628,-1.0290240049362183,0.9999144077301025,0.3867630660533905,0.20812854170799255,-1.0292936563491821,0.999920129776001,0.3673153519630432,0.209123432636261,-1.029457449913025,0.9999032020568848,0.445244699716568,0.21226832270622253,-0.637212872505188,0.9999212026596069,0.31687480211257935,0.2218439280986786,-0.7970816493034363,0.9999009370803833,0.44477197527885437,0.2531796395778656,-0.908011257648468,0.9999674558639526,0.40861910581588745,0.2574367821216583,-0.953448474407196,0.9999692440032959,0.5238968133926392,0.3453840911388397,-0.3609714210033417,0.99983811378479,0.1721929907798767,0.3687300384044647,-0.6167572140693665,0.9995481371879578,0.5689441561698914,0.511221170425415,-0.10303636640310287,0.9749031662940979,0.19119442999362946,0.5560134649276733,-0.9372941255569458,0.9835547804832458,0.6236569881439209,0.6428665518760681,-0.2859387695789337,0.9760416150093079,0.2800544202327728,0.4510994553565979,-1.530877709388733,0.9873749017715454,0.6431198120117188,0.6844172477722168,-0.33704623579978943,0.9516986608505249,0.3011065423488617,0.41261768341064453,-1.651687502861023,0.9790976643562317,0.6311660408973694,0.6847794651985168,-0.4170464277267456,0.9543351531028748,0.2889001965522766,0.3942027986049652,-1.6616621017456055,0.9782847762107849,0.6200222969055176,0.674092173576355,-0.3164154887199402,0.9561281204223633,0.28687554597854614,0.40212929248809814,-1.5424115657806396,0.9674471020698547,0.4937463104724884,0.626268744468689,0.09246812015771866,0.996752917766571,0.31504422426223755,0.6444217562675476,-0.09231417626142502,0.997031569480896,0.4839619994163513,0.838355541229248,0.264691561460495,0.9273224472999573,0.34005123376846313,0.8661643862724304,0.0574478842318058,0.9519419074058533,0.4823510944843292,0.9553512930870056,1.0593795776367188,0.8212277889251709,0.35765543580055237,0.9897074103355408,0.6916208863258362,0.8442612290382385,0.4620395600795746,0.9649608731269836,1.1193430423736572,0.7559587359428406,0.35402724146842957,0.9883707761764526,0.7404966354370117,0.5847532749176025,0.5365452766418457,1.0239022970199585,0.8274341821670532,0.7766000628471375,0.4069109559059143,1.0866966247558594,0.3437715768814087,0.7225093245506287
19736.502996312793,0.4360102713108063,0.2334485948085785,-0.9668335318565369,0.9999617338180542,0.4393356144428253,0.20697185397148132,-0.9209998250007629,0.9999196529388428,0.44723057746887207,0.20563757419586182,-0.9210622906684875,0.9999173879623413,0.45442938804626465,0.20453792810440063,-0.9210553169250488,0.9998947381973267,0.4058544337749481,0.20989462733268738,-0.9497259855270386,0.9999269247055054,0.3863241672515869,0.21061116456985474,-0.9499657154083252,0.9999324083328247,0.36698463559150696,0.21158316731452942,-0.9500810503959656,0.9999202489852905,0.44479840993881226,0.2137550711631775,-0.5956894755363464,0.9999268054962158,0.31630098819732666,0.22393381595611572,-0.7329215407371521,0.9999159574508667,0.44464007019996643,0.25487759709358215,-0.8398262858390808,0.9999703168869019,0.40830838680267334,0.25981754064559937,-0.8783871531486511,0.9999730587005615,0.5259183049201965,0.3456690311431885,-0.34746280312538147,0.9998440742492676,0.17386533319950104,0.3695972263813019,-0.5690400004386902,0.9995762705802917,0.5699685215950012,0.5127723217010498,-0.09381549060344696,0.9772025942802429,0.1856766790151596,0.558623731136322,-0.8798933625221252,0.9873965382575989,0.6274322271347046,0.6438896656036377,-0.22313374280929565,0.9799542427062988,0.27507174015045166,0.44671332836151123,-1.421727180480957,0.9901788234710693,0.6454776525497437,0.6863574385643005,-0.2622726261615753,0.9590813517570496,0.29651251435279846,0.4063132405281067,-1.5282847881317139,0.9825724363327026,0.6318471431732178,0.6864488124847412,-0.3335459530353546,0.9608889818191528,0.2856092154979706,0.3897192180156708,-1.5271551609039307,0.9817380309104919,0.6216611266136169,0.6755630970001221,-0.24850738048553467,0.9632219076156616,0.2832542359828949,0.39882898330688477,-1.427720308303833,0.9732338190078735,0.4957802891731262,0.6276162266731262,0.08284783363342285,0.9971466660499573,0.3187403082847595,0.6472718119621277,-0.08270696550607681,0.9974144697189331,0.48086825013160706,0.8397167921066284,0.25354552268981934,0.9322391748428345,0.33903536200523376,0.8681154847145081,0.06248006224632263,0.9561333060264587,0.4766150116920471,0.9523184299468994,0.9915334582328796,0.8343808650970459,0.35012900829315186,0.9846193790435791,0.6438033580780029,0.8519771695137024,0.4534825384616852,0.9624245166778564,1.0479825735092163,0.7676753401756287,0.3458124101161957,0.9860911965370178,0.6900994777679443,0.6047533750534058,0.5298643112182617,1.0175220966339111,0.7899665236473083,0.7764670252799988,0.3990618884563446,1.0812113285064697,0.3312876522541046,0.7215319275856018
19753.16966297946,0.4392964839935303,0.23237517476081848,-1.0006357431411743,0.9999676942825317,0.44132810831069946,0.20770928263664246,-0.9495654702186584,0.9999371767044067,0.44874823093414307,0.20622900128364563,-0.9496495127677917,0.9999357461929321,0.4553355276584625,0.20488983392715454,-0.9496299624443054,0.9999165534973145,0.4101828336715698,0.2098163366317749,-0.9821394681930542,0.9999414682388306,0.39228004217147827,0.20980718731880188,-0.9823819398880005,0.9999444484710693,0.37299516797065735,0.2100515067577362,-0.9825032949447632,0.9999338388442993,0.44294923543930054,0.2135924994945526,-0.6028869152069092,0.9999432563781738,0.3221895098686218,0.2212579846382141,-0.7589104175567627,0.9999314546585083,0.44651705026626587,0.253560870885849,-0.8665454387664795,0.9999765157699585,0.4129485487937927,0.25900617241859436,-0.9106376767158508,0.9999793767929077,0.5244839787483215,0.348361611366272,-0.3537617325782776,0.9998726844787598,0.17361217737197876,0.368988960981369,-0.5743311643600464,0.9995960593223572,0.5687901973724365,0.511387050151825,-0.11263582855463028,0.9806759357452393,0.17950628697872162,0.555000901222229,-0.8897910714149475,0.9852655529975891,0.623624324798584,0.6478015780448914,-0.3048459589481354,0.9820632934570312,0.2656673192977905,0.4560256600379944,-1.4837104082107544,0.9877194166183472,0.6421281099319458,0.6889663934707642,-0.3593844771385193,0.9630448818206787,0.2889827489852905,0.4216216802597046,-1.602510690689087,0.9794667959213257,0.6270570755004883,0.6900941133499146,-0.4385930597782135,0.9648634791374207,0.2788432240486145,0.4027945399284363,-1.61111319065094,0.978702187538147,0.6154681444168091,0.6786589622497559,-0.3346717059612274,0.9656583070755005,0.27542999386787415,0.41126441955566406,-1.4945944547653198,0.9685898423194885,0.48762568831443787,0.6325480937957764,0.0815979391336441,0.9978406429290771,0.31034302711486816,0.6465808153152466,-0.08147969841957092,0.9979569911956787,0.4805475175380707,0.8444532752037048,0.27872154116630554,0.9485229253768921,0.33745014667510986,0.8703893423080444,0.08338732272386551,0.964401125907898,0.4823092520236969,0.9587011337280273,1.054049015045166,0.878089427947998,0.35092025995254517,0.9917988181114197,0.7105658650398254,0.8822449445724487,0.45849183201789856,0.9677839279174805,1.1125150918960571,0.8166037797927856,0.3487478196620941,0.9928896427154541,0.7597923278808594,0.6510236263275146,0.5337238311767578,1.024087905883789,0.8290900588035583,0.8411188721656799,0.39784184098243713,1.085445523262024,0.37855008244514465,0.7787963151931763
19769.83632964613,0.4326561987400055,0.23376116156578064,-1.0704725980758667,0.9999619722366333,0.43807747960090637,0.208472341299057,-1.0223197937011719,0.9999175071716309,0.4466838836669922,0.20689132809638977,-1.0223783254623413,0.9999151229858398,0.4541615843772888,0.20548593997955322,-1.0223519802093506,0.9998891353607178,0.40421852469444275,0.2107420563697815,-1.050520896911621,0.9999277591705322,0.38503557443618774,0.21070006489753723,-1.0508006811141968,0.9999337196350098,0.36644548177719116,0.21095195412635803,-1.0509299039840698,0.9999229907989502,0.4454245865345001,0.21436765789985657,-0.679892361164093,0.9999172687530518,0.31741055846214294,0.22178557515144348,-0.8154228925704956,0.9999126195907593,0.44092661142349243,0.25607678294181824,-0.9374226927757263,0.9999688863754272,0.40446028113365173,0.26067274808883667,-0.9756459593772888,0.9999746084213257,0.5232647657394409,0.34579020738601685,-0.4123011827468872,0.9997982382774353,0.17289583384990692,0.37239575386047363,-0.6226832866668701,0.9996155500411987,0.5687779784202576,0.5117295384407043,-0.1600312739610672,0.9745769500732422,0.18595744669437408,0.5608789920806885,-0.9201791882514954,0.9868205189704895,0.6244070529937744,0.6445921659469604,-0.33543312549591064,0.9747408628463745,0.2813369035720825,0.4533892273902893,-1.5012279748916626,0.9896915555000305,0.6430405974388123,0.6853935122489929,-0.385189026594162,0.9494202136993408,0.3038097321987152,0.4140869379043579,-1.6178104877471924,0.9820132851600647,0.6300514936447144,0.6856139898300171,-0.4631146788597107,0.9513830542564392,0.29049238562583923,0.39655500650405884,-1.6212618350982666,0.9810420274734497,0.6186140179634094,0.6747908592224121,-0.36440837383270264,0.9534080028533936,0.2882740795612335,0.4052610397338867,-1.509406566619873,0.9712293744087219,0.49437081813812256,0.6279726624488831,0.0846712663769722,0.9966887831687927,0.31553077697753906,0.6470146179199219,-0.08461032807826996,0.9973446726799011,0.48484429717063904,0.8377016186714172,0.2890756130218506,0.9394190311431885,0.34150105714797974,0.8698464632034302,0.07908692955970764,0.9675411581993103,0.48194417357444763,0.9569679498672485,1.058706521987915,0.8587403893470764,0.3552369475364685,0.9892200827598572,0.6904551386833191,0.8883939981460571,0.4591660797595978,0.967414915561676,1.117021918296814,0.7893129587173462,0.35220828652381897,0.9891512393951416,0.7378550171852112,0.6479656100273132,0.5414980053901672,1.0196295976638794,0.8405959606170654,0.8244604468345642,0.4128509759902954,1.087082862854004,0.3566046953201294,0.7846936583518982
19786.502996312796,0.432747483253479,0.2347675859928131,-1.040131688117981,0.9999711513519287,0.43841955065727234,0.20984604954719543,-0.9948577880859375,0.9999393224716187,0.44659480452537537,0.20852676033973694,-0.99490886926651,0.9999369382858276,0.4537789225578308,0.20737290382385254,-0.9948827028274536,0.9999178647994995,0.4059407114982605,0.21194729208946228,-1.023921251296997,0.9999465942382812,0.38720113039016724,0.21213451027870178,-1.0241656303405762,0.99994957447052,0.36835646629333496,0.21254891157150269,-1.0242606401443481,0.9999411106109619,0.44404926896095276,0.2163333296775818,-0.6635805368423462,0.9999399185180664,0.31747013330459595,0.2233048379421234,-0.8039655089378357,0.9999370574951172,0.4403320550918579,0.25641927123069763,-0.9106160998344421,0.9999767541885376,0.40428024530410767,0.2612450122833252,-0.9501308798789978,0.9999809265136719,0.5222804546356201,0.3461555540561676,-0.40743595361709595,0.999843955039978,0.17226898670196533,0.3708389103412628,-0.6133800745010376,0.9996811151504517,0.5683162808418274,0.5118994116783142,-0.16169914603233337,0.9770966172218323,0.18422718346118927,0.5579771995544434,-0.9051992297172546,0.9862452745437622,0.6223981976509094,0.6455710530281067,-0.3336981534957886,0.9769744873046875,0.27019399404525757,0.45461589097976685,-1.4719023704528809,0.9883360266685486,0.6417983770370483,0.6860840916633606,-0.38324639201164246,0.9538716673851013,0.2904226779937744,0.41728222370147705,-1.5855637788772583,0.9804646968841553,0.6287761926651001,0.6864895820617676,-0.4613417088985443,0.955642819404602,0.27912333607673645,0.3984052538871765,-1.5934022665023804,0.9796195030212402,0.61738121509552,0.675682544708252,-0.3627941310405731,0.9577335119247437,0.27582502365112305,0.4069649279117584,-1.4820679426193237,0.9701821208000183,0.4890267252922058,0.627224326133728,0.07930836826562881,0.9972021579742432,0.3128342628479004,0.6432726383209229,-0.07920360565185547,0.9977357387542725,0.48323991894721985,0.8375314474105835,0.3116312026977539,0.9490755200386047,0.33909717202186584,0.8668205142021179,0.09993023425340652,0.97190260887146,0.48182225227355957,0.9600389003753662,1.0146827697753906,0.8842175602912903,0.35333484411239624,0.9891901016235352,0.6716562509536743,0.9001538753509521,0.45808953046798706,0.9697858095169067,1.0660927295684814,0.8191691040992737,0.3490855097770691,0.9912457466125488,0.7152326703071594,0.6854771375656128,0.5401668548583984,1.022432804107666,0.7928416728973389,0.8436087369918823,0.3981417119503021,1.08322274684906,0.3462773561477661,0.7959513664245605
19803.169662979464,0.4344494044780731,0.23301833868026733,-1.0547624826431274,0.999976396560669,0.4386361837387085,0.20726609230041504,-1.0071563720703125,0.9999524354934692,0.4467810094356537,0.2057805359363556,-1.007190227508545,0.9999510049819946,0.45383813977241516,0.20448333024978638,-1.0071536302566528,0.9999345541000366,0.40677472949028015,0.20981186628341675,-1.0371352434158325,0.9999573230743408,0.38822388648986816,0.21009579300880432,-1.0373620986938477,0.9999600648880005,0.36963510513305664,0.2106465995311737,-1.0374456644058228,0.9999521970748901,0.44310107827186584,0.2135506570339203,-0.6685326099395752,0.9999551773071289,0.31930869817733765,0.22188419103622437,-0.8136775493621826,0.9999510049819946,0.4425824284553528,0.25475889444351196,-0.92315274477005,0.9999817609786987,0.40698856115341187,0.25930503010749817,-0.9640422463417053,0.9999847412109375,0.5223845839500427,0.346503883600235,-0.4133528172969818,0.9998689889907837,0.1719512939453125,0.3703734576702118,-0.6233698725700378,0.9996856451034546,0.5696507096290588,0.5116926431655884,-0.159906804561615,0.9784348011016846,0.17988650500774384,0.5568372011184692,-0.9317198395729065,0.9866336584091187,0.6211337447166443,0.6455033421516418,-0.32751187682151794,0.9793832898139954,0.26415085792541504,0.45675668120384216,-1.5154794454574585,0.9880234003067017,0.6402130722999573,0.686511754989624,-0.3763205111026764,0.9582585692405701,0.2869468927383423,0.42165786027908325,-1.6324063539505005,0.9798238277435303,0.6263585686683655,0.6875497102737427,-0.4540504217147827,0.9598585367202759,0.2764752209186554,0.4026114344596863,-1.6392515897750854,0.9789110422134399,0.6148080825805664,0.6765514016151428,-0.3560207486152649,0.9610232710838318,0.2733073830604553,0.4106936454772949,-1.525774359703064,0.9690771698951721,0.487984299659729,0.6288158893585205,0.07861549407243729,0.9979180693626404,0.3112441897392273,0.6438570618629456,-0.07851725071668625,0.998206615447998,0.4835659861564636,0.8377823233604431,0.3142955005168915,0.9540732502937317,0.33822867274284363,0.8658967018127441,0.11189033091068268,0.9730308651924133,0.48369377851486206,0.958905041217804,1.060257911682129,0.8939411640167236,0.35221898555755615,0.9864199161529541,0.7239188551902771,0.9053753018379211,0.46048787236213684,0.9692195057868958,1.115925669670105,0.8339766263961792,0.34834134578704834,0.9887319207191467,0.7718352675437927,0.6996991634368896,0.5427727103233337,1.0213837623596191,0.840583860874176,0.8563030362129211,0.39521902799606323,1.0767658948898315,0.4027136564254761,0.8064883351325989
19819.836329646132,0.43525418639183044,0.2314971685409546,-1.0855833292007446,0.9999690055847168,0.4386526346206665,0.2045363485813141,-1.0366299152374268,0.9999358654022217,0.44648200273513794,0.2036038339138031,-1.0366719961166382,0.9999349117279053,0.45381611585617065,0.20277193188667297,-1.0366390943527222,0.9999144077301025,0.40485644340515137,0.2073940932750702,-1.0672687292099,0.9999417066574097,0.3855968713760376,0.20840826630592346,-1.0675253868103027,0.9999455213546753,0.36633387207984924,0.2095877230167389,-1.067657232284546,0.9999333620071411,0.4443030059337616,0.21233391761779785,-0.687096893787384,0.9999418258666992,0.3172759711742401,0.22236564755439758,-0.8339471817016602,0.9999305009841919,0.44328317046165466,0.25334158539772034,-0.9496845602989197,0.9999759197235107,0.40688586235046387,0.2578734755516052,-0.9912605285644531,0.9999784231185913,0.5252896547317505,0.3448012173175812,-0.41185900568962097,0.9998482465744019,0.17209912836551666,0.3687395453453064,-0.6497721672058105,0.9996618032455444,0.5696605443954468,0.5105479955673218,-0.15694813430309296,0.9758256077766418,0.18736834824085236,0.5544509887695312,-0.9636114239692688,0.9851771593093872,0.6241708397865295,0.6446012258529663,-0.3323270380496979,0.9762345552444458,0.2750798463821411,0.451077938079834,-1.5456057786941528,0.9870354533195496,0.6425689458847046,0.6856274008750916,-0.382197767496109,0.9518061280250549,0.29882609844207764,0.4121416509151459,-1.6643322706222534,0.9782600402832031,0.6297358274459839,0.6860318779945374,-0.4616914987564087,0.9538075923919678,0.2878742218017578,0.3936846852302551,-1.6739307641983032,0.9771859645843506,0.61881422996521,0.6753584146499634,-0.36204344034194946,0.9554965496063232,0.2851354479789734,0.40166205167770386,-1.556978464126587,0.966064989566803,0.4922144114971161,0.6246976852416992,0.08913173526525497,0.9971163272857666,0.3140380382537842,0.641913890838623,-0.08901017159223557,0.9977853298187256,0.48545074462890625,0.8315814137458801,0.32538145780563354,0.9438167214393616,0.33838701248168945,0.8634629249572754,0.08455726504325867,0.9704167246818542,0.4818173050880432,0.9538198709487915,1.0839616060256958,0.8740637898445129,0.35563942790031433,0.9870389699935913,0.688137412071228,0.8985704183578491,0.4589868485927582,0.9651429057121277,1.1402820348739624,0.8127350211143494,0.3515559136867523,0.9890786409378052,0.7337611317634583,0.6730373501777649,0.5423095226287842,1.0167683362960815,0.8554226756095886,0.8396271467208862,0.40496739745140076,1.0829516649246216,0.34456250071525574,0.7991296648979187
19836.5029963128,0.43505212664604187,0.2314968705177307,-1.120936393737793,0.9999774694442749,0.4380171298980713,0.20468920469284058,-1.072989583015442,0.999951958656311,0.44580531120300293,0.2036571204662323,-1.0729994773864746,0.9999502897262573,0.4531526565551758,0.20274710655212402,-1.0729479789733887,0.9999333620071411,0.4044378101825714,0.20772847533226013,-1.1039501428604126,0.9999568462371826,0.38499462604522705,0.20879194140434265,-1.104203462600708,0.9999608993530273,0.3656686544418335,0.21001717448234558,-1.1043305397033691,0.9999523162841797,0.4440537095069885,0.21211981773376465,-0.7243725061416626,0.9999550580978394,0.3163585066795349,0.2229265570640564,-0.8727615475654602,0.999951958656311,0.4436449110507965,0.2534041702747345,-0.9848024249076843,0.9999828338623047,0.4073587656021118,0.25812819600105286,-1.0267564058303833,0.9999850988388062,0.5228673815727234,0.34533464908599854,-0.43419718742370605,0.9998733997344971,0.17218519747257233,0.3696903884410858,-0.6889889240264893,0.999710738658905,0.5688558220863342,0.5114875435829163,-0.14643581211566925,0.9774810075759888,0.18644186854362488,0.5594313144683838,-1.0054699182510376,0.989334762096405,0.623685359954834,0.6453022956848145,-0.2871839702129364,0.9805506467819214,0.2745274007320404,0.45380890369415283,-1.5828421115875244,0.99153733253479,0.6418266892433167,0.6861412525177002,-0.32914847135543823,0.9597606062889099,0.2969399690628052,0.4143296778202057,-1.7012102603912354,0.9847641587257385,0.6277210116386414,0.6861767768859863,-0.4065971374511719,0.9612537622451782,0.28582763671875,0.3956838548183441,-1.7066274881362915,0.9837942719459534,0.6165529489517212,0.6749697923660278,-0.3151032328605652,0.962612509727478,0.28276878595352173,0.40423575043678284,-1.5919705629348755,0.9751154184341431,0.4919906556606293,0.6262261271476746,0.09217200428247452,0.9979965090751648,0.31588834524154663,0.6442592740058899,-0.09208138287067413,0.9982292056083679,0.4856494069099426,0.8300769925117493,0.32506805658340454,0.9478253722190857,0.33852171897888184,0.8643113374710083,0.09988264739513397,0.9710076451301575,0.4792426824569702,0.9545685052871704,1.1094703674316406,0.8813346028327942,0.3536079227924347,0.9832450747489929,0.7405542135238647,0.9040558934211731,0.45473089814186096,0.9651206731796265,1.168871521949768,0.8248667120933533,0.35128656029701233,0.9848371744155884,0.7908816933631897,0.6951981782913208,0.5417123436927795,1.0154393911361694,0.8899365663528442,0.8504003286361694,0.40943124890327454,1.0771408081054688,0.40930449962615967,0.8115021586418152
19853.169662979468,0.43760615587234497,0.23147809505462646,-1.0920991897583008,0.9999759197235107,0.44036683440208435,0.2046981155872345,-1.0423439741134644,0.9999501705169678,0.44828104972839355,0.2037498950958252,-1.0423611402511597,0.9999487400054932,0.45573335886001587,0.20278549194335938,-1.0422871112823486,0.9999309778213501,0.4063816964626312,0.20755836367607117,-1.0732953548431396,0.9999573230743408,0.38701823353767395,0.20847508311271667,-1.0735753774642944,0.9999618530273438,0.3673239052295685,0.20953163504600525,-1.0737031698226929,0.9999545812606812,0.4459846019744873,0.21227815747261047,-0.6996234059333801,0.9999500513076782,0.3178509771823883,0.22208505868911743,-0.8478541970252991,0.999954104423523,0.44595667719841003,0.2531874179840088,-0.9599623680114746,0.9999814033508301,0.41003015637397766,0.2576189339160919,-1.001722812652588,0.9999852180480957,0.5257176160812378,0.3467082977294922,-0.42692843079566956,0.9998337030410767,0.17331333458423615,0.37160176038742065,-0.6759761571884155,0.9997220635414124,0.5681030750274658,0.5122002959251404,-0.16660083830356598,0.9742563366889954,0.18593552708625793,0.5606310367584229,-0.9833660125732422,0.9913215041160583,0.6227182149887085,0.6438486576080322,-0.32505860924720764,0.9786230325698853,0.278188019990921,0.4506630301475525,-1.5362391471862793,0.9932587146759033,0.6416904926300049,0.6850573420524597,-0.3700101971626282,0.9567179083824158,0.3003314733505249,0.4140990078449249,-1.6505557298660278,0.9875139594078064,0.6279593706130981,0.685364842414856,-0.44400346279144287,0.9581407904624939,0.28669047355651855,0.3964255750179291,-1.6526978015899658,0.9867897629737854,0.6164798736572266,0.6751484870910645,-0.35232293605804443,0.9595651626586914,0.2846304178237915,0.40428370237350464,-1.5433021783828735,0.979766845703125,0.49105367064476013,0.627587616443634,0.0942486897110939,0.9974269270896912,0.31498825550079346,0.6465795636177063,-0.09424181282520294,0.9979740977287292,0.4835284948348999,0.8367838859558105,0.3563815653324127,0.9400140047073364,0.339925616979599,0.8671088218688965,0.10925403237342834,0.9697303771972656,0.4803796708583832,0.9536420106887817,1.1019688844680786,0.8719742894172668,0.35486528277397156,0.9864137768745422,0.7175453305244446,0.893690288066864,0.45534589886665344,0.9653472900390625,1.158067226409912,0.8105234503746033,0.3517831861972809,0.9871177673339844,0.7652729749679565,0.6778428554534912,0.5452380776405334,1.0177290439605713,0.8889480233192444,0.8390074372291565,0.41683802008628845,1.0815365314483643,0.3920961618423462,0.7952349781990051
19869.836329646136,0.4304431676864624,0.23488754034042358,-1.043646216392517,0.9999717473983765,0.4364166259765625,0.20966246724128723,-0.9981608986854553,0.9999381303787231,0.44489529728889465,0.2081606686115265,-0.9982145428657532,0.9999352693557739,0.45240938663482666,0.20687708258628845,-0.9981709718704224,0.9999165534973145,0.40280771255493164,0.21223202347755432,-1.0239228010177612,0.9999443292617798,0.38350188732147217,0.21251565217971802,-1.0241713523864746,0.9999470710754395,0.3645627200603485,0.21299204230308533,-1.0242787599563599,0.9999388456344604,0.4453766345977783,0.21571692824363708,-0.6673320531845093,0.9999358654022217,0.3157847821712494,0.22399145364761353,-0.7929884195327759,0.999930739402771,0.4398500919342041,0.2564442455768585,-0.9148439168930054,0.9999771118164062,0.4031243324279785,0.26130175590515137,-0.9500905275344849,0.9999812841415405,0.5242858529090881,0.34651967883110046,-0.4143674969673157,0.9998393058776855,0.17303241789340973,0.3707793056964874,-0.6045350432395935,0.9996894598007202,0.568111002445221,0.5144210457801819,-0.17989972233772278,0.97599858045578,0.18507960438728333,0.5572502017021179,-0.9004215598106384,0.9863706827163696,0.621648907661438,0.6490104794502258,-0.35816437005996704,0.9773577451705933,0.2713775038719177,0.4552752673625946,-1.4713417291641235,0.9881994724273682,0.6391352415084839,0.6889509558677673,-0.4105534851551056,0.9554026126861572,0.2951112985610962,0.41744667291641235,-1.5846225023269653,0.980090320110321,0.6251575946807861,0.689994752407074,-0.4865642786026001,0.9566630721092224,0.28455156087875366,0.3987676799297333,-1.5899763107299805,0.978959858417511,0.6142240762710571,0.6784354448318481,-0.3862408399581909,0.9584980607032776,0.2811530530452728,0.4072999358177185,-1.4803321361541748,0.9691790342330933,0.4908006191253662,0.6280238628387451,0.08113821595907211,0.9973262548446655,0.3143145740032196,0.6434038877487183,-0.08107633143663406,0.9979614019393921,0.480936199426651,0.8408246636390686,0.3142675757408142,0.9483426809310913,0.33873704075813293,0.8674402236938477,0.08553987741470337,0.9753506779670715,0.4802359640598297,0.9588987231254578,1.0412832498550415,0.8898468017578125,0.3537098467350006,0.9888476133346558,0.6532082557678223,0.9099566340446472,0.4561164379119873,0.9690158367156982,1.09550142288208,0.826539158821106,0.3487361967563629,0.9908084273338318,0.696227490901947,0.6970148682594299,0.5455998778343201,1.0178500413894653,0.8292295932769775,0.8563995957374573,0.4054674208164215,1.0846471786499023,0.32729262113571167,0.8140583038330078
19886.502996312804,0.435768187046051,0.2317500114440918,-1.0912340879440308,0.999961256980896,0.43960851430892944,0.20500075817108154,-1.0420728921890259,0.9999212026596069,0.4475914239883423,0.20403483510017395,-1.0421249866485596,0.999919056892395,0.45506006479263306,0.20313093066215515,-1.0420902967453003,0.999893069267273,0.40537354350090027,0.2076258361339569,-1.0734037160873413,0.9999312162399292,0.3861205577850342,0.2084846794605255,-1.0736976861953735,0.9999366998672485,0.3666744828224182,0.20954886078834534,-1.073846459388733,0.9999246597290039,0.4456925094127655,0.21273642778396606,-0.6898221969604492,0.9999240636825562,0.31729093194007874,0.2223435938358307,-0.8396700024604797,0.9999244213104248,0.44411367177963257,0.2534984052181244,-0.9540854096412659,0.9999698400497437,0.4080032408237457,0.2580443024635315,-0.9964683651924133,0.999975323677063,0.5252906084060669,0.34490951895713806,-0.41009047627449036,0.9998039603233337,0.17191456258296967,0.37052324414253235,-0.6530718207359314,0.9996399879455566,0.5687470436096191,0.5120710134506226,-0.15684229135513306,0.9732726812362671,0.18700702488422394,0.5570721626281738,-0.9579209685325623,0.9872494339942932,0.623512327671051,0.6441280245780945,-0.3385400176048279,0.9739912748336792,0.27884048223495483,0.45022153854370117,-1.5254690647125244,0.989162802696228,0.641904354095459,0.6854819655418396,-0.3880325257778168,0.9481073021888733,0.3039197027683258,0.4101415276527405,-1.642024278640747,0.9812198281288147,0.6291406750679016,0.6860832571983337,-0.46784651279449463,0.9503629803657532,0.29315969347953796,0.3923097848892212,-1.6482115983963013,0.9804046750068665,0.6180990934371948,0.6756439208984375,-0.3685750961303711,0.9526119232177734,0.2889396846294403,0.4009816348552704,-1.5345306396484375,0.9706867337226868,0.49219176173210144,0.6268740296363831,0.09094996750354767,0.9964181184768677,0.31409919261932373,0.6448639631271362,-0.09086793661117554,0.9972190856933594,0.4850670099258423,0.835412859916687,0.32379016280174255,0.9359197020530701,0.33956852555274963,0.8678179383277893,0.08915086090564728,0.9655879139900208,0.4831232726573944,0.9544728398323059,1.0725094079971313,0.8587106466293335,0.3559487760066986,0.9888433218002319,0.6939303278923035,0.8820574283599854,0.4600803852081299,0.9646691083908081,1.1282382011413574,0.7965806126594543,0.35421717166900635,0.9899889826774597,0.7403621673583984,0.6451154947280884,0.5411273241043091,1.0186631679534912,0.8454462289810181,0.8221737742424011,0.4081850051879883,1.0860750675201416,0.3538707494735718,0.7741034626960754
19903.16966297947,0.43216484785079956,0.23466041684150696,-1.0480674505233765,0.9999691247940063,0.43691980838775635,0.20901447534561157,-0.9980699419975281,0.999934196472168,0.44515424966812134,0.20759540796279907,-0.9981052875518799,0.999932050704956,0.45243459939956665,0.2064090371131897,-0.9980487823486328,0.9999092817306519,0.40345972776412964,0.21162855625152588,-1.0286164283752441,0.9999421834945679,0.38404786586761475,0.21217426657676697,-1.0288726091384888,0.9999469518661499,0.36525624990463257,0.2129971981048584,-1.0290228128433228,0.9999362230300903,0.4447450041770935,0.21556726098060608,-0.6464433073997498,0.999937891960144,0.31729644536972046,0.22480204701423645,-0.7935076951980591,0.9999333620071411,0.4410308599472046,0.2561034560203552,-0.9117849469184875,0.9999749660491943,0.40505537390708923,0.2608796954154968,-0.9533948302268982,0.9999791383743286,0.5238035321235657,0.34627825021743774,-0.36846065521240234,0.9998342990875244,0.17515027523040771,0.3707531690597534,-0.6185659170150757,0.9996793270111084,0.5685308575630188,0.5115290880203247,-0.09466397762298584,0.9726584553718567,0.18425482511520386,0.5549245476722717,-0.9534103870391846,0.985968828201294,0.6221644282341003,0.6432413458824158,-0.2501882314682007,0.9754265546798706,0.2793823778629303,0.4471263885498047,-1.5485165119171143,0.9884041547775269,0.6408607959747314,0.6845396757125854,-0.2932738959789276,0.9516475796699524,0.30091235041618347,0.4085423946380615,-1.6677714586257935,0.9802342057228088,0.6299784779548645,0.6852431297302246,-0.373337060213089,0.9535868167877197,0.2908906936645508,0.3906324803829193,-1.6725807189941406,0.9791625738143921,0.6193832159042358,0.6749968528747559,-0.2796795964241028,0.9553058743476868,0.28928375244140625,0.39853525161743164,-1.558027744293213,0.9685341715812683,0.4944809377193451,0.6272052526473999,0.09417765587568283,0.997622549533844,0.31771206855773926,0.646936297416687,-0.09406885504722595,0.9981845021247864,0.485210657119751,0.8323737382888794,0.3104003965854645,0.952574610710144,0.3395812511444092,0.8688018918037415,0.06780853122472763,0.9741755127906799,0.47984373569488525,0.949951708316803,1.1034824848175049,0.8932581543922424,0.35633400082588196,0.9894191026687622,0.6766084432601929,0.916083037853241,0.45725882053375244,0.963190495967865,1.164110541343689,0.8384122252464294,0.3547484278678894,0.9902415871620178,0.723305881023407,0.6999198794364929,0.5438977479934692,1.0154898166656494,0.8867055177688599,0.8642895221710205,0.41051191091537476,1.0853468179702759,0.33329707384109497,0.8285151124000549
19919.83632964614,0.4316229522228241,0.2347641885280609,-1.0989587306976318,0.9999724626541138,0.4374837875366211,0.20903605222702026,-1.0523189306259155,0.9999406337738037,0.44583025574684143,0.20757722854614258,-1.0523462295532227,0.9999399185180664,0.4532301127910614,0.206346333026886,-1.052310824394226,0.9999196529388428,0.4038870334625244,0.2115204930305481,-1.0801124572753906,0.9999454021453857,0.3845811188220978,0.21190813183784485,-1.080365777015686,0.9999504089355469,0.3658278286457062,0.21260610222816467,-1.0804710388183594,0.9999395608901978,0.44498273730278015,0.21532881259918213,-0.7106702327728271,0.9999454021453857,0.31616833806037903,0.22390884160995483,-0.8447062969207764,0.9999339580535889,0.44011297821998596,0.2567611634731293,-0.9656803607940674,0.9999786615371704,0.4031450152397156,0.26180359721183777,-1.003400206565857,0.9999806880950928,0.5253224968910217,0.34676045179367065,-0.4382220208644867,0.999858021736145,0.1726202815771103,0.3712261915206909,-0.6544805765151978,0.9996507167816162,0.5698951482772827,0.512467622756958,-0.17459283769130707,0.9779549241065979,0.18690291047096252,0.5607582330703735,-0.9609922170639038,0.9868491888046265,0.6234288811683655,0.6444451212882996,-0.3307313621044159,0.9784976840019226,0.2798742353916168,0.45359474420547485,-1.5439609289169312,0.9894894957542419,0.6413739919662476,0.6852275133132935,-0.37621691823005676,0.9560330510139465,0.3029893934726715,0.41672003269195557,-1.6606248617172241,0.9818392992019653,0.6283611059188843,0.6853366494178772,-0.4528898298740387,0.9577010869979858,0.2888648808002472,0.3969365358352661,-1.665229320526123,0.9808488488197327,0.6174679398536682,0.6749149560928345,-0.3586231768131256,0.9595073461532593,0.28681090474128723,0.4052734375,-1.5532889366149902,0.9711810946464539,0.49355486035346985,0.6255793571472168,0.0835721343755722,0.9976288676261902,0.3167296051979065,0.6442484855651855,-0.08346844464540482,0.9978926777839661,0.48325100541114807,0.8309186100959778,0.2891969680786133,0.9444973468780518,0.3392396569252014,0.8654830455780029,0.08727365732192993,0.9695686101913452,0.47723424434661865,0.9485520124435425,1.0820955038070679,0.8679848313331604,0.3492555320262909,0.9834076166152954,0.7253669500350952,0.8958420753479004,0.4517351984977722,0.9602001905441284,1.1429328918457031,0.8090121150016785,0.3458363115787506,0.9834401607513428,0.7760166525840759,0.6753277778625488,0.5381082892417908,1.0142488479614258,0.8710764646530151,0.8336420059204102,0.4055759906768799,1.076120376586914,0.4022330045700073,0.7966057062149048
19936.502996312807,0.4319634735584259,0.23379626870155334,-1.0582941770553589,0.9999638795852661,0.43749502301216125,0.20771154761314392,-1.0097607374191284,0.9999256134033203,0.44582119584083557,0.20632773637771606,-1.0098155736923218,0.9999237060546875,0.45325684547424316,0.2051844596862793,-1.0097856521606445,0.9998995065689087,0.40371283888816833,0.21042951941490173,-1.038710117340088,0.999933123588562,0.3842308223247528,0.2110496163368225,-1.0389631986618042,0.9999374151229858,0.3652876615524292,0.2119409441947937,-1.0390901565551758,0.9999247789382935,0.4456669092178345,0.2146606743335724,-0.6617372632026672,0.999930739402771,0.31492671370506287,0.22404497861862183,-0.8015029430389404,0.9999204874038696,0.44077882170677185,0.25524359941482544,-0.9230373501777649,0.9999710321426392,0.4040146470069885,0.25997194647789,-0.9624924659729004,0.9999750852584839,0.5248005390167236,0.34745392203330994,-0.3930110037326813,0.9998292922973633,0.17257212102413177,0.3707331717014313,-0.6132212281227112,0.9996253252029419,0.5683437585830688,0.5116363167762756,-0.13913461565971375,0.9738995432853699,0.18483591079711914,0.5561223030090332,-0.9324122071266174,0.9830405116081238,0.6221047639846802,0.6452670097351074,-0.3104264736175537,0.9743441343307495,0.275807648897171,0.4500708281993866,-1.5289362668991089,0.985300600528717,0.6414283514022827,0.685587465763092,-0.358734130859375,0.9492331743240356,0.29816094040870667,0.4121248722076416,-1.6472779512405396,0.9758633375167847,0.6284723281860352,0.6865566372871399,-0.43779775500297546,0.9512405395507812,0.2866787314414978,0.3922845721244812,-1.6548993587493896,0.9747210144996643,0.6171229481697083,0.6759955883026123,-0.33961498737335205,0.9528985619544983,0.2830776274204254,0.4006960391998291,-1.5397714376449585,0.9627803564071655,0.4923040568828583,0.6283101439476013,0.08594554662704468,0.997086226940155,0.3153136670589447,0.6461358666419983,-0.08581817150115967,0.9976644515991211,0.48527100682258606,0.8347712755203247,0.30961179733276367,0.9396300315856934,0.339563250541687,0.8664677739143372,0.08690012991428375,0.966467559337616,0.4811702072620392,0.9530871510505676,1.062728762626648,0.8625405430793762,0.35596001148223877,0.9863343238830566,0.6933974027633667,0.8849138617515564,0.45767152309417725,0.9639679789543152,1.1189075708389282,0.8027575016021729,0.3551117181777954,0.9871577620506287,0.7398731112480164,0.6540526151657104,0.540334939956665,1.0173213481903076,0.8368496894836426,0.8264300227165222,0.40622127056121826,1.0822629928588867,0.35689088702201843,0.7780779600143433
19953.169662979475,0.4369596540927887,0.2300053834915161,-1.0723862648010254,0.9999735355377197,0.44064587354660034,0.20321422815322876,-1.0222703218460083,0.9999476671218872,0.4487275183200836,0.20239615440368652,-1.0223140716552734,0.9999464750289917,0.4564966857433319,0.20155054330825806,-1.022279977798462,0.9999291896820068,0.4065452218055725,0.2061346471309662,-1.054434061050415,0.9999523162841797,0.38735872507095337,0.20736348628997803,-1.0546950101852417,0.9999566078186035,0.3673228621482849,0.20858779549598694,-1.0548162460327148,0.999947190284729,0.44598188996315,0.21079543232917786,-0.6744945645332336,0.9999517202377319,0.31642645597457886,0.2213856279850006,-0.8282093405723572,0.9999483823776245,0.4454009532928467,0.25213488936424255,-0.937659502029419,0.999981164932251,0.4092212915420532,0.2557862102985382,-0.980954110622406,0.9999831914901733,0.525778591632843,0.3452930450439453,-0.4029121398925781,0.9998651742935181,0.17060287296772003,0.37121880054473877,-0.650731086730957,0.9996548891067505,0.5675832033157349,0.5121450424194336,-0.1405770182609558,0.9770207405090332,0.18572914600372314,0.5595797300338745,-0.9632096290588379,0.9888073205947876,0.6225489377975464,0.643994152545929,-0.3037593960762024,0.9798508286476135,0.2754687964916229,0.45137473940849304,-1.5317370891571045,0.9908245801925659,0.6411582827568054,0.6854264140129089,-0.3499987721443176,0.9589465260505676,0.2965623736381531,0.41329240798950195,-1.6471585035324097,0.9837446212768555,0.6274945735931396,0.6854819059371948,-0.42633357644081116,0.9609283804893494,0.2857326865196228,0.3956220746040344,-1.6521555185317993,0.9830453395843506,0.616349995136261,0.6751314997673035,-0.33216726779937744,0.9626455903053284,0.28271999955177307,0.40433210134506226,-1.5406221151351929,0.9746846556663513,0.49416694045066833,0.6256886720657349,0.08977632969617844,0.9975476861000061,0.3183221220970154,0.6451957821846008,-0.08965859562158585,0.9977795481681824,0.481009840965271,0.8376020789146423,0.30502593517303467,0.9328962564468384,0.3389942944049835,0.8667036294937134,0.08587788790464401,0.9581613540649414,0.4773072302341461,0.9529699087142944,1.071336030960083,0.8468796610832214,0.3488887846469879,0.984690248966217,0.7087329626083374,0.8611055612564087,0.4528157711029053,0.963623583316803,1.1291292905807495,0.7879706025123596,0.34415146708488464,0.9868046641349792,0.7577230334281921,0.628596305847168,0.5362014174461365,1.0166676044464111,0.8529680967330933,0.8011380434036255,0.40080729126930237,1.0788073539733887,0.38114216923713684,0.742807149887085
19969.836329646143,0.4367258548736572,0.23224321007728577,-1.1448885202407837,0.9999778270721436,0.44108033180236816,0.20539745688438416,-1.093492031097412,0.9999542236328125,0.44918131828308105,0.20445886254310608,-1.0934934616088867,0.9999525547027588,0.4567479193210602,0.2035205066204071,-1.0934240818023682,0.999935507774353,0.40665170550346375,0.20818495750427246,-1.127850890159607,0.9999603033065796,0.3872663378715515,0.20905259251594543,-1.1281499862670898,0.999964714050293,0.3671901524066925,0.2099767029285431,-1.1282931566238403,0.9999569654464722,0.4462832808494568,0.21268489956855774,-0.7315459847450256,0.9999548196792603,0.3167646825313568,0.22168126702308655,-0.8956150412559509,0.9999580383300781,0.4450851380825043,0.2537423074245453,-1.0043617486953735,0.9999825954437256,0.408718079328537,0.257434606552124,-1.050874948501587,0.999985933303833,0.5240220427513123,0.3451366126537323,-0.43112143874168396,0.9998569488525391,0.1695043444633484,0.37107059359550476,-0.7181535363197327,0.9997395873069763,0.5679463744163513,0.5119275450706482,-0.14870433509349823,0.9748285412788391,0.18959778547286987,0.5610563158988953,-1.0367549657821655,0.9907681345939636,0.6219903826713562,0.6444977521896362,-0.31615692377090454,0.9796635508537292,0.27872753143310547,0.4517661929130554,-1.6125547885894775,0.9927347898483276,0.6418853998184204,0.6850672960281372,-0.3617219030857086,0.958250880241394,0.29938066005706787,0.4152517318725586,-1.734696388244629,0.9866645336151123,0.6281831860542297,0.6851692199707031,-0.44312748312950134,0.9599989652633667,0.2884664535522461,0.39775097370147705,-1.7412047386169434,0.985974133014679,0.6166747212409973,0.6749644875526428,-0.34663334488868713,0.9608729481697083,0.28669148683547974,0.40564578771591187,-1.6219216585159302,0.9780257344245911,0.4909078776836395,0.6250604391098022,0.10368544608354568,0.9978918433189392,0.316089004278183,0.6435192823410034,-0.1037168875336647,0.9982702732086182,0.4841158390045166,0.8300487399101257,0.3586912155151367,0.9444519281387329,0.3394313454627991,0.8664573431015015,0.10264728218317032,0.9708177447319031,0.47802963852882385,0.9491924047470093,1.1623064279556274,0.8820770978927612,0.3532886505126953,0.9856930375099182,0.7589547634124756,0.9105427265167236,0.4531078338623047,0.9624484777450562,1.2237699031829834,0.8304457068443298,0.3503054678440094,0.9872173070907593,0.8106867671012878,0.7041332721710205,0.5439291000366211,1.014416217803955,0.9405765533447266,0.8592843413352966,0.41224485635757446,1.0794365406036377,0.41926032304763794,0.8275271654129028
19986.50299631281,0.43346646428108215,0.2333710491657257,-1.1041613817214966,0.9999707937240601,0.4377971887588501,0.20619240403175354,-1.0579842329025269,0.9999388456344604,0.44600191712379456,0.2047964632511139,-1.058000087738037,0.9999381303787231,0.4536049962043762,0.20358562469482422,-1.057952880859375,0.9999181032180786,0.4032544195652008,0.2094905972480774,-1.087900161743164,0.9999443292617798,0.38366904854774475,0.21032166481018066,-1.0881680250167847,0.9999498128890991,0.3644551932811737,0.21136632561683655,-1.0882823467254639,0.9999388456344604,0.4453413486480713,0.21255460381507874,-0.7181656360626221,0.9999434947967529,0.31491535902023315,0.22428828477859497,-0.8615198731422424,0.9999340772628784,0.44255000352859497,0.2551714777946472,-0.9713022112846375,0.9999771118164062,0.40549570322036743,0.26078876852989197,-1.0116437673568726,0.9999788999557495,0.525436520576477,0.3451039493083954,-0.4419209361076355,0.9998549222946167,0.17159107327461243,0.3716583251953125,-0.6796800494194031,0.9996429681777954,0.5694248080253601,0.5126532912254333,-0.1783493310213089,0.9780128598213196,0.18757623434066772,0.5615967512130737,-0.9925364255905151,0.9884954690933228,0.6233106255531311,0.6447370052337646,-0.32676395773887634,0.9799291491508484,0.28303343057632446,0.4474000930786133,-1.5557434558868408,0.9912511110305786,0.6417746543884277,0.6854531764984131,-0.3688601851463318,0.9582988619804382,0.3043602406978607,0.40746742486953735,-1.669546127319336,0.9843387603759766,0.6285772919654846,0.6856229305267334,-0.44448113441467285,0.959941565990448,0.2914925813674927,0.3902238607406616,-1.6708977222442627,0.9834333658218384,0.6178926229476929,0.6752578616142273,-0.3541718125343323,0.961759626865387,0.2896871268749237,0.39929458498954773,-1.5630909204483032,0.974780797958374,0.49356961250305176,0.6233115196228027,0.08751431852579117,0.9976596832275391,0.3178003430366516,0.64290851354599,-0.08743374794721603,0.9979216456413269,0.48194944858551025,0.8314867615699768,0.30946850776672363,0.9383155107498169,0.3393489718437195,0.8623966574668884,0.09225009381771088,0.9654409289360046,0.4761800169944763,0.9476537704467773,1.0709199905395508,0.865982711315155,0.3498857021331787,0.9820259213447571,0.7105138301849365,0.8887695670127869,0.4515990614891052,0.9599865674972534,1.1288343667984009,0.8111720085144043,0.3456445336341858,0.9835628867149353,0.7596076130867004,0.6711648106575012,0.5383948683738708,1.013622760772705,0.8600945472717285,0.8300458192825317,0.4040893614292145,1.0742135047912598,0.3914424479007721,0.786649227142334
20003.16966297948,0.43368038535118103,0.23246121406555176,-1.0934934616088867,0.9999740123748779,0.43771883845329285,0.2057262361049652,-1.048531413078308,0.9999433755874634,0.4457886219024658,0.20466458797454834,-1.0485339164733887,0.9999428987503052,0.45327436923980713,0.20372280478477478,-1.0484733581542969,0.9999229907989502,0.4042638838291168,0.2082802951335907,-1.078970193862915,0.9999507665634155,0.3852923810482025,0.2090904712677002,-1.0792368650436401,0.9999561309814453,0.3662089705467224,0.2102319300174713,-1.0793415307998657,0.9999463558197021,0.444598913192749,0.21313518285751343,-0.7149991989135742,0.9999450445175171,0.31589192152023315,0.22305044531822205,-0.8611816763877869,0.9999427795410156,0.44162485003471375,0.25457584857940674,-0.9627718925476074,0.99997878074646,0.40570077300071716,0.2589854300022125,-1.004014253616333,0.9999823570251465,0.5242173671722412,0.34488311409950256,-0.4425060451030731,0.9998339414596558,0.16991150379180908,0.3711417317390442,-0.6801080107688904,0.9996740818023682,0.5700258016586304,0.5125464797019958,-0.17175884544849396,0.9753003716468811,0.19079317152500153,0.5598136782646179,-0.9739190340042114,0.9889933466911316,0.6236155033111572,0.6459380388259888,-0.30728089809417725,0.9769361615180969,0.28249281644821167,0.4485301971435547,-1.5098949670791626,0.990544319152832,0.6419254541397095,0.6859905123710632,-0.34694406390190125,0.9531014561653137,0.3055151104927063,0.4103430211544037,-1.6196306943893433,0.9830902814865112,0.6285911798477173,0.6860450506210327,-0.42161017656326294,0.9547957181930542,0.2913409471511841,0.39245548844337463,-1.6207520961761475,0.9821096658706665,0.6178930997848511,0.6754705309867859,-0.3340880572795868,0.9568305611610413,0.2887609601020813,0.4009585976600647,-1.5164366960525513,0.9728330373764038,0.4932795464992523,0.623616635799408,0.0884471908211708,0.9973909854888916,0.31704211235046387,0.643446683883667,-0.08840633928775787,0.9978135824203491,0.4851146936416626,0.8259589672088623,0.3292788863182068,0.9473504424095154,0.34260687232017517,0.860037624835968,0.10421446710824966,0.972236156463623,0.4777425527572632,0.9488945603370667,1.0844593048095703,0.8811458349227905,0.3540756106376648,0.9832966923713684,0.7141920924186707,0.9073185324668884,0.45301783084869385,0.9601116180419922,1.1421350240707397,0.8219383955001831,0.35064980387687683,0.9841804504394531,0.7623556852340698,0.7016492486000061,0.538390576839447,1.0141279697418213,0.878039538860321,0.8488101959228516,0.4151546061038971,1.0726935863494873,0.3960748314857483,0.8142820000648499
20019.836329646147,0.4379226863384247,0.23154589533805847,-1.1075375080108643,0.9999678134918213,0.44087305665016174,0.20541298389434814,-1.058538556098938,0.9999351501464844,0.4487619996070862,0.20466965436935425,-1.058579444885254,0.9999339580535889,0.45626553893089294,0.20389625430107117,-1.0585196018218994,0.9999111890792847,0.40802162885665894,0.2076246440410614,-1.0904567241668701,0.9999432563781738,0.39016076922416687,0.2084529995918274,-1.0907175540924072,0.9999476671218872,0.3700598478317261,0.2095356583595276,-1.090851068496704,0.999936580657959,0.4447791576385498,0.21316173672676086,-0.7061113119125366,0.9999375343322754,0.31963050365448,0.2213614284992218,-0.8587673306465149,0.9999382495880127,0.4453049600124359,0.2531251013278961,-0.9703230857849121,0.9999748468399048,0.4112163484096527,0.25728195905685425,-1.0133957862854004,0.9999794960021973,0.5248717069625854,0.3448815941810608,-0.4242532253265381,0.9998477697372437,0.17603947222232819,0.36903616786003113,-0.6704742908477783,0.9996981620788574,0.565517783164978,0.5131363272666931,-0.16527515649795532,0.9763418436050415,0.18921345472335815,0.5566936731338501,-0.9795151948928833,0.989678144454956,0.620428740978241,0.6449442505836487,-0.3491082489490509,0.9805601835250854,0.2742692232131958,0.4487009346485138,-1.5526443719863892,0.9917460083961487,0.6410694718360901,0.6849514842033386,-0.4004831314086914,0.9601627588272095,0.29852694272994995,0.4119933843612671,-1.6721136569976807,0.9851148724555969,0.6272351145744324,0.6857343316078186,-0.48189830780029297,0.9618946313858032,0.2867112457752228,0.3943718671798706,-1.6806975603103638,0.98447185754776,0.614853024482727,0.6761634945869446,-0.3800294101238251,0.9628768563270569,0.28360462188720703,0.4016028046607971,-1.5629591941833496,0.9766021370887756,0.49069222807884216,0.6268105506896973,0.09087374806404114,0.9971598386764526,0.3159565329551697,0.6461405754089355,-0.09083275496959686,0.9977128505706787,0.48162755370140076,0.8344117999076843,0.37880367040634155,0.9412063360214233,0.3395403325557709,0.8677874207496643,0.12967653572559357,0.9676401615142822,0.48378774523735046,0.9587605595588684,1.1022793054580688,0.8759791851043701,0.3535151481628418,0.9922217726707458,0.7294387221336365,0.8895480632781982,0.4598878026008606,0.9715104699134827,1.1550376415252686,0.8137218952178955,0.35403257608413696,0.9939367175102234,0.7755414247512817,0.6786739826202393,0.5427320003509521,1.0236355066299438,0.867048978805542,0.8392347693443298,0.40261510014533997,1.0848222970962524,0.3894142508506775,0.788273811340332
20036.502996312815,0.43844157457351685,0.23203769326210022,-1.1010878086090088,0.9999756813049316,0.44110193848609924,0.2054356336593628,-1.0517076253890991,0.9999494552612305,0.4488910734653473,0.20435598492622375,-1.0517185926437378,0.9999487400054932,0.4562671482563019,0.20333918929100037,-1.0516297817230225,0.999929666519165,0.4084398150444031,0.20843619108200073,-1.0844265222549438,0.9999560117721558,0.39010584354400635,0.2094249129295349,-1.084701418876648,0.9999610185623169,0.3694452941417694,0.21076825261116028,-1.0848350524902344,0.9999520778656006,0.4444023370742798,0.21273064613342285,-0.7002238631248474,0.9999499320983887,0.3165275454521179,0.22292464971542358,-0.8570389747619629,0.9999532699584961,0.4463542699813843,0.2537762522697449,-0.9644200205802917,0.9999810457229614,0.4112769067287445,0.25869056582450867,-1.008641004562378,0.9999847412109375,0.5225882530212402,0.3453751802444458,-0.4128858745098114,0.999879002571106,0.1726801097393036,0.37099015712738037,-0.6802387237548828,0.999748170375824,0.5675019025802612,0.5129936337471008,-0.13742105662822723,0.978400468826294,0.18561908602714539,0.5614383220672607,-0.9983170032501221,0.9917024970054626,0.6210808753967285,0.6447206139564514,-0.300709068775177,0.9839175939559937,0.27639004588127136,0.44759535789489746,-1.5663343667984009,0.9937785267829895,0.6407889723777771,0.6848815679550171,-0.34584131836891174,0.9665595293045044,0.2983148694038391,0.4131368398666382,-1.6843149662017822,0.9883987307548523,0.62654048204422,0.6852298974990845,-0.42381030321121216,0.9679002165794373,0.28915613889694214,0.3945617079734802,-1.687933087348938,0.9877808094024658,0.6148978471755981,0.6755030155181885,-0.32940810918807983,0.9685085415840149,0.2853670120239258,0.4021090269088745,-1.574047565460205,0.9809608459472656,0.49197202920913696,0.6275453567504883,0.10162877291440964,0.9977821707725525,0.31765758991241455,0.6468750238418579,-0.10161513090133667,0.9980891346931458,0.48702898621559143,0.8298812508583069,0.36541563272476196,0.9373394846916199,0.34068626165390015,0.8675582408905029,0.10603697597980499,0.967812180519104,0.4809560179710388,0.9511997699737549,1.1247358322143555,0.8708541393280029,0.35479333996772766,0.9864445328712463,0.7251060009002686,0.8944066762924194,0.4564512073993683,0.9642943143844604,1.182266116142273,0.8193776607513428,0.3531465232372284,0.9870783090591431,0.7741414308547974,0.6884575486183167,0.541539192199707,1.0180819034576416,0.9101618528366089,0.840664803981781,0.41551780700683594,1.0808700323104858,0.3968987762928009,0.7985393404960632
20053.169662979482,0.4341900944709778,0.23272469639778137,-1.0387734174728394,0.999954342842102,0.4380338191986084,0.2059316635131836,-0.9915598034858704,0.999904990196228,0.44612085819244385,0.20497363805770874,-0.9916286468505859,0.9999017715454102,0.45382222533226013,0.2040821611881256,-0.9916173219680786,0.9998735189437866,0.40404123067855835,0.20841187238693237,-1.021181344985962,0.9999148845672607,0.38498926162719727,0.20924508571624756,-1.0214515924453735,0.9999194145202637,0.36515378952026367,0.21038922667503357,-1.021592140197754,0.9999055862426758,0.4445054531097412,0.21374988555908203,-0.646682858467102,0.9999101161956787,0.31497278809547424,0.22249579429626465,-0.7886860966682434,0.9999033212661743,0.44215020537376404,0.25491395592689514,-0.9035132527351379,0.9999644756317139,0.4056582450866699,0.2599050998687744,-0.9436542391777039,0.9999699592590332,0.5256947875022888,0.34460851550102234,-0.37845495343208313,0.999823272228241,0.17130082845687866,0.3691171705722809,-0.6006187796592712,0.9996232986450195,0.5686070919036865,0.5098307132720947,-0.13806015253067017,0.9762877225875854,0.1884876936674118,0.5561764240264893,-0.9085900187492371,0.9866085648536682,0.6236221790313721,0.6447372436523438,-0.32478249073028564,0.9761523008346558,0.281249076128006,0.4456538259983063,-1.479068398475647,0.9883041381835938,0.6415735483169556,0.6854630708694458,-0.3764112889766693,0.9515880346298218,0.30452242493629456,0.4093993306159973,-1.5935524702072144,0.9795796871185303,0.6279056072235107,0.685946524143219,-0.45497533679008484,0.953716516494751,0.29419875144958496,0.39050519466400146,-1.5976449251174927,0.9786359667778015,0.6169259548187256,0.6756029725074768,-0.354346364736557,0.9558741450309753,0.2907469868659973,0.3988451361656189,-1.4872409105300903,0.9684186577796936,0.4908097982406616,0.6252874135971069,0.08491460233926773,0.996369481086731,0.3129659593105316,0.6432145237922668,-0.08479512482881546,0.9970870614051819,0.4832589626312256,0.8387351632118225,0.2655794024467468,0.9355723261833191,0.3398784399032593,0.8674814701080322,0.06495346128940582,0.9617792963981628,0.48228299617767334,0.9569827318191528,1.0146487951278687,0.8422145843505859,0.35449859499931335,0.9886298179626465,0.6522355675697327,0.8688061237335205,0.46028193831443787,0.9658545851707458,1.0706088542938232,0.7746028304100037,0.3528575599193573,0.98915034532547,0.6970682740211487,0.6158831119537354,0.5370442271232605,1.0207054615020752,0.7913669347763062,0.7946252822875977,0.4011261463165283,1.0883967876434326,0.3130462169647217,0.7493358254432678
20069.83632964615,0.4354347884654999,0.23340561985969543,-1.1086257696151733,0.9999741315841675,0.43914610147476196,0.20679143071174622,-1.060508131980896,0.9999450445175171,0.44702303409576416,0.20574021339416504,-1.0605213642120361,0.9999431371688843,0.4544202983379364,0.20473811030387878,-1.0604655742645264,0.9999232292175293,0.4058848023414612,0.20913192629814148,-1.0949745178222656,0.9999517202377319,0.38740015029907227,0.2096228301525116,-1.0952430963516235,0.9999566078186035,0.3674474358558655,0.21033695340156555,-1.0953800678253174,0.999947190284729,0.44342270493507385,0.21414810419082642,-0.7104144096374512,0.9999480247497559,0.3173523247241974,0.2221432328224182,-0.8747542500495911,0.9999465942382812,0.4427530765533447,0.25504270195961,-0.9714534878730774,0.9999803304672241,0.40723252296447754,0.25965556502342224,-1.0180226564407349,0.9999834299087524,0.5241695642471313,0.3451211154460907,-0.4205135703086853,0.9998719692230225,0.16975927352905273,0.37024253606796265,-0.6922439336776733,0.9997065663337708,0.568034291267395,0.5116090178489685,-0.1307985782623291,0.9788243770599365,0.18712939321994781,0.5582811832427979,-1.004698634147644,0.9900362491607666,0.622163712978363,0.6454227566719055,-0.28263020515441895,0.9827899932861328,0.27043861150741577,0.4485911726951599,-1.5807502269744873,0.9926377534866333,0.6410112977027893,0.686096727848053,-0.3260590136051178,0.9641419649124146,0.29322412610054016,0.4129306674003601,-1.7002772092819214,0.9867330193519592,0.6266664266586304,0.6863824129104614,-0.4058590233325958,0.9656649827957153,0.28209006786346436,0.39364778995513916,-1.7072157859802246,0.9860070943832397,0.6155874729156494,0.6754037141799927,-0.31181928515434265,0.9664174914360046,0.2779920697212219,0.40144652128219604,-1.590211033821106,0.9779965281486511,0.49265459179878235,0.6260128617286682,0.09480069577693939,0.9980237483978271,0.3166528046131134,0.6426113843917847,-0.09472935646772385,0.9982446432113647,0.4838295876979828,0.8306390643119812,0.33079707622528076,0.9507400989532471,0.33902573585510254,0.8611424565315247,0.0988612174987793,0.9701597094535828,0.47749432921409607,0.9518798589706421,1.1305713653564453,0.8843873143196106,0.3538037836551666,0.9832475185394287,0.7531285285949707,0.9061625003814697,0.4532169997692108,0.961639940738678,1.1918716430664062,0.8316982984542847,0.3499045670032501,0.9856547117233276,0.805073082447052,0.7032957077026367,0.5351166725158691,1.015656590461731,0.9147422909736633,0.8575572371482849,0.4083184003829956,1.073270320892334,0.4241192042827606,0.8191978335380554
20086.502996312818,0.43479883670806885,0.23283225297927856,-1.0944207906723022,0.999970555305481,0.4387473165988922,0.2063283920288086,-1.0461256504058838,0.9999381303787231,0.44687753915786743,0.20526814460754395,-1.0461329221725464,0.9999358654022217,0.45456430315971375,0.20428171753883362,-1.046078085899353,0.9999130964279175,0.40476253628730774,0.20920789241790771,-1.0792851448059082,0.9999467134475708,0.3859730362892151,0.20996427536010742,-1.079559087753296,0.999951958656311,0.36605989933013916,0.21086257696151733,-1.0796829462051392,0.9999418258666992,0.44444090127944946,0.2134990692138672,-0.701102077960968,0.9999401569366455,0.31599122285842896,0.2227689027786255,-0.8593894839286804,0.999942421913147,0.44347596168518066,0.25457528233528137,-0.9597640633583069,0.9999771118164062,0.4073348641395569,0.25897255539894104,-1.004523754119873,0.999981164932251,0.5232483148574829,0.3449975550174713,-0.42077815532684326,0.9998395442962646,0.16879022121429443,0.37171128392219543,-0.6811624765396118,0.9996997117996216,0.5674693584442139,0.5122758150100708,-0.14633633196353912,0.9765015244483948,0.1872335523366928,0.5596239566802979,-0.9901487231254578,0.990012526512146,0.6213840246200562,0.6443259119987488,-0.2975885570049286,0.9798572659492493,0.27349424362182617,0.44837653636932373,-1.5488345623016357,0.9925147891044617,0.6403177976608276,0.6854463815689087,-0.339915007352829,0.9586406350135803,0.2944468557834625,0.4151986241340637,-1.664795160293579,0.986473798751831,0.6269067525863647,0.6854152679443359,-0.41838639974594116,0.9601777195930481,0.28508588671684265,0.3968007564544678,-1.6691792011260986,0.9857566952705383,0.6156690716743469,0.6752631664276123,-0.32658639550209045,0.9616155624389648,0.28147464990615845,0.40350109338760376,-1.5572346448898315,0.97807377576828,0.4916544556617737,0.625774621963501,0.08995374292135239,0.9976905584335327,0.3147355020046234,0.6441880464553833,-0.0898854210972786,0.9981303811073303,0.4850253462791443,0.8350217342376709,0.32826128602027893,0.9527530670166016,0.3370743989944458,0.8656639456748962,0.10266505181789398,0.9717146158218384,0.48180732131004333,0.9518116116523743,1.1009275913238525,0.8856197595596313,0.3533364534378052,0.9843111634254456,0.7321933507919312,0.908630907535553,0.45757704973220825,0.9631352424621582,1.159500002861023,0.8299323916435242,0.35359081625938416,0.9839622378349304,0.7815311551094055,0.7084343433380127,0.540661096572876,1.0173494815826416,0.885565996170044,0.8527714014053345,0.4051493704319,1.074812889099121,0.4044191241264343,0.8189162611961365
20103.169662979486,0.43199560046195984,0.23172977566719055,-1.065132737159729,0.9999645948410034,0.4364109933376312,0.20468184351921082,-1.0173447132110596,0.9999264478683472,0.444854736328125,0.20376741886138916,-1.0173956155776978,0.9999246597290039,0.4527144134044647,0.20289099216461182,-1.0173643827438354,0.9999009370803833,0.40203526616096497,0.20729157328605652,-1.0475130081176758,0.9999340772628784,0.3828829228878021,0.20819348096847534,-1.0477925539016724,0.9999393224716187,0.3637726604938507,0.20927441120147705,-1.0479477643966675,0.9999271631240845,0.4447811543941498,0.2125004529953003,-0.6700897812843323,0.9999309778213501,0.31527093052864075,0.22217735648155212,-0.8148225545883179,0.9999263286590576,0.4408659040927887,0.25388598442077637,-0.929373562335968,0.9999730587005615,0.4038642644882202,0.2582147419452667,-0.970329761505127,0.9999773502349854,0.525850236415863,0.34490329027175903,-0.39424195885658264,0.9998420476913452,0.1707637757062912,0.37014999985694885,-0.6333131790161133,0.9996681213378906,0.5682293176651001,0.5096821188926697,-0.13712528347969055,0.9761357307434082,0.1894993782043457,0.5548515319824219,-0.9420437812805176,0.9869982600212097,0.621266782283783,0.6440619230270386,-0.3106973171234131,0.9781537055969238,0.2762534022331238,0.4476411044597626,-1.5151586532592773,0.9891270995140076,0.6407860517501831,0.6848539710044861,-0.3600790202617645,0.9561782479286194,0.29997697472572327,0.41045063734054565,-1.631911277770996,0.9814825654029846,0.628023624420166,0.6851595044136047,-0.43915021419525146,0.9582245349884033,0.28816524147987366,0.3924080729484558,-1.6403417587280273,0.9807378649711609,0.6169622540473938,0.6751328110694885,-0.3401203751564026,0.959823489189148,0.28586262464523315,0.40047407150268555,-1.5253366231918335,0.9713138341903687,0.48948121070861816,0.6256934404373169,0.08963579684495926,0.9967855215072632,0.31122738122940063,0.6433770656585693,-0.08953876048326492,0.9973847270011902,0.4842480719089508,0.8343085050582886,0.2980268895626068,0.9376196265220642,0.33808550238609314,0.8661631941795349,0.07835053652524948,0.9647699594497681,0.48005354404449463,0.9544280767440796,1.0563429594039917,0.8575358986854553,0.35189372301101685,0.988291323184967,0.6830475926399231,0.8820929527282715,0.4568299353122711,0.9640445113182068,1.113492727279663,0.7966471314430237,0.34884563088417053,0.9890305995941162,0.7298445701599121,0.6470292210578918,0.5372268557548523,1.0176403522491455,0.8343412280082703,0.8193217515945435,0.40692055225372314,1.084871530532837,0.3459034264087677,0.7720806002616882
20119.836329646154,0.4393649995326996,0.23078039288520813,-1.106534719467163,0.9999725818634033,0.44160616397857666,0.20449835062026978,-1.0578429698944092,0.9999445676803589,0.4492466151714325,0.2035021185874939,-1.057860016822815,0.9999431371688843,0.45644116401672363,0.2025304138660431,-1.0577861070632935,0.9999239444732666,0.40886086225509644,0.20721349120140076,-1.09257972240448,0.9999514818191528,0.39037615060806274,0.20807525515556335,-1.0928632020950317,0.999955415725708,0.3697524964809418,0.2092404067516327,-1.0929830074310303,0.9999462366104126,0.4433837831020355,0.2121899127960205,-0.7104167938232422,0.9999452829360962,0.3171905279159546,0.22163012623786926,-0.8770743012428284,0.999946117401123,0.44694092869758606,0.25233426690101624,-0.9711493253707886,0.99997878074646,0.41175562143325806,0.25660642981529236,-1.0182472467422485,0.9999829530715942,0.5230526924133301,0.3474718928337097,-0.44177842140197754,0.9998531341552734,0.17094187438488007,0.3703996539115906,-0.692435085773468,0.9996870756149292,0.5642502903938293,0.5156686305999756,-0.1900136023759842,0.9768623113632202,0.1811225563287735,0.5579015612602234,-1.0013158321380615,0.9902532696723938,0.6183784008026123,0.649696946144104,-0.3697661757469177,0.9804447889328003,0.27536919713020325,0.45499563217163086,-1.5533201694488525,0.9911187291145325,0.6370298862457275,0.6894594430923462,-0.4207035303115845,0.9599508047103882,0.30238959193229675,0.41701406240463257,-1.6698620319366455,0.9839746356010437,0.6217660307884216,0.6906139850616455,-0.49946534633636475,0.9614250063896179,0.2902953028678894,0.3981812596321106,-1.672813892364502,0.9831345081329346,0.6096420884132385,0.6798676252365112,-0.39922699332237244,0.96242356300354,0.2879738211631775,0.4061785340309143,-1.560712456703186,0.9745848774909973,0.49191704392433167,0.6278960108757019,0.08955688774585724,0.9975488781929016,0.31434503197669983,0.6448224782943726,-0.08953608572483063,0.9979714751243591,0.4855901300907135,0.8359656929969788,0.36250802874565125,0.9495366811752319,0.33667346835136414,0.8683276176452637,0.12316840887069702,0.9709725975990295,0.48389971256256104,0.95590740442276,1.1228746175765991,0.8889768719673157,0.35192108154296875,0.9890704154968262,0.7465801239013672,0.9038041234016418,0.45937928557395935,0.9680817723274231,1.1802582740783691,0.8308442234992981,0.353543758392334,1.0176135301589966,0.7954443097114563,0.6960560083389282,0.544711172580719,1.0215965509414673,0.9034218788146973,0.8592170476913452,0.40212586522102356,1.0842766761779785,0.41564062237739563,0.8100956082344055
20136.50299631282,0.43889859318733215,0.23112648725509644,-1.119639277458191,0.9999783039093018,0.44124117493629456,0.20466604828834534,-1.0728613138198853,0.9999547004699707,0.44880256056785583,0.20365267992019653,-1.07285737991333,0.9999542236328125,0.4558801054954529,0.2026582956314087,-1.0727678537368774,0.999937891960144,0.4087570309638977,0.20769119262695312,-1.1063013076782227,0.9999611377716064,0.39039701223373413,0.20868301391601562,-1.1065560579299927,0.9999643564224243,0.3698301911354065,0.20995402336120605,-1.1066585779190063,0.9999563694000244,0.44328632950782776,0.21219861507415771,-0.7289097309112549,0.999955415725708,0.31792616844177246,0.2225373089313507,-0.8895633220672607,0.9999568462371826,0.4469618499279022,0.25266173481941223,-0.9850873351097107,0.9999819993972778,0.4120160937309265,0.25713542103767395,-1.0304213762283325,0.9999856948852539,0.5244547128677368,0.34595760703086853,-0.4489436447620392,0.9998588562011719,0.17330943048000336,0.37036147713661194,-0.7061627507209778,0.9997487664222717,0.5637908577919006,0.5150465369224548,-0.1874331682920456,0.974425196647644,0.1871764361858368,0.5577434301376343,-1.01055109500885,0.9900571703910828,0.6162500381469727,0.6473120450973511,-0.3566017150878906,0.9792296290397644,0.2782762050628662,0.4518406391143799,-1.559727430343628,0.991115927696228,0.6362109184265137,0.6875735521316528,-0.4051046669483185,0.9582647085189819,0.30426621437072754,0.41290605068206787,-1.6748765707015991,0.9842705130577087,0.6219252347946167,0.688870906829834,-0.4838491678237915,0.9595522284507751,0.29141372442245483,0.3955520987510681,-1.6813385486602783,0.9833676815032959,0.6095107197761536,0.6786245107650757,-0.3858235478401184,0.9603655934333801,0.2883646488189697,0.40368160605430603,-1.5685335397720337,0.9748162627220154,0.4887758195400238,0.6267092823982239,0.09671439230442047,0.9976003766059875,0.3148634433746338,0.6448673009872437,-0.096703439950943,0.9982629418373108,0.4837259352207184,0.8324941396713257,0.41381531953811646,0.9504492282867432,0.339349627494812,0.8666165471076965,0.12981608510017395,0.9771075248718262,0.4822670817375183,0.9542437791824341,1.1330368518829346,0.9010708928108215,0.35039854049682617,0.9916524291038513,0.7112916707992554,0.9196718335151672,0.4567555785179138,0.968984067440033,1.1860439777374268,0.8477947115898132,0.34771928191185,0.9943946003913879,0.7556257843971252,0.7350903153419495,0.5493521094322205,1.0180628299713135,0.9145166277885437,0.8723011612892151,0.4073032736778259,1.0819205045700073,0.37988364696502686,0.8327262997627258
20153.16966297949,0.43768617510795593,0.23131892085075378,-1.0757497549057007,0.999966025352478,0.44088107347488403,0.20435360074043274,-1.0264919996261597,0.9999310970306396,0.44874879717826843,0.20336583256721497,-1.0265380144119263,0.9999295473098755,0.456102579832077,0.2023971676826477,-1.0264991521835327,0.9999066591262817,0.40755072236061096,0.20721036195755005,-1.0605274438858032,0.999940037727356,0.388910174369812,0.2081316113471985,-1.0608118772506714,0.9999449253082275,0.3684244453907013,0.20929211378097534,-1.060958981513977,0.9999337196350098,0.4446732997894287,0.2119491994380951,-0.6771288514137268,0.9999357461929321,0.31655508279800415,0.22213613986968994,-0.839324414730072,0.9999350309371948,0.4459059238433838,0.252828985452652,-0.9396634101867676,0.9999750852584839,0.410560667514801,0.25705569982528687,-0.9855364561080933,0.9999793767929077,0.5245842337608337,0.34519505500793457,-0.40311434864997864,0.9998373985290527,0.1705365628004074,0.37187743186950684,-0.6581131219863892,0.9996578693389893,0.5650529265403748,0.5101929903030396,-0.14251106977462769,0.9744477868080139,0.18480555713176727,0.5596923828125,-0.9660723805427551,0.9879918694496155,0.6183210611343384,0.6437975168228149,-0.31738895177841187,0.9769219756126404,0.2777024805545807,0.45380669832229614,-1.5301297903060913,0.9897026419639587,0.6389898061752319,0.6839030385017395,-0.36660876870155334,0.9540405869483948,0.30327308177948,0.4154077172279358,-1.64691960811615,0.9822019934654236,0.6257963180541992,0.684918999671936,-0.44622111320495605,0.9560139775276184,0.28987911343574524,0.3979208469390869,-1.653342843055725,0.9813767075538635,0.6132544279098511,0.6751821041107178,-0.3472287356853485,0.9577242136001587,0.28632286190986633,0.40683287382125854,-1.5392494201660156,0.9719761610031128,0.49360430240631104,0.6289907097816467,0.09208262711763382,0.9970526695251465,0.31364643573760986,0.6467174291610718,-0.09196986258029938,0.9976183772087097,0.4842171370983124,0.8398755788803101,0.3111373484134674,0.9467115998268127,0.3394538164138794,0.8718652129173279,0.08472832292318344,0.9685413241386414,0.4831990599632263,0.9578617811203003,1.0843942165374756,0.8751453757286072,0.35403385758399963,0.9925731420516968,0.707352876663208,0.8945329785346985,0.460701584815979,0.9682010412216187,1.1427868604660034,0.8164143562316895,0.3510833978652954,0.993000864982605,0.7554993033409119,0.6714087724685669,0.5417183637619019,1.0217467546463013,0.8632835745811462,0.8389809131622314,0.4069640636444092,1.0880438089370728,0.37000373005867004,0.7925134897232056
20169.836329646158,0.43815627694129944,0.2309778928756714,-1.0905156135559082,0.9999793767929077,0.44212937355041504,0.20421332120895386,-1.0406972169876099,0.9999569654464722,0.44997426867485046,0.20344576239585876,-1.0407018661499023,0.9999561309814453,0.45721808075904846,0.2026658058166504,-1.0406330823898315,0.999940037727356,0.4083835482597351,0.20668482780456543,-1.0749962329864502,0.999962329864502,0.3894956111907959,0.2075415849685669,-1.0752437114715576,0.9999665021896362,0.36962890625,0.20852592587471008,-1.0753569602966309,0.9999583959579468,0.4460774064064026,0.21256455779075623,-0.691965639591217,0.999958872795105,0.31918755173683167,0.22092989087104797,-0.8565143942832947,0.999958872795105,0.4455094039440155,0.2526720464229584,-0.9552871584892273,0.9999845027923584,0.4089239835739136,0.2565920948982239,-1.0018250942230225,0.9999872446060181,0.5220823884010315,0.34573355317115784,-0.4140883982181549,0.9998730421066284,0.1704530566930771,0.37029069662094116,-0.6837849617004395,0.9997366070747375,0.5642515420913696,0.5092198848724365,-0.13929934799671173,0.9757481217384338,0.18814000487327576,0.5593155026435852,-0.9970607757568359,0.989045262336731,0.6190563440322876,0.6425678133964539,-0.30050787329673767,0.9785152673721313,0.27913200855255127,0.45251694321632385,-1.5645138025283813,0.9908860921859741,0.6382014751434326,0.6839251518249512,-0.34604278206825256,0.9566152691841125,0.29984012246131897,0.4161060154438019,-1.6830271482467651,0.9842230677604675,0.6254799365997314,0.6845874190330505,-0.4239998459815979,0.9584276080131531,0.2869615852832794,0.39816683530807495,-1.6903117895126343,0.9834957718849182,0.614145815372467,0.6745485067367554,-0.32952311635017395,0.9598840475082397,0.2853041887283325,0.4060278534889221,-1.5743674039840698,0.9748021364212036,0.49132081866264343,0.625493586063385,0.09926851838827133,0.997958779335022,0.3145832419395447,0.6442806124687195,-0.09920148551464081,0.9982991814613342,0.4849577844142914,0.8291201591491699,0.3436446487903595,0.9489478468894958,0.34117770195007324,0.8645308017730713,0.08830567449331284,0.9732716679573059,0.479683518409729,0.9483436942100525,1.1359939575195312,0.8857781887054443,0.3503504693508148,0.9845491647720337,0.7245417833328247,0.9101463556289673,0.4540427327156067,0.9617656469345093,1.1965996026992798,0.8335327506065369,0.3457525670528412,0.9856229424476624,0.7745627164840698,0.7038476467132568,0.5460631847381592,1.0137430429458618,0.9243825674057007,0.8565068244934082,0.4110323190689087,1.076138973236084,0.395548939704895,0.820542573928833
20186.502996312825,0.435520738363266,0.230357825756073,-1.117777705192566,0.9999802112579346,0.43917712569236755,0.20311975479125977,-1.0685518980026245,0.9999581575393677,0.44721242785453796,0.202338308095932,-1.068543791770935,0.9999580383300781,0.4547742009162903,0.20160213112831116,-1.0684744119644165,0.9999417066574097,0.40534716844558716,0.20595231652259827,-1.101096510887146,0.999962568283081,0.3860999643802643,0.207086980342865,-1.1013423204421997,0.9999669790267944,0.3666307330131531,0.20840632915496826,-1.1014447212219238,0.9999583959579468,0.44517332315444946,0.21195706725120544,-0.7227495908737183,0.9999610185623169,0.315958172082901,0.22197788953781128,-0.8792588114738464,0.9999573230743408,0.4435242712497711,0.25261086225509644,-0.9838531017303467,0.999984622001648,0.4061257839202881,0.2575981020927429,-1.0280253887176514,0.9999866485595703,0.5236504077911377,0.3474845886230469,-0.4442058801651001,0.9998689889907837,0.17085854709148407,0.3719058036804199,-0.7008756995201111,0.9996944665908813,0.5671229362487793,0.5107098817825317,-0.16140034794807434,0.9775997996330261,0.18907427787780762,0.561428427696228,-1.0150576829910278,0.9888179302215576,0.619676411151886,0.6448098421096802,-0.3064773380756378,0.980610728263855,0.2723003327846527,0.45537707209587097,-1.592081904411316,0.9912102222442627,0.6382819414138794,0.6856212615966797,-0.3487127721309662,0.960024893283844,0.29398101568222046,0.41697442531585693,-1.7112089395523071,0.9846617579460144,0.6252375841140747,0.6861584782600403,-0.42630505561828613,0.9616674780845642,0.28095102310180664,0.3983527421951294,-1.7175501585006714,0.983875572681427,0.6141809225082397,0.675592303276062,-0.33473578095436096,0.9630724787712097,0.27729564905166626,0.4065547585487366,-1.6021367311477661,0.9753642082214355,0.4911452829837799,0.6250159740447998,0.09345292299985886,0.9981794357299805,0.31445297598838806,0.6432149410247803,-0.09339394420385361,0.9983953833580017,0.4852280914783478,0.8277955651283264,0.33553171157836914,0.9536990523338318,0.34018635749816895,0.8634212017059326,0.10445566475391388,0.9748780131340027,0.4783974289894104,0.9476820230484009,1.1417560577392578,0.8953150510787964,0.34928154945373535,0.9814146757125854,0.7603790760040283,0.9184858798980713,0.4529379904270172,0.9612120389938354,1.2037101984024048,0.844028115272522,0.3447023332118988,0.983599841594696,0.8125366568565369,0.7225221395492554,0.5426143407821655,1.0142033100128174,0.9319513440132141,0.8671432733535767,0.4051039516925812,1.0719951391220093,0.43688178062438965,0.83430016040802
20203.169662979493,0.43441033363342285,0.23132234811782837,-1.0467705726623535,0.9999649524688721,0.43901312351226807,0.204507976770401,-0.9990426301956177,0.9999285936355591,0.4472215175628662,0.20368245244026184,-0.9990894198417664,0.9999268054962158,0.45497989654541016,0.2028748095035553,-0.9990576505661011,0.9999027252197266,0.4039124548435211,0.2075510323047638,-1.0297080278396606,0.9999370574951172,0.3839436173439026,0.20864853262901306,-1.0299721956253052,0.9999433755874634,0.3641226589679718,0.20960739254951477,-1.030108094215393,0.9999324083328247,0.44624093174934387,0.21255090832710266,-0.6637795567512512,0.9999332427978516,0.3147949278354645,0.22187617421150208,-0.8102480173110962,0.9999319314956665,0.44371435046195984,0.253311425447464,-0.916678249835968,0.9999749660491943,0.4067715108394623,0.25719261169433594,-0.9578557014465332,0.9999784231185913,0.5247434377670288,0.34569549560546875,-0.401458203792572,0.9998229146003723,0.1706414818763733,0.37225550413131714,-0.6367626190185547,0.9996415376663208,0.5647707581520081,0.5123596787452698,-0.14070890843868256,0.9713019132614136,0.1886029839515686,0.5630744099617004,-0.939397394657135,0.9872753620147705,0.6212397813796997,0.6435580849647522,-0.29212284088134766,0.973358154296875,0.2760067582130432,0.45276957750320435,-1.496121883392334,0.9903427362442017,0.6391361951828003,0.6855636835098267,-0.33549702167510986,0.9484193325042725,0.29685428738594055,0.4157561957836151,-1.6078848838806152,0.9834924936294556,0.6262291669845581,0.6857026219367981,-0.40966033935546875,0.9507585167884827,0.2839350998401642,0.39734387397766113,-1.6126121282577515,0.982810378074646,0.6156386137008667,0.6754951477050781,-0.3194919526576996,0.9537543654441833,0.28110480308532715,0.40544599294662476,-1.5047523975372314,0.974420964717865,0.4948109984397888,0.6279627084732056,0.08641389012336731,0.9972735047340393,0.31735503673553467,0.6477935910224915,-0.08629054576158524,0.9976999163627625,0.4803565740585327,0.8393830060958862,0.2933744490146637,0.9342109560966492,0.33866822719573975,0.8682016134262085,0.08428236097097397,0.9597876071929932,0.47953084111213684,0.9547473788261414,1.0562535524368286,0.845763087272644,0.3503028154373169,0.9863556027412415,0.701579213142395,0.8645277619361877,0.45599547028541565,0.9650677442550659,1.1142939329147339,0.7848013043403625,0.3450720012187958,0.987960159778595,0.7505426406860352,0.6355397701263428,0.5395760536193848,1.0180907249450684,0.8474418520927429,0.7976736426353455,0.4017140567302704,1.0791964530944824,0.3840476870536804,0.7462191581726074
20219.83632964616,0.43379300832748413,0.23145154118537903,-1.1051292419433594,0.9999747276306152,0.4391101002693176,0.20456156134605408,-1.055362582206726,0.9999479055404663,0.44750967621803284,0.20373350381851196,-1.0553789138793945,0.9999467134475708,0.45527133345603943,0.20295408368110657,-1.0553230047225952,0.9999277591705322,0.40448665618896484,0.20758548378944397,-1.0871565341949463,0.9999537467956543,0.38504478335380554,0.20877981185913086,-1.0874141454696655,0.9999581575393677,0.36513328552246094,0.21007689833641052,-1.0875365734100342,0.9999483823776245,0.44628244638442993,0.21333429217338562,-0.7034558057785034,0.9999513626098633,0.31509578227996826,0.22337162494659424,-0.855980396270752,0.9999488592147827,0.44282853603363037,0.2535003125667572,-0.9684309959411621,0.9999805688858032,0.4056486487388611,0.2578907608985901,-1.0115482807159424,0.9999833106994629,0.5262600779533386,0.34548220038414,-0.4205622971057892,0.9998483657836914,0.17263174057006836,0.37161195278167725,-0.6720412969589233,0.9996757507324219,0.5650510191917419,0.511624276638031,-0.1403614729642868,0.9744758605957031,0.18760164082050323,0.5592429041862488,-0.9920070767402649,0.9875088334083557,0.6183257699012756,0.6452419757843018,-0.2904743254184723,0.9772225022315979,0.2797175943851471,0.45177674293518066,-1.5734834671020508,0.9896584153175354,0.6377716064453125,0.6862245798110962,-0.3330225944519043,0.954094409942627,0.30402055382728577,0.4127075672149658,-1.6922483444213867,0.9819396138191223,0.6247073411941528,0.6871593594551086,-0.4117410182952881,0.9557476043701172,0.2912880778312683,0.3952248990535736,-1.6963008642196655,0.9808741211891174,0.6134233474731445,0.6765591502189636,-0.31911909580230713,0.9572049379348755,0.287797212600708,0.40356844663619995,-1.5823767185211182,0.9709132313728333,0.4941236078739166,0.6268461346626282,0.09133221954107285,0.9977920055389404,0.3167932629585266,0.6449353694915771,-0.0912519171833992,0.9981459379196167,0.48643770813941956,0.8336172699928284,0.33022764325141907,0.9547237753868103,0.33970171213150024,0.8667901754379272,0.10146114230155945,0.9737558960914612,0.4828568398952484,0.9541903138160706,1.1114760637283325,0.8944323062896729,0.3565094470977783,0.9888470768928528,0.7384010553359985,0.9137731194496155,0.4601438343524933,0.9667686223983765,1.1702226400375366,0.8367631435394287,0.3543606400489807,0.9899000525474548,0.7877532243728638,0.7087167501449585,0.5417800545692444,1.020005226135254,0.8862960934638977,0.8619165420532227,0.4114578068256378,1.081040620803833,0.400463342666626,0.8243361711502075
20236.50299631283,0.4329957962036133,0.23126554489135742,-1.0991714000701904,0.9999732971191406,0.4379335343837738,0.20444998145103455,-1.0496504306793213,0.9999451637268066,0.4462253153324127,0.2035064995288849,-1.0496817827224731,0.9999446868896484,0.45398882031440735,0.2026575207710266,-1.0496288537979126,0.999925971031189,0.40351733565330505,0.20781755447387695,-1.0789755582809448,0.9999500513076782,0.38387733697891235,0.20905375480651855,-1.0792275667190552,0.999954342842102,0.36404067277908325,0.21029877662658691,-1.079345464706421,0.999943733215332,0.4450953006744385,0.21256950497627258,-0.7012509107589722,0.9999483823776245,0.31459540128707886,0.2231186032295227,-0.8424472808837891,0.9999430179595947,0.4423520863056183,0.25299710035324097,-0.9643288850784302,0.9999797344207764,0.40522485971450806,0.2573898136615753,-1.0041730403900146,0.999982476234436,0.5244497060775757,0.3455551266670227,-0.42656686902046204,0.9998418092727661,0.1744045466184616,0.370481014251709,-0.6597133874893188,0.999659538269043,0.5655580163002014,0.5110042691230774,-0.17132937908172607,0.9740480780601501,0.1895354688167572,0.5577046871185303,-0.9717164039611816,0.9866012930870056,0.6160851716995239,0.6451612114906311,-0.33737775683403015,0.9752382040023804,0.2827990651130676,0.45085635781288147,-1.5414680242538452,0.9882653951644897,0.636285662651062,0.6859626770019531,-0.38504570722579956,0.9503275752067566,0.30525243282318115,0.41396981477737427,-1.6583139896392822,0.9797235727310181,0.6233245134353638,0.6875529289245605,-0.46134597063064575,0.9520471096038818,0.29302239418029785,0.39580029249191284,-1.6626344919204712,0.9785730242729187,0.6116474866867065,0.6767405271530151,-0.3655466139316559,0.9537243843078613,0.2906164526939392,0.40376025438308716,-1.5504059791564941,0.9680683016777039,0.490451455116272,0.6258255839347839,0.09248833358287811,0.9974353909492493,0.3143695592880249,0.6439178586006165,-0.09242232143878937,0.9978546500205994,0.48631662130355835,0.8323367834091187,0.34061264991760254,0.949685275554657,0.34015434980392456,0.8643366098403931,0.10493232309818268,0.9741989374160767,0.48231467604637146,0.9534846544265747,1.1014633178710938,0.8886997103691101,0.3551394045352936,0.986477792263031,0.724532425403595,0.909264326095581,0.45990583300590515,0.9658306241035461,1.1582682132720947,0.8267257213592529,0.3519025146961212,0.9879677295684814,0.7724358439445496,0.6955085396766663,0.5437589287757874,1.0161259174346924,0.8773685097694397,0.8539547324180603,0.4152776896953583,1.0797439813613892,0.3900217115879059,0.8153079152107239
20253.169662979497,0.4299086034297943,0.23454549908638,-1.032468557357788,0.9999697208404541,0.43671858310699463,0.209307461977005,-0.9849429726600647,0.9999386072158813,0.4454982280731201,0.20799940824508667,-0.984994113445282,0.9999383687973022,0.4531824588775635,0.20691341161727905,-0.9849348664283752,0.9999191761016846,0.4017450511455536,0.21097683906555176,-1.0156387090682983,0.9999426603317261,0.38209059834480286,0.21091938018798828,-1.0158493518829346,0.9999462366104126,0.36379751563072205,0.21115747094154358,-1.015951156616211,0.9999334812164307,0.44663435220718384,0.2151258885860443,-0.6380665898323059,0.9999407529830933,0.31641530990600586,0.2213810682296753,-0.7862683534622192,0.9999315738677979,0.43882936239242554,0.25624728202819824,-0.8968174457550049,0.9999755620956421,0.40197059512138367,0.2603657841682434,-0.9386047720909119,0.9999786615371704,0.5205994844436646,0.3457110524177551,-0.36775556206703186,0.9998742341995239,0.17273202538490295,0.36815494298934937,-0.6015012264251709,0.9996715784072876,0.5635454654693604,0.5122421979904175,-0.1204342246055603,0.9768528938293457,0.19224423170089722,0.5569736361503601,-0.9127383828163147,0.9834384322166443,0.6157846450805664,0.6459661722183228,-0.3089434504508972,0.9797849059104919,0.2780880928039551,0.44640910625457764,-1.493412733078003,0.9867515563964844,0.6359665393829346,0.6866922974586487,-0.361416757106781,0.9595549702644348,0.3035281002521515,0.4084077477455139,-1.610946536064148,0.9786131381988525,0.6224039793014526,0.6878519058227539,-0.4404467046260834,0.9612525701522827,0.29228925704956055,0.3915978968143463,-1.6194736957550049,0.9777238965034485,0.6094419956207275,0.6781548261642456,-0.33863893151283264,0.961909830570221,0.28748366236686707,0.4006827771663666,-1.5040309429168701,0.967062771320343,0.49077466130256653,0.6274906396865845,0.0968560129404068,0.9974678754806519,0.3146945536136627,0.6458436846733093,-0.09674636274576187,0.997782289981842,0.48755666613578796,0.8327636122703552,0.34789782762527466,0.9419442415237427,0.3408200144767761,0.8684329390525818,0.09504946321249008,0.9707424640655518,0.48421022295951843,0.9551897048950195,1.0567529201507568,0.8788914084434509,0.3570534586906433,0.9897377490997314,0.6723178029060364,0.8953273296356201,0.45973968505859375,0.9698009490966797,1.1085423231124878,0.8201912045478821,0.34934884309768677,1.0168499946594238,0.7166425585746765,0.6786273717880249,0.5450859069824219,1.0220909118652344,0.8302285075187683,0.8376262784004211,0.40891122817993164,1.0827597379684448,0.3416309356689453,0.7875453233718872
20269.836329646165,0.43627986311912537,0.23284989595413208,-1.1052590608596802,0.9999817609786987,0.440540075302124,0.20637992024421692,-1.0559002161026,0.999962568283081,0.44840967655181885,0.20519426465034485,-1.0559033155441284,0.9999622106552124,0.45566457509994507,0.20411789417266846,-1.0558167695999146,0.9999480247497559,0.4068887233734131,0.20920199155807495,-1.088712453842163,0.9999668598175049,0.38788214325904846,0.2098628282546997,-1.088941216468811,0.9999700784683228,0.3676948547363281,0.21077388525009155,-1.0890355110168457,0.999962329864502,0.4452652633190155,0.21355336904525757,-0.7039362788200378,0.999963641166687,0.31650763750076294,0.22267675399780273,-0.8619446754455566,0.9999631643295288,0.4441608488559723,0.25414222478866577,-0.9685876965522766,0.9999853372573853,0.40846139192581177,0.2593281865119934,-1.0131486654281616,0.9999878406524658,0.5237690210342407,0.3469676971435547,-0.42013978958129883,0.9998774528503418,0.17095595598220825,0.3704507350921631,-0.6826766729354858,0.999737560749054,0.5642259120941162,0.513751745223999,-0.14719560742378235,0.9762856960296631,0.19069647789001465,0.5610937476158142,-0.9979144930839539,0.9883267283439636,0.6183681488037109,0.6450843811035156,-0.31222090125083923,0.9814274907112122,0.27187126874923706,0.4532047510147095,-1.57600736618042,0.990860104560852,0.6378265619277954,0.6858620047569275,-0.35859498381614685,0.9623706936836243,0.29579561948776245,0.41542431712150574,-1.6961723566055298,0.9843074679374695,0.6245054602622986,0.6868137121200562,-0.4394960403442383,0.9637929201126099,0.28472980856895447,0.39670372009277344,-1.705529808998108,0.983590304851532,0.6124575734138489,0.6769893765449524,-0.3423800766468048,0.9642527103424072,0.2816401422023773,0.4055948257446289,-1.5872176885604858,0.9750791788101196,0.4920591115951538,0.629319965839386,0.10010329633951187,0.9979854822158813,0.31774452328681946,0.6478151679039001,-0.10004591941833496,0.9983294606208801,0.48606881499290466,0.829792857170105,0.39266061782836914,0.9540417790412903,0.3406662940979004,0.8664625883102417,0.1257096230983734,0.9768298268318176,0.48152756690979004,0.952845573425293,1.143878698348999,0.8995243906974792,0.35434770584106445,0.9871100783348083,0.7494359016418457,0.9185705780982971,0.45706453919410706,0.9662449359893799,1.199703335762024,0.8475944995880127,0.35176363587379456,0.9879189729690552,0.7980920672416687,0.7304090261459351,0.545870304107666,1.0180413722991943,0.9224006533622742,0.8692904710769653,0.4111430048942566,1.0770719051361084,0.420297771692276,0.8327000141143799
20286.502996312833,0.43237826228141785,0.2340041697025299,-1.1332498788833618,0.9999803304672241,0.43878746032714844,0.207811176776886,-1.0851658582687378,0.999958872795105,0.44737133383750916,0.2064889669418335,-1.0851668119430542,0.9999574422836304,0.4551069736480713,0.2053689956665039,-1.0850807428359985,0.9999411106109619,0.4042332172393799,0.21038225293159485,-1.1171168088912964,0.9999648332595825,0.3851141035556793,0.2108398675918579,-1.117376446723938,0.9999685287475586,0.36605337262153625,0.2115831971168518,-1.1174936294555664,0.9999616146087646,0.44841817021369934,0.2143542468547821,-0.728675901889801,0.9999572038650513,0.3175415098667145,0.2223668396472931,-0.8832752108573914,0.9999620914459229,0.4416157603263855,0.2561948597431183,-0.9937148094177246,0.9999837875366211,0.40473222732543945,0.26092439889907837,-1.037345051765442,0.9999878406524658,0.5238856077194214,0.3466823101043701,-0.43136462569236755,0.9998779296875,0.17244434356689453,0.3710612654685974,-0.6929585933685303,0.9997666478157043,0.563233494758606,0.5142726898193359,-0.1434965580701828,0.9774903655052185,0.18469257652759552,0.5623958110809326,-1.0072970390319824,0.9903590083122253,0.6191918849945068,0.6455602645874023,-0.3081962764263153,0.9833801984786987,0.27639809250831604,0.4542902112007141,-1.5962992906570435,0.9926839470863342,0.6395180225372314,0.6863870620727539,-0.3543677031993866,0.965937077999115,0.30131617188453674,0.41627058386802673,-1.7189741134643555,0.9867978692054749,0.6252493262290955,0.6867896318435669,-0.4371598958969116,0.9671860933303833,0.29026147723197937,0.3982294797897339,-1.7251542806625366,0.9861471056938171,0.613282322883606,0.6769118905067444,-0.3386119306087494,0.9671880602836609,0.28593575954437256,0.40693408250808716,-1.6055880784988403,0.9783847332000732,0.4925604462623596,0.629895031452179,0.09998772293329239,0.9979473948478699,0.3167310953140259,0.6487807035446167,-0.09997811913490295,0.9982588887214661,0.4856754541397095,0.8317599892616272,0.3863452672958374,0.9498642086982727,0.3406773805618286,0.8698430061340332,0.12445789575576782,0.9737656116485596,0.4805850088596344,0.9518603086471558,1.1617279052734375,0.888664960861206,0.3551868498325348,0.9877992868423462,0.7635607719421387,0.91151362657547,0.4565754532814026,0.9654000997543335,1.220524549484253,0.8371204137802124,0.35215768218040466,0.9877270460128784,0.814214825630188,0.7175452709197998,0.5434001684188843,1.0174059867858887,0.9411635398864746,0.8615888357162476,0.4162605404853821,1.0795753002166748,0.43194711208343506,0.8242111206054688
20303.1696629795,0.4281589984893799,0.2358320653438568,-1.1459439992904663,0.9999759197235107,0.43520107865333557,0.2099904716014862,-1.0995941162109375,0.9999480247497559,0.44429102540016174,0.2084757685661316,-1.0996125936508179,0.9999473094940186,0.45233696699142456,0.20715099573135376,-1.0995653867721558,0.9999277591705322,0.4002653658390045,0.2125614583492279,-1.1277556419372559,0.9999520778656006,0.38080936670303345,0.212853342294693,-1.1280035972595215,0.9999568462371826,0.36238589882850647,0.21329265832901,-1.12812077999115,0.9999465942382812,0.4477103352546692,0.21597301959991455,-0.744359016418457,0.9999498128890991,0.31532472372055054,0.22345679998397827,-0.8809660077095032,0.9999443292617798,0.4378478527069092,0.2580016851425171,-1.006301999092102,0.9999802112579346,0.40052494406700134,0.26286953687667847,-1.0448408126831055,0.9999830722808838,0.5214330554008484,0.34513014554977417,-0.441026896238327,0.9998830556869507,0.1737537831068039,0.37063831090927124,-0.6807729005813599,0.999728262424469,0.5629948377609253,0.5091387629508972,-0.14900635182857513,0.9774027466773987,0.18866370618343353,0.5611723065376282,-0.9905070066452026,0.9867688417434692,0.6182134747505188,0.6432721018791199,-0.3060818612575531,0.9815844297409058,0.277155339717865,0.4514966607093811,-1.6010890007019043,0.9907673001289368,0.6380002498626709,0.6846815943717957,-0.35170799493789673,0.9624794721603394,0.2997491955757141,0.4145064055919647,-1.7249999046325684,0.9843000769615173,0.6248213052749634,0.6860922574996948,-0.4350737929344177,0.9639099836349487,0.28674861788749695,0.3951665461063385,-1.7358362674713135,0.9835505485534668,0.6137498617172241,0.6759193539619446,-0.33633479475975037,0.9642893671989441,0.2842721939086914,0.4029330909252167,-1.613282561302185,0.9746209979057312,0.4911094903945923,0.6251880526542664,0.09500875324010849,0.998021125793457,0.31581470370292664,0.6439500451087952,-0.09494011849164963,0.9982935786247253,0.48720720410346985,0.8260006904602051,0.34031856060028076,0.9488058686256409,0.3427160978317261,0.8644503951072693,0.09596464037895203,0.9732871055603027,0.4815160930156708,0.9493818283081055,1.134880542755127,0.884300947189331,0.3538496196269989,0.9839192628860474,0.7367221713066101,0.9108495116233826,0.45768794417381287,0.9628825783729553,1.195101261138916,0.8302026391029358,0.351181298494339,0.9847627878189087,0.787075400352478,0.706912100315094,0.5433573126792908,1.0156298875808716,0.9119058847427368,0.8533135652542114,0.41534996032714844,1.0753213167190552,0.4017474353313446,0.8224603533744812
20319.83632964617,0.4356355667114258,0.2324354648590088,-1.0884133577346802,0.999977707862854,0.4404067397117615,0.20641949772834778,-1.0411486625671387,0.9999525547027588,0.4484866261482239,0.20547941327095032,-1.041150689125061,0.9999507665634155,0.4562416672706604,0.20460063219070435,-1.0410634279251099,0.9999339580535889,0.40608465671539307,0.20807600021362305,-1.0750263929367065,0.9999591112136841,0.387002170085907,0.20840618014335632,-1.0752623081207275,0.9999617338180542,0.3670886158943176,0.20905518531799316,-1.0753421783447266,0.9999532699584961,0.4477923512458801,0.2135666310787201,-0.6952341794967651,0.9999521970748901,0.31796690821647644,0.22032210230827332,-0.8585711121559143,0.9999517202377319,0.4431384205818176,0.25384417176246643,-0.953048586845398,0.9999817609786987,0.4075176417827606,0.25808829069137573,-0.9991908669471741,0.9999853372573853,0.5212624669075012,0.3460300862789154,-0.4236391484737396,0.9998592138290405,0.17139533162117004,0.36959826946258545,-0.671444296836853,0.9997264742851257,0.5607835054397583,0.5132721662521362,-0.16628532111644745,0.9759283661842346,0.18462185561656952,0.5569818019866943,-0.9745332598686218,0.9871900677680969,0.6154104471206665,0.6490359902381897,-0.33970534801483154,0.9788200259208679,0.2807309329509735,0.45091259479522705,-1.528896450996399,0.9888370037078857,0.634909987449646,0.6890182495117188,-0.3893756866455078,0.9573147296905518,0.30708080530166626,0.41050541400909424,-1.6448265314102173,0.9812854528427124,0.6209154725074768,0.6911887526512146,-0.46878916025161743,0.9585666060447693,0.29462313652038574,0.3928857147693634,-1.6515729427337646,0.9802968502044678,0.6089816093444824,0.6803516149520874,-0.3690967559814453,0.9595489501953125,0.28981509804725647,0.4017230272293091,-1.5380135774612427,0.9704621434211731,0.4900144338607788,0.6282718181610107,0.09469328075647354,0.9976931214332581,0.31396105885505676,0.6450636386871338,-0.09466647356748581,0.9982641339302063,0.48291704058647156,0.8327039480209351,0.3903593420982361,0.9565101265907288,0.33846941590309143,0.8669422268867493,0.12171996384859085,0.9784980416297913,0.48248475790023804,0.9521555304527283,1.1299349069595337,0.907728910446167,0.35061928629875183,0.990639328956604,0.7188863754272461,0.9261582493782043,0.4577438533306122,0.9671884179115295,1.1850829124450684,0.8557640910148621,0.3478962481021881,0.9940679669380188,0.764404296875,0.7446911931037903,0.5503214597702026,1.0168159008026123,0.9135907888412476,0.8802309632301331,0.40421682596206665,1.0812313556671143,0.3879602551460266,0.8433010578155518
20336.502996312836,0.4356442987918854,0.2319396734237671,-1.1057682037353516,0.9999775886535645,0.4398026764392853,0.20566368103027344,-1.0583233833312988,0.9999527931213379,0.4478340148925781,0.20472854375839233,-1.0583248138427734,0.9999508857727051,0.4554918110370636,0.20383915305137634,-1.0582447052001953,0.9999338388442993,0.4056212604045868,0.20764592289924622,-1.0914992094039917,0.9999589920043945,0.3864315152168274,0.2081548273563385,-1.091736912727356,0.9999614953994751,0.36661019921302795,0.20892944931983948,-1.0918197631835938,0.9999531507492065,0.4467024505138397,0.21303778886795044,-0.7108014822006226,0.9999537467956543,0.31749600172042847,0.22045829892158508,-0.8707365989685059,0.999951958656311,0.4435141682624817,0.25346019864082336,-0.9698551297187805,0.9999817609786987,0.40783819556236267,0.2577390670776367,-1.0150002241134644,0.9999849796295166,0.522512674331665,0.3463313579559326,-0.4374699294567108,0.999858021736145,0.17158615589141846,0.36987224221229553,-0.6814329028129578,0.999710738658905,0.5615587830543518,0.513394832611084,-0.17588753998279572,0.9765766859054565,0.18422336876392365,0.5569136142730713,-0.9905176758766174,0.9875174164772034,0.6163269281387329,0.6493334174156189,-0.3445727527141571,0.9795998930931091,0.2791573107242584,0.4518401622772217,-1.5560773611068726,0.9895177483558655,0.6353708505630493,0.6893993020057678,-0.39272764325141907,0.9586281776428223,0.30577975511550903,0.4118671119213104,-1.6739991903305054,0.9821614027023315,0.6208005547523499,0.6914960145950317,-0.47344595193862915,0.9598764777183533,0.2937460243701935,0.39403101801872253,-1.679931402206421,0.9812182188034058,0.6088361144065857,0.680551290512085,-0.37428367137908936,0.9608929753303528,0.28882288932800293,0.402596116065979,-1.5653259754180908,0.9717655777931213,0.49088895320892334,0.6277797818183899,0.0896960124373436,0.9978177547454834,0.31352201104164124,0.6445204615592957,-0.08965044468641281,0.9982940554618835,0.48255276679992676,0.8329004049301147,0.3756334185600281,0.9579063057899475,0.33905109763145447,0.8661412000656128,0.13171246647834778,0.9775300025939941,0.4831796884536743,0.9528682231903076,1.1239827871322632,0.9071422815322876,0.351653516292572,0.9885892271995544,0.7499513030052185,0.9254227876663208,0.4596182703971863,0.9675706624984741,1.1797744035720825,0.8562238812446594,0.3496679663658142,0.9913956522941589,0.7976668477058411,0.7457392811775208,0.5483059883117676,1.0171394348144531,0.9045297503471375,0.8787480592727661,0.39876750111579895,1.078325867652893,0.4212414622306824,0.842805027961731
20353.169662979504,0.4368310272693634,0.23188012838363647,-1.1093817949295044,0.9999730587005615,0.441139817237854,0.20554590225219727,-1.0617034435272217,0.9999443292617798,0.4491460621356964,0.20460954308509827,-1.0617218017578125,0.9999426603317261,0.45673370361328125,0.2037038803100586,-1.0616679191589355,0.9999222755432129,0.4071328938007355,0.2075985074043274,-1.0953425168991089,0.9999518394470215,0.38796427845954895,0.2081972360610962,-1.0956131219863892,0.9999563694000244,0.36767300963401794,0.20915040373802185,-1.0957415103912354,0.9999468326568604,0.44731006026268005,0.21282491087913513,-0.7099037170410156,0.9999457597732544,0.3169270157814026,0.22119536995887756,-0.8717706799507141,0.9999474287033081,0.44503191113471985,0.2535642385482788,-0.971519947052002,0.9999784231185913,0.40927401185035706,0.258107990026474,-1.0173321962356567,0.9999829530715942,0.5239344835281372,0.34592610597610474,-0.42414841055870056,0.9998472929000854,0.17008747160434723,0.3702857196331024,-0.6841106414794922,0.9997033476829529,0.5643879771232605,0.5106490254402161,-0.14578595757484436,0.9734095335006714,0.1857350468635559,0.5590084195137024,-0.99600750207901,0.9878981709480286,0.6196319460868835,0.643939733505249,-0.3051576614379883,0.97728031873703,0.28239890933036804,0.4502546489238739,-1.5678592920303345,0.990007758140564,0.6394410729408264,0.685258150100708,-0.3493657112121582,0.9547567367553711,0.30721408128738403,0.41091060638427734,-1.6858257055282593,0.9828178882598877,0.6264450550079346,0.6861585378646851,-0.43012675642967224,0.9566361904144287,0.293483704328537,0.39338722825050354,-1.6915361881256104,0.9820457100868225,0.6148366332054138,0.6758806109428406,-0.33489373326301575,0.9579765796661377,0.289938360452652,0.40203386545181274,-1.576789140701294,0.9726951718330383,0.49189385771751404,0.6266233921051025,0.09491673856973648,0.997215986251831,0.3137187361717224,0.6451501846313477,-0.09483017027378082,0.9977303147315979,0.48539677262306213,0.8314146399497986,0.34012383222579956,0.9437161684036255,0.33923983573913574,0.8680499196052551,0.09623629599809647,0.9690117835998535,0.4826788008213043,0.9530672430992126,1.1027159690856934,0.8717790246009827,0.3531658351421356,0.9884458184242249,0.7160288095474243,0.8974234461784363,0.45943737030029297,0.9655234813690186,1.1602506637573242,0.8170459270477295,0.3508855998516083,0.9892758131027222,0.7643120884895325,0.6842513680458069,0.5436816215515137,1.0179928541183472,0.8826899528503418,0.8371770977973938,0.4124278426170349,1.0827343463897705,0.3815131187438965,0.7959582805633545
20369.836329646172,0.4395354986190796,0.23268571496009827,-1.0979387760162354,0.9999791383743286,0.44343969225883484,0.2069658637046814,-1.0489379167556763,0.9999575614929199,0.45122095942497253,0.2061646580696106,-1.0489410161972046,0.9999560117721558,0.4586373269557953,0.20538970828056335,-1.048875331878662,0.99993896484375,0.410219669342041,0.20852506160736084,-1.086015224456787,0.9999632835388184,0.39184075593948364,0.20883452892303467,-1.086261510848999,0.999967098236084,0.37106823921203613,0.20943909883499146,-1.086376667022705,0.9999591112136841,0.4455711841583252,0.214412122964859,-0.6961646676063538,0.9999599456787109,0.3193203806877136,0.22047513723373413,-0.8739889860153198,0.9999617338180542,0.44620266556739807,0.25415077805519104,-0.9598937630653381,0.9999843835830688,0.4115646779537201,0.2579987645149231,-1.0102512836456299,0.9999876022338867,0.5259318351745605,0.34690970182418823,-0.41192683577537537,0.9998780488967896,0.16847600042819977,0.37005090713500977,-0.6939647793769836,0.9997335076332092,0.5644864439964294,0.5130523443222046,-0.12382727861404419,0.977423369884491,0.18795627355575562,0.5616919994354248,-1.012411117553711,0.9895596504211426,0.6212559938430786,0.6453348398208618,-0.27975893020629883,0.9823272228240967,0.26875364780426025,0.4531848430633545,-1.5883437395095825,0.9921054840087891,0.6413078308105469,0.6855612397193909,-0.32273855805397034,0.9639432430267334,0.29360532760620117,0.4145660400390625,-1.7085057497024536,0.986305832862854,0.6274459362030029,0.6858697533607483,-0.40455466508865356,0.9656129479408264,0.28149792551994324,0.3963811695575714,-1.7163242101669312,0.9857914447784424,0.6156997084617615,0.6763866543769836,-0.3101288974285126,0.9664157032966614,0.2779693901538849,0.40503165125846863,-1.598407506942749,0.9781241416931152,0.4921770691871643,0.6274473071098328,0.09643254429101944,0.9979019165039062,0.312893271446228,0.6447065472602844,-0.0963277518749237,0.9982050657272339,0.48541736602783203,0.8308068513870239,0.3435823917388916,0.9526337385177612,0.338788241147995,0.8662644624710083,0.09814359992742538,0.970658540725708,0.4825248122215271,0.9512794613838196,1.1225813627243042,0.8855208158493042,0.3556605577468872,0.9873797297477722,0.7348023056983948,0.9072188138961792,0.4594096541404724,0.9636036157608032,1.1817682981491089,0.8380345106124878,0.35393816232681274,0.9863609075546265,0.784953773021698,0.7130885124206543,0.5395998954772949,1.0175209045410156,0.9062093496322632,0.8519624471664429,0.4076367914676666,1.0780997276306152,0.4037834107875824,0.8126500844955444
20386.50299631284,0.43859803676605225,0.23179101943969727,-1.0660419464111328,0.9999784231185913,0.4426268935203552,0.2058730125427246,-1.0165961980819702,0.9999561309814453,0.4506681263446808,0.20513033866882324,-1.0166078805923462,0.999955415725708,0.4583234190940857,0.20443758368492126,-1.0165512561798096,0.9999387264251709,0.40907949209213257,0.2077728807926178,-1.0521485805511475,0.9999604225158691,0.3907897174358368,0.208359032869339,-1.0523630380630493,0.9999645948410034,0.3703819513320923,0.209214448928833,-1.0524545907974243,0.9999551773071289,0.44581374526023865,0.21379873156547546,-0.6696985960006714,0.9999608993530273,0.3194693326950073,0.2205427587032318,-0.8399492502212524,0.9999573230743408,0.4460931718349457,0.2533721923828125,-0.9309121966362,0.9999842643737793,0.41013747453689575,0.2571902871131897,-0.979038417339325,0.9999862909317017,0.5256673693656921,0.34732329845428467,-0.39583247900009155,0.9998866319656372,0.1687392145395279,0.3688789904117584,-0.665976345539093,0.9996747970581055,0.5649793148040771,0.5141549110412598,-0.10816526412963867,0.9796996712684631,0.18640491366386414,0.5601159930229187,-0.9898836016654968,0.9879531264305115,0.6229231357574463,0.6462355852127075,-0.24895884096622467,0.9829977750778198,0.27077311277389526,0.4524560272693634,-1.5663013458251953,0.9905993342399597,0.6403595209121704,0.6874953508377075,-0.2894095778465271,0.9648822546005249,0.2939300835132599,0.416965514421463,-1.6844562292099,0.9838868975639343,0.6261420249938965,0.6875572800636292,-0.368181049823761,0.9665197730064392,0.28317275643348694,0.3975899815559387,-1.6914855241775513,0.9831956028938293,0.6153397560119629,0.6771876215934753,-0.27768364548683167,0.9675619006156921,0.279317170381546,0.40558937191963196,-1.5765302181243896,0.9744754433631897,0.49161142110824585,0.6267173290252686,0.09194323420524597,0.9984033703804016,0.31274402141571045,0.643833577632904,-0.09182681143283844,0.9984639883041382,0.4813247621059418,0.8335665464401245,0.3285680413246155,0.9572584629058838,0.3383195698261261,0.8599574565887451,0.10527167469263077,0.972225546836853,0.4779490530490875,0.949770987033844,1.1186387538909912,0.8987652063369751,0.3487238883972168,0.9817876815795898,0.7564356327056885,0.9116610288619995,0.45476827025413513,0.961479902267456,1.178692102432251,0.8487861752510071,0.3453739881515503,0.9840757250785828,0.8083623051643372,0.7209621667861938,0.5330734252929688,1.0179805755615234,0.9052370190620422,0.8634218573570251,0.40173104405403137,1.0681220293045044,0.436362624168396,0.8218799233436584
20403.169662979508,0.43774810433387756,0.23177644610404968,-1.061644196510315,0.9999778270721436,0.44164347648620605,0.20550388097763062,-1.0131714344024658,0.9999547004699707,0.44954636693000793,0.20463064312934875,-1.0131738185882568,0.9999533891677856,0.4571249485015869,0.20380541682243347,-1.0130943059921265,0.9999356269836426,0.4078315496444702,0.2076316475868225,-1.0478060245513916,0.99996018409729,0.3891497850418091,0.20824167132377625,-1.0480144023895264,0.999963641166687,0.3689679801464081,0.20909622311592102,-1.0480988025665283,0.9999544620513916,0.4459554851055145,0.2126975953578949,-0.6698229908943176,0.9999566078186035,0.31848371028900146,0.220481276512146,-0.8368960022926331,0.9999557733535767,0.4450494945049286,0.25328296422958374,-0.9280617237091064,0.9999828338623047,0.40948495268821716,0.2571483850479126,-0.9751713275909424,0.9999858140945435,0.5251500010490417,0.3465318977832794,-0.40147891640663147,0.9998735189437866,0.1700924038887024,0.36826521158218384,-0.6627917885780334,0.999702513217926,0.5653382539749146,0.5120987296104431,-0.12507691979408264,0.9769420623779297,0.18903474509716034,0.5590617656707764,-0.9781549572944641,0.9867139458656311,0.6200767159461975,0.6442499756813049,-0.2779954969882965,0.9814809560775757,0.26673179864883423,0.4533352851867676,-1.547908902168274,0.9898709654808044,0.6391283273696899,0.684995174407959,-0.32114267349243164,0.96299809217453,0.2912483513355255,0.41800642013549805,-1.6654819250106812,0.9832797050476074,0.625532865524292,0.6855641603469849,-0.40232643485069275,0.9645498394966125,0.28069645166397095,0.39929887652397156,-1.6751937866210938,0.9826410412788391,0.6140527725219727,0.6761422753334045,-0.3080372214317322,0.9656168222427368,0.2761848270893097,0.4070430397987366,-1.559313178062439,0.9740100502967834,0.4921318292617798,0.6278737187385559,0.0928838923573494,0.9983211159706116,0.31481918692588806,0.645206868648529,-0.09279145300388336,0.9985244870185852,0.48411649465560913,0.830456018447876,0.3621249198913574,0.9593251943588257,0.338258296251297,0.8580708503723145,0.123276486992836,0.975989580154419,0.48026561737060547,0.9512325525283813,1.1296731233596802,0.9073235392570496,0.35080045461654663,0.9814774394035339,0.7632153034210205,0.922539472579956,0.45700764656066895,0.9641396999359131,1.1874372959136963,0.8606460690498352,0.34903866052627563,0.9841614961624146,0.8140053153038025,0.7469095587730408,0.5398551821708679,1.0140290260314941,0.9177663922309875,0.8750427961349487,0.39398622512817383,1.0678318738937378,0.44744250178337097,0.8395644426345825
20419.836329646176,0.43467897176742554,0.23348462581634521,-1.1324430704116821,0.999983549118042,0.439807653427124,0.20726776123046875,-1.0864899158477783,0.9999655485153198,0.4481021463871002,0.20608407258987427,-1.08647882938385,0.9999650716781616,0.45562633872032166,0.20505350828170776,-1.086413860321045,0.9999511241912842,0.4060700535774231,0.2096274495124817,-1.1180349588394165,0.9999696016311646,0.38688167929649353,0.21016335487365723,-1.1182622909545898,0.9999727010726929,0.3676150441169739,0.21102148294448853,-1.1183282136917114,0.9999656677246094,0.447709321975708,0.21412774920463562,-0.7412108182907104,0.9999672174453735,0.3175520896911621,0.22265100479125977,-0.8939874768257141,0.9999653100967407,0.4432580769062042,0.25507137179374695,-0.9969284534454346,0.9999854564666748,0.40609192848205566,0.2599407732486725,-1.0400007963180542,0.9999879598617554,0.5237797498703003,0.3472774028778076,-0.45854753255844116,0.999872088432312,0.17097467184066772,0.3706248700618744,-0.7031278014183044,0.9997169375419617,0.5627285838127136,0.5128990411758423,-0.17545433342456818,0.9754583239555359,0.18580374121665955,0.5608917474746704,-1.019760012626648,0.9872552156448364,0.6204133033752441,0.6434506773948669,-0.32074272632598877,0.9788611531257629,0.27488723397254944,0.4543401896953583,-1.6052147150039673,0.9894353747367859,0.6392732858657837,0.6841920614242554,-0.3610834777355194,0.9576066136360168,0.297990620136261,0.41781336069107056,-1.7245503664016724,0.982004702091217,0.6273717880249023,0.684738039970398,-0.4436904489994049,0.9592821598052979,0.2867690324783325,0.3980224132537842,-1.7309000492095947,0.9811896085739136,0.6165454983711243,0.6753419637680054,-0.3509168028831482,0.9604892730712891,0.28369593620300293,0.40652498602867126,-1.6156797409057617,0.9716411232948303,0.4924730062484741,0.6263180375099182,0.08552772551774979,0.9981495141983032,0.31471535563468933,0.6449412703514099,-0.08544494956731796,0.9984242916107178,0.4841206669807434,0.8280589580535889,0.367511123418808,0.9589423537254333,0.3399844169616699,0.8585342168807983,0.1387120932340622,0.9775905609130859,0.4780428409576416,0.9454150795936584,1.132733702659607,0.9072937965393066,0.3490660786628723,0.9809730648994446,0.7750157117843628,0.926301121711731,0.45421484112739563,0.9612538814544678,1.1903142929077148,0.8573099374771118,0.3476134240627289,0.9836696982383728,0.8254470825195312,0.7497628927230835,0.5393173098564148,1.0119746923446655,0.9175316691398621,0.8776547908782959,0.39825189113616943,1.0676556825637817,0.4578073024749756,0.8455036878585815
20436.502996312844,0.4333702325820923,0.23416772484779358,-1.086485505104065,0.999969482421875,0.43911266326904297,0.20776629447937012,-1.0398938655853271,0.9999370574951172,0.4478464126586914,0.20640897750854492,-1.0399508476257324,0.9999375343322754,0.4555826783180237,0.2052505612373352,-1.0399585962295532,0.9999163150787354,0.4043581783771515,0.21027737855911255,-1.066507339477539,0.9999399185180664,0.3844754993915558,0.2106931507587433,-1.0667366981506348,0.9999449253082275,0.3656024634838104,0.21131020784378052,-1.0668293237686157,0.9999314546585083,0.44908735156059265,0.2140321433544159,-0.695850133895874,0.9999457597732544,0.31696006655693054,0.2224503457546234,-0.8249298334121704,0.9999253749847412,0.44249528646469116,0.2559296786785126,-0.9518444538116455,0.9999748468399048,0.40479159355163574,0.260407954454422,-0.988153338432312,0.9999758005142212,0.5258628129959106,0.34726712107658386,-0.4273014962673187,0.9998561143875122,0.17383891344070435,0.37105467915534973,-0.6205917596817017,0.9995123147964478,0.5672147870063782,0.5125066041946411,-0.15648002922534943,0.9800383448600769,0.18641482293605804,0.5604501962661743,-0.9327713847160339,0.982088029384613,0.6239141225814819,0.6458907723426819,-0.3030388057231903,0.9799490571022034,0.2777422070503235,0.4543490409851074,-1.5407328605651855,0.9858511090278625,0.6408173441886902,0.6871575117111206,-0.34543681144714355,0.9588854312896729,0.3010757267475128,0.4177156090736389,-1.6578528881072998,0.976533830165863,0.6287250518798828,0.6873016357421875,-0.4245694875717163,0.9609418511390686,0.28995662927627563,0.3986794948577881,-1.6632343530654907,0.9756220579147339,0.6187080144882202,0.6767347455024719,-0.3311575949192047,0.9625505805015564,0.28739693760871887,0.40674230456352234,-1.5510575771331787,0.9641188383102417,0.4940500855445862,0.6261579990386963,0.06861066073179245,0.9974849224090576,0.316864937543869,0.6447336077690125,-0.06844301521778107,0.9975951313972473,0.48122793436050415,0.8340190649032593,0.255771279335022,0.9457026720046997,0.33920934796333313,0.8641348481178284,0.0865950882434845,0.9627884030342102,0.47796058654785156,0.9523928165435791,1.0322835445404053,0.8626580238342285,0.3497479557991028,0.9811800122261047,0.7122315168380737,0.8786426782608032,0.45582762360572815,0.9639263153076172,1.0905925035476685,0.7988916039466858,0.3470720946788788,0.981870174407959,0.7616131901741028,0.6437032222747803,0.5304774641990662,1.018908143043518,0.8110730051994324,0.8132587671279907,0.3886946439743042,1.0754765272140503,0.3886282742023468,0.7652085423469543
20453.16966297951,0.43307042121887207,0.231739342212677,-1.1460763216018677,0.9999852180480957,0.4390973150730133,0.20465824007987976,-1.0985846519470215,0.9999680519104004,0.4477403461933136,0.20365959405899048,-1.0985729694366455,0.9999681711196899,0.4556829035282135,0.20279955863952637,-1.098514199256897,0.999955415725708,0.40411534905433655,0.20745325088500977,-1.1279524564743042,0.9999707937240601,0.3844696283340454,0.20830997824668884,-1.1281760931015015,0.9999738931655884,0.3658525049686432,0.20925667881965637,-1.128242015838623,0.9999665021896362,0.4489551782608032,0.2122710943222046,-0.7505750060081482,0.9999709129333496,0.3175969123840332,0.22126895189285278,-0.893140971660614,0.9999644756317139,0.4422054886817932,0.2537792921066284,-1.0103739500045776,0.9999868869781494,0.4041883647441864,0.2579491138458252,-1.0505541563034058,0.9999881982803345,0.5263819694519043,0.34793609380722046,-0.46597328782081604,0.999881386756897,0.17297671735286713,0.37091949582099915,-0.6982271671295166,0.9996887445449829,0.567136287689209,0.5124013423919678,-0.17411653697490692,0.9789904356002808,0.18865804374217987,0.5602743625640869,-1.0128926038742065,0.9860477447509766,0.6239146590232849,0.6465293169021606,-0.31241002678871155,0.9820382595062256,0.27759647369384766,0.4552880525588989,-1.614020824432373,0.9889746904373169,0.641425371170044,0.6876624226570129,-0.35186755657196045,0.9629954099655151,0.3015274107456207,0.4188157021999359,-1.7350893020629883,0.981350302696228,0.6282855272293091,0.6875752210617065,-0.4347185790538788,0.964570164680481,0.288485586643219,0.39923182129859924,-1.7422350645065308,0.9804674386978149,0.6180804371833801,0.6772845983505249,-0.34199759364128113,0.9654027223587036,0.28645089268684387,0.40719419717788696,-1.625225305557251,0.9704157710075378,0.4933667480945587,0.6246947646141052,0.08321571350097656,0.9982851147651672,0.3162989616394043,0.6426432132720947,-0.08314859122037888,0.9985148310661316,0.4857771396636963,0.8264434337615967,0.3459388017654419,0.9612702131271362,0.34017160534858704,0.8563225269317627,0.12730693817138672,0.9785943627357483,0.47734013199806213,0.9473981857299805,1.1413986682891846,0.9069386124610901,0.3498084843158722,0.980133593082428,0.781312882900238,0.9295160174369812,0.45183664560317993,0.9613704085350037,1.2015485763549805,0.8539559841156006,0.3488088846206665,0.9821839332580566,0.8329257965087891,0.7465848922729492,0.5389633774757385,1.0134950876235962,0.9245023131370544,0.878613293170929,0.397315114736557,1.0683810710906982,0.45846468210220337,0.8525082468986511
